#wavelength	surface flux
0.01	5.912408759124085e-75
0.0101	6.321167883211674e-75
0.010201	6.734014598540144e-75
0.010303010000000001	7.150989781021901e-75
0.0104060401	7.572134715328464e-75
0.010510100501000002	7.997491098978107e-75
0.01061520150601	8.427101046464236e-75
0.010721353521070101	8.86100709342523e-75
0.010828567056280802	9.299252200855833e-75
0.010936852726843608	9.741879759360733e-75
0.011046221254112046	9.999999999999998e-75
0.011156683466653166	9.999999999999998e-75
0.011268250301319697	9.999999999999998e-75
0.011380932804332895	9.999999999999998e-75
0.011494742132376225	9.999999999999998e-75
0.011609689553699986	9.999999999999998e-75
0.011725786449236988	9.999999999999998e-75
0.011843044313729357	9.999999999999998e-75
0.01196147475686665	9.999999999999998e-75
0.012081089504435316	9.999999999999998e-75
0.012201900399479671	9.999999999999998e-75
0.012323919403474468	9.999999999999998e-75
0.012447158597509212	9.999999999999998e-75
0.012571630183484304	9.999999999999998e-75
0.012697346485319148	9.999999999999998e-75
0.012824319950172339	9.999999999999998e-75
0.012952563149674063	9.999999999999998e-75
0.013082088781170804	9.999999999999998e-75
0.013212909668982512	9.999999999999998e-75
0.013345038765672336	9.999999999999998e-75
0.013478489153329061	9.999999999999998e-75
0.013613274044862352	9.999999999999998e-75
0.013749406785310975	9.999999999999998e-75
0.013886900853164083	9.999999999999998e-75
0.014025769861695726	9.999999999999998e-75
0.014166027560312683	9.999999999999998e-75
0.01430768783591581	9.999999999999998e-75
0.014450764714274969	9.999999999999998e-75
0.014595272361417718	9.999999999999998e-75
0.014741225085031895	9.999999999999998e-75
0.014888637335882214	9.999999999999998e-75
0.015037523709241036	9.999999999999998e-75
0.015187898946333447	9.999999999999998e-75
0.015339777935796781	9.999999999999998e-75
0.015493175715154751	9.999999999999998e-75
0.015648107472306296	9.999999999999998e-75
0.01580458854702936	9.999999999999998e-75
0.015962634432499654	9.999999999999998e-75
0.016122260776824653	9.999999999999998e-75
0.016283483384592897	9.999999999999998e-75
0.016446318218438827	9.999999999999998e-75
0.016610781400623217	9.999999999999998e-75
0.016776889214629446	9.999999999999998e-75
0.016944658106775742	9.999999999999998e-75
0.0171141046878435	9.999999999999998e-75
0.017285245734721934	9.999999999999998e-75
0.017458098192069154	9.999999999999998e-75
0.017632679173989845	9.999999999999998e-75
0.017809005965729745	9.999999999999998e-75
0.01798709602538704	9.999999999999998e-75
0.018166966985640912	9.999999999999998e-75
0.01834863665549732	9.999999999999998e-75
0.018532123022052295	9.999999999999998e-75
0.01871744425227282	9.999999999999998e-75
0.01890461869479555	9.999999999999998e-75
0.0190936648817435	9.999999999999998e-75
0.019284601530560937	9.999999999999998e-75
0.01947744754586655	9.999999999999998e-75
0.019672222021325212	9.999999999999998e-75
0.019868944241538466	9.999999999999998e-75
0.020067633683953853	9.999999999999998e-75
0.02026831002079339	9.999999999999998e-75
0.020470993121001323	9.999999999999998e-75
0.020675703052211336	9.999999999999998e-75
0.02088246008273345	9.999999999999998e-75
0.021091284683560786	9.999999999999998e-75
0.021302197530396395	9.999999999999998e-75
0.02151521950570036	9.999999999999998e-75
0.02173037170075736	9.999999999999998e-75
0.02194767541776493	9.999999999999998e-75
0.022167152171942584	9.999999999999998e-75
0.022388823693662012	9.999999999999998e-75
0.02261271193059863	9.999999999999998e-75
0.022838839049904615	9.999999999999998e-75
0.023067227440403664	9.999999999999998e-75
0.0232978997148077	9.999999999999998e-75
0.023530878711955777	9.999999999999998e-75
0.023766187499075334	9.999999999999998e-75
0.024003849374066088	9.999999999999998e-75
0.02424388786780675	9.999999999999998e-75
0.024486326746484814	9.999999999999998e-75
0.024731190013949664	9.999999999999998e-75
0.024978501914089166	9.999999999999998e-75
0.025228286933230055	9.999999999999998e-75
0.02548056980256236	9.999999999999998e-75
0.025735375500587982	9.999999999999998e-75
0.025992729255593858	9.999999999999998e-75
0.0262526565481498	9.999999999999998e-75
0.026515183113631293	9.999999999999998e-75
0.02678033494476761	9.999999999999998e-75
0.027048138294215287	9.999999999999998e-75
0.02731861967715744	9.999999999999998e-75
0.027591805873929013	9.999999999999998e-75
0.027867723932668304	9.999999999999998e-75
0.02814640117199499	9.999999999999998e-75
0.028427865183714936	9.999999999999998e-75
0.02871214383555209	9.999999999999998e-75
0.028999265273907608	9.999999999999998e-75
0.029289257926646682	9.999999999999998e-75
0.029582150505913153	9.999999999999998e-75
0.02987797201097228	9.999999999999998e-75
0.030176751731082006	9.999999999999998e-75
0.030478519248392826	9.999999999999998e-75
0.030783304440876753	9.999999999999998e-75
0.031091137485285525	9.999999999999998e-75
0.03140204886013838	9.999999999999998e-75
0.03171606934873976	9.999999999999998e-75
0.03203323004222716	9.999999999999998e-75
0.03235356234264943	9.999999999999998e-75
0.03267709796607593	9.999999999999998e-75
0.03300386894573669	9.999999999999998e-75
0.03333390763519405	9.999999999999998e-75
0.033667246711545994	9.999999999999998e-75
0.034003919178661454	9.999999999999998e-75
0.03434395837044807	9.999999999999998e-75
0.03468739795415255	9.999999999999998e-75
0.03503427193369407	9.999999999999998e-75
0.03538461465303102	9.999999999999998e-75
0.03573846079956133	9.999999999999998e-75
0.03609584540755694	9.999999999999998e-75
0.03645680386163251	9.999999999999998e-75
0.03682137190024883	9.999999999999998e-75
0.03718958561925133	9.999999999999998e-75
0.03756148147544384	9.999999999999998e-75
0.03793709629019828	9.999999999999998e-75
0.03831646725310026	9.999999999999998e-75
0.038699631925631264	9.999999999999998e-75
0.039086628244887574	9.999999999999998e-75
0.039477494527336454	9.999999999999998e-75
0.03987226947260982	9.999999999999998e-75
0.04027099216733592	9.999999999999998e-75
0.04067370208900927	9.999999999999998e-75
0.04108043910989937	9.999999999999998e-75
0.04149124350099836	9.999999999999998e-75
0.04190615593600835	9.999999999999998e-75
0.042325217495368425	9.999999999999998e-75
0.04274846967032212	9.999999999999998e-75
0.043175954367025336	9.999999999999998e-75
0.04360771391069559	9.999999999999998e-75
0.04404379104980254	9.999999999999998e-75
0.04448422896030057	9.999999999999998e-75
0.04492907124990358	9.999999999999998e-75
0.04537836196240262	9.999999999999998e-75
0.04583214558202665	9.999999999999998e-75
0.04629046703784691	9.999999999999998e-75
0.046753371708225376	9.999999999999998e-75
0.04722090542530763	9.999999999999998e-75
0.047693114479560705	9.999999999999998e-75
0.04817004562435631	9.999999999999998e-75
0.04865174608059988	9.999999999999998e-75
0.04913826354140587	9.999999999999998e-75
0.04962964617681994	9.999999999999998e-75
0.05012594263858814	9.999999999999998e-75
0.05062720206497402	9.999999999999998e-75
0.05113347408562376	9.999999999999998e-75
0.051644808826479996	9.999999999999998e-75
0.0521612569147448	9.999999999999998e-75
0.052682869483892246	9.999999999999998e-75
0.05320969817873117	9.999999999999998e-75
0.05374179516051848	9.999999999999998e-75
0.054279213112123664	9.999999999999998e-75
0.0548220052432449	9.999999999999998e-75
0.05537022529567735	9.999999999999998e-75
0.05592392754863413	9.999999999999998e-75
0.056483166824120475	9.999999999999998e-75
0.057047998492361675	9.999999999999998e-75
0.057618478477285295	9.999999999999998e-75
0.05819466326205815	9.999999999999998e-75
0.05877660989467873	9.999999999999998e-75
0.05936437599362551	9.999999999999998e-75
0.05995801975356178	9.999999999999998e-75
0.06055759995109739	9.999999999999998e-75
0.06116317595060837	9.999999999999998e-75
0.061774807710114454	9.999999999999998e-75
0.062392555787215594	9.999999999999998e-75
0.06301648134508775	9.999999999999998e-75
0.06364664615853863	9.999999999999998e-75
0.06428311262012401	9.999999999999998e-75
0.06492594374632525	9.999999999999998e-75
0.06557520318378851	9.999999999999998e-75
0.0662309552156264	1.0000561799757867e-74
0.06689326476778266	1.000217287117285e-74
0.06756219741546049	1.0038528634472914e-74
0.0682378193896151	1.0199033128042537e-74
0.06892019758351124	1.057891632306224e-74
0.06960939955934635	1.334580306286787e-74
0.07030549355493981	2.672277084909576e-74
0.07100854849048922	5.579807521107519e-74
0.07171863397539412	2.743650968782378e-73
0.07243582031514804	1.4039272228585022e-72
0.07316017851829953	5.661924546484158e-72
0.07389178030348253	1.894335292144412e-71
0.07463069810651736	1.0607771845747758e-70
0.07537700508758254	5.173686204129079e-70
0.07613077513845835	2.0050047334027708e-69
0.07689208288984294	7.188440951603313e-69
0.07766100371874136	1.5471130410957408e-40
0.07843761375592878	4.650698627038947e-39
0.07922198989348807	2.9789864919362023e-38
0.08001420979242296	9.687395674317347e-38
0.08081435189034718	3.3304082982355985e-38
0.08162249540925066	6.481019008006314e-33
0.08243872036334317	1.5429706352927393e-30
0.08326310756697661	1.4744660353153556e-29
0.08409573864264637	4.21355671943625e-29
0.08493669602907282	6.1913312660665774e-30
0.08578606298936356	7.4569676526064125e-31
0.0866439236192572	9.999999999999998e-75
0.08751036285544977	2.563332086565622e-65
0.08838546648400426	2.7057950344087984e-64
0.08926932114884432	4.003916629486077e-61
0.09016201436033276	4.926490475774508e-60
0.09106363450393609	2.454339681603964e-59
0.09197427084897544	5.05371595917456e-59
0.0928940135574652	1.4575455072088142e-59
0.09382295369303986	6.119412973054567e-59
0.09476118322997025	5.161623485508933e-56
0.09570879506226997	5.626097587241069e-55
0.09666588301289265	4.281270396021671e-55
0.09763254184302157	1.4034332738077854e-54
0.09860886726145181	1.6007263459133515e-47
0.09959495593406631	1.862401958347726e-46
0.10059090549340699	1.3651675313454436e-46
0.10159681454834106	1.0766475881986599e-47
0.10261278269382446	3.9192895084980594e-53
0.10363891052076271	1.1559429691151942e-53
0.10467529962597034	7.133731399389523e-55
0.10572205262223004	3.3419111499690226e-58
0.10677927314845236	9.472336700442828e-46
0.10784706587993687	2.1709609029036863e-40
0.10892553653873624	2.3306045838906363e-39
0.1100147919041236	2.5058977006060417e-40
0.11111493982316484	1.4728119315815505e-25
0.1122260892213965	3.6893370710041645e-24
0.11334835011361045	2.249472517161908e-22
0.11448183361474655	1.4409519266643405e-20
0.11562665195089401	1.4618969590818922e-19
0.11678291847040295	1.021702118387767e-19
0.117950747655107	3.082898119177589e-19
0.11913025513165806	1.285305488778558e-19
0.12032155768297464	1.0040900398471744e-19
0.1215247732598044	1.2797185358935108e-19
0.12274002099240244	5.762739404052292e-20
0.12396742120232647	6.070780871251897e-20
0.12520709541434974	5.408499880080104e-20
0.12645916636849325	1.859044656257636e-20
0.12772375803217817	5.0490228625383673e-20
0.12900099561249995	2.840314066591383e-19
0.13029100556862497	9.692629003145215e-19
0.1315939156243112	1.9057578172682087e-18
0.1329098547805543	3.365534012340467e-18
0.13423895332835986	1.0988563059852849e-17
0.13558134286164344	3.4696959477688706e-17
0.1369371562902599	2.851613701354027e-17
0.1383065278531625	9.432386713660903e-16
0.13968959313169413	1.0781659271341949e-14
0.14108648906301105	8.041579553140689e-14
0.1424973539536412	2.3050945986661e-13
0.14392232749317757	6.860802129756281e-13
0.14536155076810936	5.0781429468252954e-12
0.14681516627579044	1.0654601041586507e-11
0.14828331793854838	1.3979528885449978e-11
0.14976615111793384	3.022338426412381e-11
0.15126381262911318	4.6303134688772905e-11
0.15277645075540433	7.401226272197222e-12
0.15430421526295837	5.665195871868263e-12
0.15584725741558797	1.223487302885477e-11
0.15740572998974384	4.107588949410275e-12
0.15897978728964127	1.0617638953247085e-12
0.1605695851625377	2.596274264684696e-13
0.16217528101416306	1.2897084008434622e-14
0.16379703382430472	9.818780547849364e-16
0.16543500416254772	1.2257775901144522e-13
0.16708935420417323	1.473178908915617e-12
0.16876024774621495	6.646406716264366e-14
0.17044785022367712	3.0335607636123495e-08
0.17215232872591388	8.630056450804308e-09
0.173873852013173	7.974161371336468e-08
0.17561259053330475	2.444678640318103e-07
0.1773687164386378	2.1543195828796047e-05
0.1791424036030242	0.0002624012771502581
0.1809338276390544	3.819733879116492e-06
0.18274316591544498	3.943101464739683e-05
0.18457059757459943	1.5641662261807116e-05
0.1864163035503454	2.0416035621978593e-06
0.18828046658584888	5.793479188867016e-05
0.19016327125170737	0.0041747415203669
0.19206490396422443	53.77199568600779
0.1939855530038667	47.052249485199724
0.19592540853390536	1.118261910717082
0.19788466261924442	2805.0962512509377
0.19986350924543686	135.2064841221279
0.2018621443378912	51.94956300351278
0.20388076578127012	45.33870710483925
0.20591957343908285	3119.7394898829875
0.20797876917347366	9.413217345435228
0.21005855686520844	63.95704518543135
0.2121591424338605	9.77132345806725
0.21428073385819912	10.430624380764506
0.21642354119678112	33.01290397565152
0.2185877766087489	195.58694816208234
0.2207736543748364	227.57342601770412
0.22298139091858477	160.58067646535827
0.2252112048277706	55.06658815843517
0.22746331687604834	295.44588651615896
0.22973795004480882	8323.352341870195
0.23203532954525688	76536.76149273667
0.23435568284070946	9600767.148868535
0.23669923966911657	80658.7779600624
0.2390662320658077	16667924.13825531
0.2414568943864658	133062754.68406351
0.2438714633303305	301625027.6038731
0.24631017796363378	70397033.06611398
0.24877327974327013	611831.7319250816
0.2512610125407028	17313388.938275922
0.25377362266610987	138117354.68459275
0.25631135889277096	8372429434.041353
0.25887447248169865	59509083463.86081
0.26146321720651566	383599129999.59314
0.2640778493785808	907545044556.8113
0.2667186278723666	781489947101.7704
0.2693858141510903	404177890228.00696
0.2720796722926012	10612578271.965229
0.27480046901552724	14787571158.688282
0.27754847370568253	183983306211.503
0.28032395844273933	8511284885.662624
0.28312719802716674	4860499349.085247
0.2859584700074384	540630797.3770676
0.28881805470751276	88116491284.68044
0.2917062352545879	848431621443.8881
0.2946232976071338	298426121749.7621
0.2975695305832051	347632608728.9663
0.30054522588903715	613619178079.0159
0.3035506781479275	2958399902991.3374
0.3065861849294068	78356638676424.92
0.3096520467787009	428475637285659.75
0.3127485672464879	2102707571330785.8
0.3158760529189528	8830091911842118.0
0.31903481344814233	2556642769374624.5
0.3222251615826237	3253615439794153.0
0.32544741319844994	2.7374061997337684e+16
0.3287018873304345	4.326824179681872e+16
0.33198890620373883	5.57070491856886e+16
0.3353087952657762	1.074521150308291e+17
0.338661883218434	7430855951730386.0
0.3420485020506183	2315984398584817.5
0.34546898707112456	799589733168297.2
0.3489236769418358	4025523160069903.5
0.35241291371125416	1.001990062006055e+16
0.3559370428483667	6.092548389788873e+16
0.3594964132768504	544188253303212.4
0.3630913774096189	3.4544120141961837e+17
0.3667222911837151	4.907632795938235e+17
0.37038951409555215	6.3441672638803944e+16
0.37409340923650775	7899655378999892.0
0.37783434332887283	1.4185827257158863e+18
0.38161268676216153	8.74817997968585e+17
0.38542881362978315	1.6219366375205846e+17
0.389283101766081	1.127610551311616e+17
0.39317593278374185	2.3451553613161687e+18
0.39710769211157926	8.572593794212236e+19
0.401078769032695	8.146881642623422e+19
0.405089556723022	5.844985111546049e+19
0.4091404522902522	4.7368228989819886e+20
0.4132318568131547	4.739032020610118e+20
0.4173641753812863	2.5956235394162852e+20
0.42153781713509914	3.850819488324635e+19
0.4257531953064501	2.798694673583354e+18
0.43001072725951467	5.309112850749716e+19
0.43431083453210984	9.820804751077767e+20
0.43865394287743087	1.4177593037922705e+21
0.44304048230620524	2.0022907945026354e+21
0.44747088712926725	2.8343253479591557e+21
0.45194559600055995	1.2411542315837396e+22
0.4564650519605655	1.7229922042159118e+22
0.4610297024801712	7.154036859165683e+21
0.4656399995049729	1.4713770432738443e+22
0.47029639950002267	4.326740221138918e+22
0.47499936349502286	8.980871082506396e+22
0.4797493571299731	6.010478261028928e+21
0.48454685070127285	2.234114327731663e+22
0.48939231920828563	1.0254857836715271e+23
0.4942862424003685	2.258756032852768e+23
0.4992291048243721	3.798200427067335e+21
0.5042213958726158	3.8817345356042e+22
0.509263609831342	1.3401248233031325e+23
0.5143562459296555	1.9685505829034418e+23
0.519499808388952	4.0976998164595506e+21
0.5246948064728415	6.143794930675838e+22
0.52994175453757	2.724106287213198e+23
0.5352411720829456	3.060189214098766e+23
0.5405935838037751	2.512483331600448e+23
0.5459995196418129	5.625468223056458e+22
0.551459514838231	8.803442906082288e+22
0.5569741099866133	1.5403221013453224e+23
0.5625438510864794	7.82811341269239e+22
0.5681692895973443	8.708901137499672e+22
0.5738509824933177	6.609853573575791e+22
0.5795894923182509	2.6825580027262167e+22
0.5853853872414334	3.704337679469127e+21
0.5912392411138477	1.0223581977065551e+21
0.5971516335249862	2.224509418420363e+22
0.6031231498602361	9.683161986197042e+22
0.6091543813588385	2.601792089374053e+23
0.6152459251724268	2.6071933107548336e+23
0.6213983844241512	4.034960179348276e+22
0.6276123682683926	1.789684001960153e+23
0.6338884919510765	5.905579647936952e+23
0.6402273768705874	1.0091243815511343e+24
0.6466296506392932	1.989641099010897e+24
0.6530959471456862	3.758517963493001e+24
0.6596269066171431	1.1352588292087656e+24
0.6662231756833145	4.658378373949259e+23
0.6728854074401477	2.7045332006366966e+23
0.6796142615145492	6.834681890011487e+23
0.6864104041296946	1.811774867372143e+24
0.6932745081709915	2.997221325072773e+24
0.7002072532527015	7.840875559763734e+24
0.7072093257852285	3.7975965865253277e+24
0.7142814190430807	3.0689814048836415e+23
0.7214242332335116	1.3357427471973411e+24
0.7286384755658467	7.856420001034626e+24
0.7359248603215052	1.1781155194218273e+25
0.7432841089247202	9.211218265055759e+24
0.7507169500139675	8.849400901657064e+24
0.7582241195141072	4.285705993665249e+24
0.7658063607092482	2.8910988294922173e+23
0.7734644243163408	1.5275093907812553e+24
0.781199068559504	4.066810027945369e+24
0.7890110592450992	9.580752825108024e+24
0.7969011698375502	1.365437049145819e+25
0.8048701815359257	3.8482522987680423e+25
0.8129188833512849	1.0313777858736692e+26
0.8210480721847978	1.3006079390423655e+26
0.8292585529066457	1.2220414629642202e+26
0.8375511384357123	1.4364873475776266e+25
0.8459266498200694	1.434723945503388e+25
0.8543859163182701	4.744429726154728e+25
0.8629297754814528	9.09018586566114e+25
0.8715590732362674	8.957926869140004e+25
0.8802746639686301	1.4225017629332174e+26
0.8890774106083162	1.755234346170691e+26
0.8979681847143995	3.250222162308025e+26
0.9069478665615435	2.2094814315348235e+26
0.9160173452271589	1.6428529330828336e+26
0.9251775186794305	1.1707137175912381e+26
0.9344292938662249	1.9619120561324822e+26
0.9437735868048871	3.3713596921898246e+26
0.953211322672936	5.423082878911101e+26
0.9627434358996654	1.7546110843786557e+26
0.9723708702586621	2.6266308894738877e+26
0.9820945789612486	5.7876095152090845e+26
0.9919155247508612	3.6801801042566065e+26
1.0018346799983697	2.5081541817106787e+26
1.0118530267983534	2.8254518845066672e+26
1.021971557066337	3.798688719172068e+26
1.0321912726370004	5.897843970280405e+26
1.0425131853633705	8.368494247666782e+26
1.0529383172170041	4.8822979006499274e+26
1.0634677003891742	3.989387135600969e+26
1.074102377393066	9.50789063091151e+26
1.0848434011669965	1.94382853412182e+27
1.0956918351786664	3.077387956106365e+27
1.1066487535304532	1.2150073059134474e+27
1.1177152410657578	1.3382867053239252e+27
1.1288923934764155	8.277007101077791e+26
1.1401813174111797	6.154927325224954e+26
1.1515831305852913	1.3348705982912685e+27
1.1630989618911443	1.5809385818773805e+27
1.1747299515100555	1.153401559562817e+27
1.1864772510251562	2.122485636562701e+27
