#wavelength	surface flux
0.01	5.912408759124085e-75
0.0101	6.321167883211674e-75
0.010201	6.734014598540144e-75
0.010303010000000001	7.150989781021901e-75
0.0104060401	7.572134715328464e-75
0.010510100501000002	7.997491098978107e-75
0.01061520150601	8.427101046464236e-75
0.010721353521070101	8.86100709342523e-75
0.010828567056280802	9.299252200855833e-75
0.010936852726843608	9.741879759360733e-75
0.011046221254112046	9.999999999999998e-75
0.011156683466653166	9.999999999999998e-75
0.011268250301319697	9.999999999999998e-75
0.011380932804332895	9.999999999999998e-75
0.011494742132376225	9.999999999999998e-75
0.011609689553699986	9.999999999999998e-75
0.011725786449236988	9.999999999999998e-75
0.011843044313729357	9.999999999999998e-75
0.01196147475686665	9.999999999999998e-75
0.012081089504435316	9.999999999999998e-75
0.012201900399479671	9.999999999999998e-75
0.012323919403474468	9.999999999999998e-75
0.012447158597509212	9.999999999999998e-75
0.012571630183484304	9.999999999999998e-75
0.012697346485319148	9.999999999999998e-75
0.012824319950172339	9.999999999999998e-75
0.012952563149674063	9.999999999999998e-75
0.013082088781170804	9.999999999999998e-75
0.013212909668982512	9.999999999999998e-75
0.013345038765672336	9.999999999999998e-75
0.013478489153329061	9.999999999999998e-75
0.013613274044862352	9.999999999999998e-75
0.013749406785310975	9.999999999999998e-75
0.013886900853164083	9.999999999999998e-75
0.014025769861695726	9.999999999999998e-75
0.014166027560312683	9.999999999999998e-75
0.01430768783591581	9.999999999999998e-75
0.014450764714274969	9.999999999999998e-75
0.014595272361417718	9.999999999999998e-75
0.014741225085031895	9.999999999999998e-75
0.014888637335882214	9.999999999999998e-75
0.015037523709241036	9.999999999999998e-75
0.015187898946333447	9.999999999999998e-75
0.015339777935796781	9.999999999999998e-75
0.015493175715154751	9.999999999999998e-75
0.015648107472306296	9.999999999999998e-75
0.01580458854702936	9.999999999999998e-75
0.015962634432499654	9.999999999999998e-75
0.016122260776824653	9.999999999999998e-75
0.016283483384592897	9.999999999999998e-75
0.016446318218438827	9.999999999999998e-75
0.016610781400623217	9.999999999999998e-75
0.016776889214629446	9.999999999999998e-75
0.016944658106775742	9.999999999999998e-75
0.0171141046878435	9.999999999999998e-75
0.017285245734721934	9.999999999999998e-75
0.017458098192069154	9.999999999999998e-75
0.017632679173989845	9.999999999999998e-75
0.017809005965729745	9.999999999999998e-75
0.01798709602538704	9.999999999999998e-75
0.018166966985640912	9.999999999999998e-75
0.01834863665549732	9.999999999999998e-75
0.018532123022052295	9.999999999999998e-75
0.01871744425227282	9.999999999999998e-75
0.01890461869479555	9.999999999999998e-75
0.0190936648817435	9.999999999999998e-75
0.019284601530560937	9.999999999999998e-75
0.01947744754586655	9.999999999999998e-75
0.019672222021325212	9.999999999999998e-75
0.019868944241538466	9.999999999999998e-75
0.020067633683953853	9.999999999999998e-75
0.02026831002079339	9.999999999999998e-75
0.020470993121001323	9.999999999999998e-75
0.020675703052211336	9.999999999999998e-75
0.02088246008273345	9.999999999999998e-75
0.021091284683560786	9.999999999999998e-75
0.021302197530396395	9.999999999999998e-75
0.02151521950570036	9.999999999999998e-75
0.02173037170075736	9.999999999999998e-75
0.02194767541776493	9.999999999999998e-75
0.022167152171942584	9.999999999999998e-75
0.022388823693662012	9.999999999999998e-75
0.02261271193059863	9.999999999999998e-75
0.022838839049904615	9.999999999999998e-75
0.023067227440403664	9.999999999999998e-75
0.0232978997148077	9.999999999999998e-75
0.023530878711955777	9.999999999999998e-75
0.023766187499075334	9.999999999999998e-75
0.024003849374066088	9.999999999999998e-75
0.02424388786780675	9.999999999999998e-75
0.024486326746484814	9.999999999999998e-75
0.024731190013949664	9.999999999999998e-75
0.024978501914089166	9.999999999999998e-75
0.025228286933230055	9.999999999999998e-75
0.02548056980256236	9.999999999999998e-75
0.025735375500587982	9.999999999999998e-75
0.025992729255593858	9.999999999999998e-75
0.0262526565481498	9.999999999999998e-75
0.026515183113631293	9.999999999999998e-75
0.02678033494476761	9.999999999999998e-75
0.027048138294215287	9.999999999999998e-75
0.02731861967715744	9.999999999999998e-75
0.027591805873929013	9.999999999999998e-75
0.027867723932668304	9.999999999999998e-75
0.02814640117199499	9.999999999999998e-75
0.028427865183714936	9.999999999999998e-75
0.02871214383555209	9.999999999999998e-75
0.028999265273907608	9.999999999999998e-75
0.029289257926646682	9.999999999999998e-75
0.029582150505913153	9.999999999999998e-75
0.02987797201097228	9.999999999999998e-75
0.030176751731082006	9.999999999999998e-75
0.030478519248392826	9.999999999999998e-75
0.030783304440876753	9.999999999999998e-75
0.031091137485285525	9.999999999999998e-75
0.03140204886013838	9.999999999999998e-75
0.03171606934873976	9.999999999999998e-75
0.03203323004222716	9.999999999999998e-75
0.03235356234264943	9.999999999999998e-75
0.03267709796607593	9.999999999999998e-75
0.03300386894573669	9.999999999999998e-75
0.03333390763519405	9.999999999999998e-75
0.033667246711545994	9.999999999999998e-75
0.034003919178661454	9.999999999999998e-75
0.03434395837044807	9.999999999999998e-75
0.03468739795415255	9.999999999999998e-75
0.03503427193369407	9.999999999999998e-75
0.03538461465303102	9.999999999999998e-75
0.03573846079956133	9.999999999999998e-75
0.03609584540755694	9.999999999999998e-75
0.03645680386163251	9.999999999999998e-75
0.03682137190024883	9.999999999999998e-75
0.03718958561925133	9.999999999999998e-75
0.03756148147544384	9.999999999999998e-75
0.03793709629019828	9.999999999999998e-75
0.03831646725310026	9.999999999999998e-75
0.038699631925631264	9.999999999999998e-75
0.039086628244887574	9.999999999999998e-75
0.039477494527336454	9.999999999999998e-75
0.03987226947260982	9.999999999999998e-75
0.04027099216733592	9.999999999999998e-75
0.04067370208900927	9.999999999999998e-75
0.04108043910989937	9.999999999999998e-75
0.04149124350099836	9.999999999999998e-75
0.04190615593600835	9.999999999999998e-75
0.042325217495368425	9.999999999999998e-75
0.04274846967032212	9.999999999999998e-75
0.043175954367025336	9.999999999999998e-75
0.04360771391069559	9.999999999999998e-75
0.04404379104980254	9.999999999999998e-75
0.04448422896030057	9.999999999999998e-75
0.04492907124990358	9.999999999999998e-75
0.04537836196240262	9.999999999999998e-75
0.04583214558202665	9.999999999999998e-75
0.04629046703784691	9.999999999999998e-75
0.046753371708225376	9.999999999999998e-75
0.04722090542530763	9.999999999999998e-75
0.047693114479560705	9.999999999999998e-75
0.04817004562435631	9.999999999999998e-75
0.04865174608059988	9.999999999999998e-75
0.04913826354140587	9.999999999999998e-75
0.04962964617681994	9.999999999999998e-75
0.05012594263858814	9.999999999999998e-75
0.05062720206497402	9.999999999999998e-75
0.05113347408562376	9.999999999999998e-75
0.051644808826479996	9.999999999999998e-75
0.0521612569147448	9.999999999999998e-75
0.052682869483892246	9.999999999999998e-75
0.05320969817873117	9.999999999999998e-75
0.05374179516051848	9.999999999999998e-75
0.054279213112123664	9.999999999999998e-75
0.0548220052432449	9.999999999999998e-75
0.05537022529567735	9.999999999999998e-75
0.05592392754863413	9.999999999999998e-75
0.056483166824120475	9.999999999999998e-75
0.057047998492361675	9.999999999999998e-75
0.057618478477285295	9.999999999999998e-75
0.05819466326205815	9.999999999999998e-75
0.05877660989467873	9.999999999999998e-75
0.05936437599362551	9.999999999999998e-75
0.05995801975356178	9.999999999999998e-75
0.06055759995109739	9.999999999999998e-75
0.06116317595060837	9.999999999999998e-75
0.061774807710114454	9.999999999999998e-75
0.062392555787215594	9.999999999999998e-75
0.06301648134508775	9.999999999999998e-75
0.06364664615853863	9.999999999999998e-75
0.06428311262012401	9.999999999999998e-75
0.06492594374632525	9.999999999999998e-75
0.06557520318378851	9.999999999999998e-75
0.0662309552156264	9.999999999999998e-75
0.06689326476778266	9.999999999999998e-75
0.06756219741546049	9.999999999999998e-75
0.0682378193896151	9.999999999999998e-75
0.06892019758351124	9.999999999999998e-75
0.06960939955934635	9.999999999999998e-75
0.07030549355493981	9.999999999999998e-75
0.07100854849048922	9.999999999999998e-75
0.07171863397539412	9.999999999999998e-75
0.07243582031514804	9.999999999999998e-75
0.07316017851829953	9.999999999999998e-75
0.07389178030348253	9.999999999999998e-75
0.07463069810651736	9.999999999999998e-75
0.07537700508758254	9.999999999999998e-75
0.07613077513845835	9.999999999999998e-75
0.07689208288984294	9.999999999999998e-75
0.07766100371874136	4.251302879815456e-52
0.07843761375592878	5.3276100270553905e-51
0.07922198989348807	1.5995580929054785e-50
0.08001420979242296	3.189777773654191e-50
0.08081435189034718	1.008913381757072e-50
0.08162249540925066	4.7933191878365375e-43
0.08243872036334317	3.161639702981732e-40
0.08326310756697661	3.094634062445842e-39
0.08409573864264637	8.883544344547643e-39
0.08493669602907282	1.3054319337071239e-39
0.08578606298936356	1.5723971905427764e-40
0.0866439236192572	9.999999999999998e-75
0.08751036285544977	9.999999999999998e-75
0.08838546648400426	9.999999999999998e-75
0.08926932114884432	1.0199195350953762e-74
0.09016201436033276	1.2226977732641567e-74
0.09106363450393609	1.984099601660677e-74
0.09197427084897544	1.871004448799128e-74
0.0928940135574652	1.1704344513285438e-74
0.09382295369303986	1.2269033546718179e-74
0.09476118322997025	1.3823966171620555e-70
0.09570879506226997	1.5071640328745357e-69
0.09666588301289265	1.8105350871588274e-69
0.09763254184302157	1.1061251625672767e-68
0.09860886726145181	6.0022913650523356e-61
0.09959495593406631	6.983504534890516e-60
0.10059090549340699	5.119009655606666e-60
0.10159681454834106	4.0371392562325424e-61
0.10261278269382446	5.954218771893931e-66
0.10363891052076271	3.4559556579997233e-66
0.10467529962597034	2.5137228885875643e-67
0.10572205262223004	5.244265646496682e-72
0.10677927314845236	7.842546943145316e-58
0.10784706587993687	1.890747286548668e-51
0.10892553653873624	2.0298701586322518e-50
0.1100147919041236	2.1826872203752052e-51
0.11111493982316484	3.199980219991796e-31
0.1122260892213965	8.033539771785989e-30
0.11334835011361045	8.392371662334789e-26
0.11448183361474655	2.2496595341587484e-22
0.11562665195089401	2.8240827469365792e-21
0.11678291847040295	1.6065218161213126e-21
0.117950747655107	4.510679967849343e-21
0.11913025513165806	9.604928530183655e-21
0.12032155768297464	1.226439326751578e-20
0.1215247732598044	1.7139281694055815e-20
0.12274002099240244	1.8177681185099597e-20
0.12396742120232647	2.803908776843519e-20
0.12520709541434974	3.1768787125424344e-20
0.12645916636849325	1.6569808245581498e-20
0.12772375803217817	6.259055721465343e-20
0.12900099561249995	3.126646053588302e-19
0.13029100556862497	1.0887715845057692e-18
0.1315939156243112	2.5199421649892567e-18
0.1329098547805543	5.2113501469954055e-18
0.13423895332835986	1.6201635724068574e-17
0.13558134286164344	4.9771008778324503e-17
0.1369371562902599	4.720846816351213e-17
0.1383065278531625	5.325433168176378e-16
0.13968959313169413	2.908560662888169e-15
0.14108648906301105	2.858547430852361e-14
0.1424973539536412	9.572502795972799e-14
0.14392232749317757	4.3455481758401714e-13
0.14536155076810936	1.8183431970250703e-12
0.14681516627579044	4.003790889066929e-12
0.14828331793854838	5.57315156041896e-12
0.14976615111793384	9.824552219078167e-12
0.15126381262911318	2.7068779877805436e-11
0.15277645075540433	2.47793404421209e-12
0.15430421526295837	4.530748696145133e-12
0.15584725741558797	1.4885578586413697e-13
0.15740572998974384	2.2683212110297244e-17
0.15897978728964127	8.393457591982685e-18
0.1605695851625377	1.3040184392299168e-20
0.16217528101416306	5.467691325572364e-21
0.16379703382430472	2.2381785609226866e-22
0.16543500416254772	1.9751849856677386e-21
0.16708935420417323	2.373861544284091e-20
0.16876024774621495	1.0709927832656705e-21
0.17044785022367712	9.400537765523195e-15
0.17215232872591388	2.6743244821767445e-15
0.173873852013173	4.349956847678118e-13
0.17561259053330475	1.3170413063968704e-12
0.1773687164386378	2.151945049265614e-11
0.1791424036030242	2.622208732491037e-10
0.1809338276390544	3.840697917914543e-12
0.18274316591544498	3.250330783166786e-08
0.18457059757459943	3.5450760785736423e-09
0.1864163035503454	5.57163194795719e-11
0.18828046658584888	3.4009791994421603e-09
0.19016327125170737	6.482557749809791e-06
0.19206490396422443	0.1606059879533981
0.1939855530038667	0.1401969453941152
0.19592540853390536	0.000814773818138455
0.19788466261924442	0.4302878700678833
0.19986350924543686	0.016867554653827443
0.2018621443378912	0.020527705302287313
0.20388076578127012	0.006040128055981105
0.20591957343908285	0.26192496095000867
0.20797876917347366	0.0020021791736136822
0.21005855686520844	0.07589189971144823
0.2121591424338605	0.00024804637165419806
0.21428073385819912	0.000293378007241044
0.21642354119678112	0.0021914977270308346
0.2185877766087489	0.008985943601659378
0.2207736543748364	0.006951654033398805
0.22298139091858477	0.0013512566966840745
0.2252112048277706	0.0060721173329854215
0.22746331687604834	0.026427873830685178
0.22973795004480882	0.35047612472895945
0.23203532954525688	11.861070403153715
0.23435568284070946	629.0508558659151
0.23669923966911657	5.995739636790162
0.2390662320658077	7265.962018186263
0.2414568943864658	28536.34345833683
0.2438714633303305	602029.2348282868
0.24631017796363378	1255107.3810395924
0.24877327974327013	9337.028070778935
0.2512610125407028	425242.4156885856
0.25377362266610987	6269710.414900853
0.25631135889277096	122035075.75566767
0.25887447248169865	650342472.0680966
0.26146321720651566	4530435164.210709
0.2640778493785808	8622754093.407673
0.2667186278723666	7791599050.731639
0.2693858141510903	6245019058.375474
0.2720796722926012	430694908.7530302
0.27480046901552724	537206519.7978873
0.27754847370568253	2500665006.8878183
0.28032395844273933	93814318.6406328
0.28312719802716674	193802392.6464051
0.2859584700074384	35289348.46382298
0.28881805470751276	3164886236.063909
0.2917062352545879	24057646146.162785
0.2946232976071338	10696678662.851368
0.2975695305832051	17428332047.615627
0.30054522588903715	10757966449.306822
0.3035506781479275	34440449508.858315
0.3065861849294068	1054917533624.2217
0.3096520467787009	3208731528210.8843
0.3127485672464879	18694413645894.0
0.3158760529189528	102554220197536.97
0.31903481344814233	47101517320094.84
0.3222251615826237	36473035380504.95
0.32544741319844994	231359642796677.0
0.3287018873304345	314833515621583.5
0.33198890620373883	458628035440465.9
0.3353087952657762	882726570528298.0
0.338661883218434	17466091076016.908
0.3420485020506183	5595245161123.669
0.34546898707112456	2784287151773.505
0.3489236769418358	62029511473192.53
0.35241291371125416	29845599980925.867
0.3559370428483667	189941669578755.94
0.3594964132768504	392482711035.48944
0.3630913774096189	2568300769994394.5
0.3667222911837151	8572259683808842.0
0.37038951409555215	3244631110626521.0
0.37409340923650775	725861816862076.1
0.37783434332887283	5.078092095057719e+16
0.38161268676216153	4.19837215779249e+16
0.38542881362978315	1.1727364589641224e+16
0.389283101766081	1.062951775693561e+16
0.39317593278374185	1.1886042025119888e+17
0.39710769211157926	3.046477528385153e+18
0.401078769032695	1.7650277051588536e+18
0.405089556723022	1.2738896508924483e+18
0.4091404522902522	3.0696130918460514e+19
0.4132318568131547	4.708537998478129e+19
0.4173641753812863	2.6567311536159003e+19
0.42153781713509914	3.555546768448015e+18
0.4257531953064501	1.96149350304102e+16
0.43001072725951467	7.07061336061229e+17
0.43431083453210984	5.167418134999662e+19
0.43865394287743087	1.2251512230730567e+20
0.44304048230620524	1.98961573850456e+20
0.44747088712926725	3.380446226233834e+20
0.45194559600055995	2.8875325993160493e+21
0.4564650519605655	3.6189265951044985e+21
0.4610297024801712	2.025108808165318e+21
0.4656399995049729	4.476082796676782e+21
0.47029639950002267	1.447827058170465e+22
0.47499936349502286	3.331721584125112e+22
0.4797493571299731	1.6717440522142084e+21
0.48454685070127285	7.482407061415262e+21
0.48939231920828563	3.1871304766998396e+22
0.4942862424003685	5.487976472884991e+22
0.4992291048243721	1.1349420590522929e+21
0.5042213958726158	1.0374467428374878e+22
0.509263609831342	2.827463338325459e+22
0.5143562459296555	3.3377676669159813e+22
0.519499808388952	1.0246907637551896e+21
0.5246948064728415	1.2793790048263412e+22
0.52994175453757	4.777359034316273e+22
0.5352411720829456	4.541288481279355e+22
0.5405935838037751	3.2337997721900977e+22
0.5459995196418129	8.858489538987555e+21
0.551459514838231	1.5206778026540722e+22
0.5569741099866133	1.722580276808564e+22
0.5625438510864794	9.269655145451013e+21
0.5681692895973443	6.767538222680757e+21
0.5738509824933177	3.3132922848557164e+21
0.5795894923182509	8.920340814184558e+20
0.5853853872414334	6.800419536481537e+19
0.5912392411138477	1.5001386076679985e+19
0.5971516335249862	7.671980714744072e+20
0.6031231498602361	5.306180096419298e+21
0.6091543813588385	1.899564248610679e+22
0.6152459251724268	2.7411662131353925e+22
0.6213983844241512	1.0560616403373037e+22
0.6276123682683926	5.073213821537663e+22
0.6338884919510765	1.4472144497804576e+23
0.6402273768705874	2.608425948323199e+23
0.6466296506392932	5.031094168561244e+23
0.6530959471456862	9.408296209697291e+23
0.6596269066171431	4.0500667782283036e+23
0.6662231756833145	1.7187718180490397e+23
0.6728854074401477	9.982696745026333e+22
0.6796142615145492	2.7884220681608663e+23
0.6864104041296946	8.859619359113211e+23
0.6932745081709915	2.359153276859263e+24
0.7002072532527015	5.833090444766131e+24
0.7072093257852285	1.352908596181483e+24
0.7142814190430807	1.0702332110186319e+23
0.7214242332335116	6.16086451266723e+23
0.7286384755658467	3.334241574908666e+24
0.7359248603215052	4.5119115826272894e+24
0.7432841089247202	3.3086162847058953e+24
0.7507169500139675	2.180356347672488e+24
0.7582241195141072	6.711428757014578e+23
0.7658063607092482	2.161232731765155e+22
0.7734644243163408	1.9384118556698408e+23
0.781199068559504	9.290206182650974e+23
0.7890110592450992	3.2764204869260756e+24
0.7969011698375502	4.992510593605311e+24
0.8048701815359257	1.636264693289826e+25
0.8129188833512849	3.6767176125812796e+25
0.8210480721847978	4.8168023548467915e+25
0.8292585529066457	4.355501653019135e+25
0.8375511384357123	7.071614365003713e+24
0.8459266498200694	7.143706168677286e+24
0.8543859163182701	2.679905592167091e+25
0.8629297754814528	5.768022804625704e+25
0.8715590732362674	5.615608178481196e+25
0.8802746639686301	7.925550691508955e+25
0.8890774106083162	9.194814862403754e+25
0.8979681847143995	1.5489672633558798e+26
0.9069478665615435	1.0618215954562152e+26
0.9160173452271589	8.84269914776497e+25
0.9251775186794305	5.568785252347351e+25
0.9344292938662249	9.098735116077187e+25
0.9437735868048871	1.3683645687287982e+26
0.953211322672936	2.2675154818868233e+26
0.9627434358996654	8.181174853210744e+25
0.9723708702586621	1.4608999783610591e+26
0.9820945789612486	2.91480161259928e+26
0.9919155247508612	1.90570603463852e+26
1.0018346799983697	1.2112747034379604e+26
1.0118530267983534	1.4037778846479426e+26
1.021971557066337	1.9812553565617382e+26
1.0321912726370004	3.180312869369383e+26
1.0425131853633705	4.648636006938099e+26
1.0529383172170041	3.255690066916513e+26
1.0634677003891742	2.8682137277797758e+26
1.074102377393066	6.034254572727841e+26
1.0848434011669965	1.0943956478564083e+27
1.0956918351786664	1.4055929549988533e+27
1.1066487535304532	6.608223235446958e+26
1.1177152410657578	6.676337391502344e+26
1.1288923934764155	2.5904599080254328e+26
1.1401813174111797	2.1749477279311695e+26
1.1515831305852913	4.266589742079287e+26
1.1630989618911443	6.426708656690716e+26
1.1747299515100555	5.594678276724302e+26
1.1864772510251562	1.0770594476970355e+27
