#wavelength	surface flux
0.01	5.912408759124085e-75
0.0101	6.321167883211674e-75
0.010201	6.734014598540144e-75
0.010303010000000001	7.150989781021901e-75
0.0104060401	7.572134715328464e-75
0.010510100501000002	7.997491098978107e-75
0.01061520150601	8.427101046464236e-75
0.010721353521070101	8.86100709342523e-75
0.010828567056280802	9.299252200855833e-75
0.010936852726843608	9.741879759360733e-75
0.011046221254112046	9.999999999999998e-75
0.011156683466653166	9.999999999999998e-75
0.011268250301319697	9.999999999999998e-75
0.011380932804332895	9.999999999999998e-75
0.011494742132376225	9.999999999999998e-75
0.011609689553699986	9.999999999999998e-75
0.011725786449236988	9.999999999999998e-75
0.011843044313729357	9.999999999999998e-75
0.01196147475686665	9.999999999999998e-75
0.012081089504435316	9.999999999999998e-75
0.012201900399479671	9.999999999999998e-75
0.012323919403474468	9.999999999999998e-75
0.012447158597509212	9.999999999999998e-75
0.012571630183484304	9.999999999999998e-75
0.012697346485319148	9.999999999999998e-75
0.012824319950172339	9.999999999999998e-75
0.012952563149674063	9.999999999999998e-75
0.013082088781170804	9.999999999999998e-75
0.013212909668982512	9.999999999999998e-75
0.013345038765672336	9.999999999999998e-75
0.013478489153329061	9.999999999999998e-75
0.013613274044862352	9.999999999999998e-75
0.013749406785310975	9.999999999999998e-75
0.013886900853164083	9.999999999999998e-75
0.014025769861695726	9.999999999999998e-75
0.014166027560312683	9.999999999999998e-75
0.01430768783591581	9.999999999999998e-75
0.014450764714274969	9.999999999999998e-75
0.014595272361417718	9.999999999999998e-75
0.014741225085031895	9.999999999999998e-75
0.014888637335882214	9.999999999999998e-75
0.015037523709241036	9.999999999999998e-75
0.015187898946333447	9.999999999999998e-75
0.015339777935796781	9.999999999999998e-75
0.015493175715154751	9.999999999999998e-75
0.015648107472306296	9.999999999999998e-75
0.01580458854702936	9.999999999999998e-75
0.015962634432499654	9.999999999999998e-75
0.016122260776824653	9.999999999999998e-75
0.016283483384592897	9.999999999999998e-75
0.016446318218438827	9.999999999999998e-75
0.016610781400623217	9.999999999999998e-75
0.016776889214629446	9.999999999999998e-75
0.016944658106775742	9.999999999999998e-75
0.0171141046878435	9.999999999999998e-75
0.017285245734721934	9.999999999999998e-75
0.017458098192069154	9.999999999999998e-75
0.017632679173989845	9.999999999999998e-75
0.017809005965729745	9.999999999999998e-75
0.01798709602538704	9.999999999999998e-75
0.018166966985640912	9.999999999999998e-75
0.01834863665549732	9.999999999999998e-75
0.018532123022052295	9.999999999999998e-75
0.01871744425227282	9.999999999999998e-75
0.01890461869479555	9.999999999999998e-75
0.0190936648817435	9.999999999999998e-75
0.019284601530560937	9.999999999999998e-75
0.01947744754586655	9.999999999999998e-75
0.019672222021325212	9.999999999999998e-75
0.019868944241538466	9.999999999999998e-75
0.020067633683953853	9.999999999999998e-75
0.02026831002079339	9.999999999999998e-75
0.020470993121001323	9.999999999999998e-75
0.020675703052211336	9.999999999999998e-75
0.02088246008273345	9.999999999999998e-75
0.021091284683560786	9.999999999999998e-75
0.021302197530396395	9.999999999999998e-75
0.02151521950570036	9.999999999999998e-75
0.02173037170075736	9.999999999999998e-75
0.02194767541776493	9.999999999999998e-75
0.022167152171942584	9.999999999999998e-75
0.022388823693662012	9.999999999999998e-75
0.02261271193059863	9.999999999999998e-75
0.022838839049904615	9.999999999999998e-75
0.023067227440403664	9.999999999999998e-75
0.0232978997148077	9.999999999999998e-75
0.023530878711955777	9.999999999999998e-75
0.023766187499075334	9.999999999999998e-75
0.024003849374066088	9.999999999999998e-75
0.02424388786780675	9.999999999999998e-75
0.024486326746484814	9.999999999999998e-75
0.024731190013949664	9.999999999999998e-75
0.024978501914089166	9.999999999999998e-75
0.025228286933230055	9.999999999999998e-75
0.02548056980256236	9.999999999999998e-75
0.025735375500587982	9.999999999999998e-75
0.025992729255593858	9.999999999999998e-75
0.0262526565481498	9.999999999999998e-75
0.026515183113631293	9.999999999999998e-75
0.02678033494476761	9.999999999999998e-75
0.027048138294215287	9.999999999999998e-75
0.02731861967715744	9.999999999999998e-75
0.027591805873929013	9.999999999999998e-75
0.027867723932668304	9.999999999999998e-75
0.02814640117199499	9.999999999999998e-75
0.028427865183714936	9.999999999999998e-75
0.02871214383555209	9.999999999999998e-75
0.028999265273907608	9.999999999999998e-75
0.029289257926646682	9.999999999999998e-75
0.029582150505913153	9.999999999999998e-75
0.02987797201097228	9.999999999999998e-75
0.030176751731082006	9.999999999999998e-75
0.030478519248392826	9.999999999999998e-75
0.030783304440876753	9.999999999999998e-75
0.031091137485285525	9.999999999999998e-75
0.03140204886013838	9.999999999999998e-75
0.03171606934873976	9.999999999999998e-75
0.03203323004222716	9.999999999999998e-75
0.03235356234264943	9.999999999999998e-75
0.03267709796607593	9.999999999999998e-75
0.03300386894573669	9.999999999999998e-75
0.03333390763519405	9.999999999999998e-75
0.033667246711545994	9.999999999999998e-75
0.034003919178661454	9.999999999999998e-75
0.03434395837044807	9.999999999999998e-75
0.03468739795415255	9.999999999999998e-75
0.03503427193369407	9.999999999999998e-75
0.03538461465303102	9.999999999999998e-75
0.03573846079956133	9.999999999999998e-75
0.03609584540755694	9.999999999999998e-75
0.03645680386163251	9.999999999999998e-75
0.03682137190024883	9.999999999999998e-75
0.03718958561925133	9.999999999999998e-75
0.03756148147544384	9.999999999999998e-75
0.03793709629019828	9.999999999999998e-75
0.03831646725310026	9.999999999999998e-75
0.038699631925631264	9.999999999999998e-75
0.039086628244887574	9.999999999999998e-75
0.039477494527336454	9.999999999999998e-75
0.03987226947260982	9.999999999999998e-75
0.04027099216733592	9.999999999999998e-75
0.04067370208900927	9.999999999999998e-75
0.04108043910989937	9.999999999999998e-75
0.04149124350099836	9.999999999999998e-75
0.04190615593600835	9.999999999999998e-75
0.042325217495368425	9.999999999999998e-75
0.04274846967032212	9.999999999999998e-75
0.043175954367025336	9.999999999999998e-75
0.04360771391069559	9.999999999999998e-75
0.04404379104980254	9.999999999999998e-75
0.04448422896030057	9.999999999999998e-75
0.04492907124990358	9.999999999999998e-75
0.04537836196240262	9.999999999999998e-75
0.04583214558202665	9.999999999999998e-75
0.04629046703784691	9.999999999999998e-75
0.046753371708225376	9.999999999999998e-75
0.04722090542530763	9.999999999999998e-75
0.047693114479560705	9.999999999999998e-75
0.04817004562435631	9.999999999999998e-75
0.04865174608059988	9.999999999999998e-75
0.04913826354140587	9.999999999999998e-75
0.04962964617681994	9.999999999999998e-75
0.05012594263858814	9.999999999999998e-75
0.05062720206497402	9.999999999999998e-75
0.05113347408562376	9.999999999999998e-75
0.051644808826479996	9.999999999999998e-75
0.0521612569147448	9.999999999999998e-75
0.052682869483892246	9.999999999999998e-75
0.05320969817873117	9.999999999999998e-75
0.05374179516051848	9.999999999999998e-75
0.054279213112123664	9.999999999999998e-75
0.0548220052432449	9.999999999999998e-75
0.05537022529567735	9.999999999999998e-75
0.05592392754863413	9.999999999999998e-75
0.056483166824120475	9.999999999999998e-75
0.057047998492361675	9.999999999999998e-75
0.057618478477285295	9.999999999999998e-75
0.05819466326205815	9.999999999999998e-75
0.05877660989467873	9.999999999999998e-75
0.05936437599362551	9.999999999999998e-75
0.05995801975356178	9.999999999999998e-75
0.06055759995109739	9.999999999999998e-75
0.06116317595060837	9.999999999999998e-75
0.061774807710114454	9.999999999999998e-75
0.062392555787215594	9.999999999999998e-75
0.06301648134508775	9.999999999999998e-75
0.06364664615853863	9.999999999999998e-75
0.06428311262012401	9.999999999999998e-75
0.06492594374632525	9.999999999999998e-75
0.06557520318378851	9.999999999999998e-75
0.0662309552156264	9.999999999999998e-75
0.06689326476778266	9.999999999999998e-75
0.06756219741546049	9.999999999999998e-75
0.0682378193896151	9.999999999999998e-75
0.06892019758351124	9.999999999999998e-75
0.06960939955934635	9.999999999999998e-75
0.07030549355493981	9.999999999999998e-75
0.07100854849048922	9.999999999999998e-75
0.07171863397539412	9.999999999999998e-75
0.07243582031514804	9.999999999999998e-75
0.07316017851829953	9.999999999999998e-75
0.07389178030348253	9.999999999999998e-75
0.07463069810651736	9.999999999999998e-75
0.07537700508758254	9.999999999999998e-75
0.07613077513845835	9.999999999999998e-75
0.07689208288984294	9.999999999999998e-75
0.07766100371874136	8.026423059479803e-52
0.07843761375592878	7.820850989469914e-49
0.07922198989348807	6.851759484772889e-48
0.08001420979242296	2.430024457663497e-47
0.08081435189034718	7.01670123030891e-48
0.08162249540925066	2.1758870639763684e-40
0.08243872036334317	8.46749571449886e-38
0.08326310756697661	8.210917085903319e-37
0.08409573864264637	2.3529375982254698e-36
0.08493669602907282	3.4575281943803645e-37
0.08578606298936356	4.16449417709735e-38
0.0866439236192572	9.999999999999998e-75
0.08751036285544977	9.999999999999998e-75
0.08838546648400426	9.999999999999998e-75
0.08926932114884432	9.999999999999998e-75
0.09016201436033276	9.999999999999998e-75
0.09106363450393609	9.999999999999998e-75
0.09197427084897544	9.999999999999998e-75
0.0928940135574652	9.999999999999998e-75
0.09382295369303986	9.999999999999998e-75
0.09476118322997025	2.1858794739842848e-74
0.09570879506226997	1.3929887917962345e-73
0.09666588301289265	1.8350840860360623e-73
0.09763254184302157	1.1586709639522453e-72
0.09860886726145181	1.68003012773904e-64
0.09959495593406631	1.954669873773795e-63
0.10059090549340699	1.4328012254611224e-63
0.10159681454834106	1.129985840444027e-64
0.10261278269382446	1.3394516900514024e-69
0.10363891052076271	8.237024770673058e-70
0.10467529962597034	6.0449045582037845e-71
0.10572205262223004	1.448440751462127e-74
0.10677927314845236	2.8937241377555308e-61
0.10784706587993687	2.2471504215936125e-54
0.10892553653873624	2.4125050692228732e-53
0.1100147919041236	2.5954674298824e-54
0.11111493982316484	2.1288609407371222e-32
0.1122260892213965	5.347689785951973e-31
0.11334835011361045	8.686626557192098e-27
0.11448183361474655	5.744697831170893e-24
0.11562665195089401	7.103680556938742e-23
0.11678291847040295	4.271681215651268e-23
0.117950747655107	1.2611503818250137e-22
0.11913025513165806	1.5411938734243629e-22
0.12032155768297464	1.682887076444666e-22
0.1215247732598044	2.349290994596977e-22
0.12274002099240244	2.4117943157699523e-22
0.12396742120232647	3.578431407715504e-22
0.12520709541434974	4.0941894660207908e-22
0.12645916636849325	2.2687255421137036e-22
0.12772375803217817	9.731379141366349e-22
0.12900099561249995	4.975291554148995e-21
0.13029100556862497	1.942668072288934e-20
0.1315939156243112	4.581981515793869e-20
0.1329098547805543	9.876253473481953e-20
0.13423895332835986	3.1529123505485644e-19
0.13558134286164344	9.972871687509634e-19
0.1369371562902599	9.505719092067971e-19
0.1383065278531625	1.1700446572525623e-17
0.13968959313169413	6.817921003703263e-17
0.14108648906301105	6.235512547345006e-16
0.1424973539536412	2.1238861198822095e-15
0.14392232749317757	1.0071359728268422e-14
0.14536155076810936	4.1633722747485574e-14
0.14681516627579044	9.165927084363018e-14
0.14828331793854838	1.2931463283537422e-13
0.14976615111793384	2.3573389787441747e-13
0.15126381262911318	6.30136250334777e-13
0.15277645075540433	6.417021763279381e-14
0.15430421526295837	1.299360394257406e-13
0.15584725741558797	4.2694473832026195e-15
0.15740572998974384	3.441482193668584e-18
0.15897978728964127	1.2572990881024456e-18
0.1605695851625377	2.0597829012540913e-21
0.16217528101416306	2.9223054804158887e-22
0.16379703382430472	1.1906870432549582e-23
0.16543500416254772	4.483375697135135e-22
0.16708935420417323	5.3883439796377726e-21
0.16876024774621495	2.4310051135705094e-22
0.17044785022367712	1.6294937478886103e-14
0.17215232872591388	4.6356740208591996e-15
0.173873852013173	6.760595339038541e-13
0.17561259053330475	2.044247288748015e-12
0.1773687164386378	7.066537377114005e-11
0.1791424036030242	8.615181483346992e-10
0.1809338276390544	1.2486212220785942e-11
0.18274316591544498	7.757581692778571e-08
0.18457059757459943	8.284945026808495e-09
0.1864163035503454	3.769469031187474e-11
0.18828046658584888	5.293782383413546e-10
0.19016327125170737	3.490841274894153e-06
0.19206490396422443	0.09245489103147769
0.1939855530038667	0.08071427881528204
0.19592540853390536	0.0008702496612189464
0.19788466261924442	3.038956142048895
0.19986350924543686	0.11012506467596117
0.2018621443378912	0.04527127776510344
0.20388076578127012	0.008850483615862789
0.20591957343908285	1.7624272213149919
0.20797876917347366	0.003995202620463471
0.21005855686520844	0.05218197116202
0.2121591424338605	0.0006688975873356451
0.21428073385819912	0.0011010175142024388
0.21642354119678112	0.004843250141904549
0.2185877766087489	0.029319631121392836
0.2207736543748364	0.015295590269031477
0.22298139091858477	0.004671882047931755
0.2252112048277706	0.000682576386308076
0.22746331687604834	0.07917554366798929
0.22973795004480882	1.38561431787936
0.23203532954525688	43.84141536078543
0.23435568284070946	4020.6088107702653
0.23669923966911657	16.38296637065363
0.2390662320658077	33557.280841920554
0.2414568943864658	170779.4361805049
0.2438714633303305	1560309.0248985926
0.24631017796363378	1364474.425464723
0.24877327974327013	7765.672184028244
0.2512610125407028	343819.36214991583
0.25377362266610987	5284192.533895386
0.25631135889277096	145669828.93672904
0.25887447248169865	925596446.7442944
0.26146321720651566	7023603689.503754
0.2640778493785808	14865588910.261248
0.2667186278723666	12655460711.01776
0.2693858141510903	7967162962.828126
0.2720796722926012	383530443.47113675
0.27480046901552724	501783621.5766302
0.27754847370568253	3223862375.7161837
0.28032395844273933	119427752.06416789
0.28312719802716674	151926230.24185124
0.2859584700074384	23684205.776932266
0.28881805470751276	2610773496.7809587
0.2917062352545879	23376370294.13121
0.2946232976071338	10152973444.206095
0.2975695305832051	16688490133.537788
0.30054522588903715	16095511707.920107
0.3035506781479275	59109338948.36808
0.3065861849294068	2027511590639.5957
0.3096520467787009	8765730947025.049
0.3127485672464879	51127119259024.42
0.3158760529189528	265562084989227.5
0.31903481344814233	90693182530947.64
0.3222251615826237	91582246202117.4
0.32544741319844994	817336401113140.0
0.3287018873304345	1253838315572884.8
0.33198890620373883	1768338570844951.0
0.3353087952657762	3440466471028209.0
0.338661883218434	91354876975022.0
0.3420485020506183	23321722242799.64
0.34546898707112456	9354707361850.139
0.3489236769418358	133746378237372.22
0.35241291371125416	145493228620535.06
0.3559370428483667	955802800031089.0
0.3594964132768504	1286239725945.5376
0.3630913774096189	1.0237789886046482e+16
0.3667222911837151	2.2168012680324016e+16
0.37038951409555215	4231479328695467.0
0.37409340923650775	731536720616789.0
0.37783434332887283	9.115090056250624e+16
0.38161268676216153	6.1790399333233944e+16
0.38542881362978315	1.3391734974941848e+16
0.389283101766081	1.1048323410657592e+16
0.39317593278374185	1.977173141027195e+17
0.39710769211157926	8.313704931799074e+18
0.401078769032695	6.514424546797236e+18
0.405089556723022	4.712343044473351e+18
0.4091404522902522	7.932285101625411e+19
0.4132318568131547	9.637272835857683e+19
0.4173641753812863	5.226938353402279e+19
0.42153781713509914	6.994746804040097e+18
0.4257531953064501	7.584749214898176e+16
0.43001072725951467	2.9963526202070446e+18
0.43431083453210984	1.466504607380078e+20
0.43865394287743087	2.6380068169126465e+20
0.44304048230620524	3.711619256061901e+20
0.44747088712926725	5.239629559195002e+20
0.45194559600055995	3.0475028975909496e+21
0.4564650519605655	4.4299519884471514e+21
0.4610297024801712	1.4461635380429547e+21
0.4656399995049729	3.0089019144079236e+21
0.47029639950002267	1.0705621410496735e+22
0.47499936349502286	2.7568743938209218e+22
0.4797493571299731	1.1380902138068967e+21
0.48454685070127285	4.72777886866481e+21
0.48939231920828563	2.4712728886228927e+22
0.4942862424003685	6.65514212236803e+22
0.4992291048243721	7.006582535907035e+20
0.5042213958726158	8.655970896551748e+21
0.509263609831342	3.5114804959696273e+22
0.5143562459296555	5.677819628290467e+22
0.519499808388952	8.138952378384114e+20
0.5246948064728415	1.3641611465987824e+22
0.52994175453757	6.447110606206509e+22
0.5352411720829456	7.146971035110988e+22
0.5405935838037751	6.004795989401961e+22
0.5459995196418129	1.2818831132289569e+22
0.551459514838231	1.9454007583301423e+22
0.5569741099866133	3.1292183454388048e+22
0.5625438510864794	1.4822357622940865e+22
0.5681692895973443	1.4900000845504606e+22
0.5738509824933177	9.211946664286109e+21
0.5795894923182509	2.5955746577203315e+21
0.5853853872414334	1.7430088802542184e+20
0.5912392411138477	3.3471379841749946e+19
0.5971516335249862	2.0238905636047946e+21
0.6031231498602361	1.3732004398031562e+22
0.6091543813588385	4.7059952794388534e+22
0.6152459251724268	5.414484723445773e+22
0.6213983844241512	9.217953787894475e+21
0.6276123682683926	4.6316931988218555e+22
0.6338884919510765	1.5102176583925406e+23
0.6402273768705874	2.706874671628352e+23
0.6466296506392932	5.493558623814354e+23
0.6530959471456862	1.1267101902953083e+24
0.6596269066171431	3.121407747741388e+23
0.6662231756833145	1.3163310557342206e+23
0.6728854074401477	7.598503380171383e+22
0.6796142615145492	2.129206761891617e+23
0.6864104041296946	6.639229108242778e+23
0.6932745081709915	1.5288033472079762e+24
0.7002072532527015	4.0749270061325706e+24
0.7072093257852285	1.20018779358308e+24
0.7142814190430807	9.17202292227847e+22
0.7214242332335116	4.45480313782905e+23
0.7286384755658467	2.621153708238467e+24
0.7359248603215052	4.381475073678099e+24
0.7432841089247202	3.6706279199547255e+24
0.7507169500139675	3.298488119248962e+24
0.7582241195141072	1.269361665795274e+24
0.7658063607092482	4.2610654942457254e+22
0.7734644243163408	3.527933937667719e+23
0.781199068559504	1.2323876413957713e+24
0.7890110592450992	3.4486508518132687e+24
0.7969011698375502	5.46833769893124e+24
0.8048701815359257	1.7441285538488536e+25
0.8129188833512849	4.723460791225451e+25
0.8210480721847978	5.4364371252853555e+25
0.8292585529066457	3.925590783923714e+25
0.8375511384357123	4.839948744833062e+24
0.8459266498200694	4.973197267227343e+24
0.8543859163182701	1.831940291851508e+25
0.8629297754814528	4.366131595923319e+25
0.8715590732362674	4.659163988006265e+25
0.8802746639686301	7.293279088800694e+25
0.8890774106083162	7.3451365062769075e+25
0.8979681847143995	1.4694992154212595e+26
0.9069478665615435	1.0453484375186895e+26
0.9160173452271589	6.4791621357071554e+25
0.9251775186794305	3.7872311193938037e+25
0.9344292938662249	6.1635782560962295e+25
0.9437735868048871	1.0217833995018169e+26
0.953211322672936	1.7330023854278266e+26
0.9627434358996654	5.778252516040752e+25
0.9723708702586621	1.0998974093246233e+26
0.9820945789612486	1.896492908384705e+26
0.9919155247508612	1.5695328186289187e+26
1.0018346799983697	1.2225006086540527e+26
1.0118530267983534	1.437510532168703e+26
1.021971557066337	1.983849681778481e+26
1.0321912726370004	3.265181509222603e+26
1.0425131853633705	4.76080453773202e+26
1.0529383172170041	2.5698782455624796e+26
1.0634677003891742	2.1529322660644538e+26
1.074102377393066	4.856537625043596e+26
1.0848434011669965	9.595830220279915e+26
1.0956918351786664	1.0324787682610066e+27
1.1066487535304532	4.186747105813693e+26
1.1177152410657578	4.426849915392263e+26
1.1288923934764155	1.6164932212879413e+26
1.1401813174111797	1.743679147050323e+26
1.1515831305852913	2.2425302284230303e+26
1.1630989618911443	4.1219175598050396e+26
1.1747299515100555	4.488837342504175e+26
1.1864772510251562	8.446522736937792e+26
