#wavelength	surface flux
0.01	5.912408759124085e-75
0.0101	6.321167883211674e-75
0.010201	6.734014598540144e-75
0.010303010000000001	7.150989781021901e-75
0.0104060401	7.572134715328464e-75
0.010510100501000002	7.997491098978107e-75
0.01061520150601	8.427101046464236e-75
0.010721353521070101	8.86100709342523e-75
0.010828567056280802	9.299252200855833e-75
0.010936852726843608	9.741879759360733e-75
0.011046221254112046	9.999999999999998e-75
0.011156683466653166	9.999999999999998e-75
0.011268250301319697	9.999999999999998e-75
0.011380932804332895	9.999999999999998e-75
0.011494742132376225	9.999999999999998e-75
0.011609689553699986	9.999999999999998e-75
0.011725786449236988	9.999999999999998e-75
0.011843044313729357	9.999999999999998e-75
0.01196147475686665	9.999999999999998e-75
0.012081089504435316	9.999999999999998e-75
0.012201900399479671	9.999999999999998e-75
0.012323919403474468	9.999999999999998e-75
0.012447158597509212	9.999999999999998e-75
0.012571630183484304	9.999999999999998e-75
0.012697346485319148	9.999999999999998e-75
0.012824319950172339	9.999999999999998e-75
0.012952563149674063	9.999999999999998e-75
0.013082088781170804	9.999999999999998e-75
0.013212909668982512	9.999999999999998e-75
0.013345038765672336	9.999999999999998e-75
0.013478489153329061	9.999999999999998e-75
0.013613274044862352	9.999999999999998e-75
0.013749406785310975	9.999999999999998e-75
0.013886900853164083	9.999999999999998e-75
0.014025769861695726	9.999999999999998e-75
0.014166027560312683	9.999999999999998e-75
0.01430768783591581	9.999999999999998e-75
0.014450764714274969	9.999999999999998e-75
0.014595272361417718	9.999999999999998e-75
0.014741225085031895	9.999999999999998e-75
0.014888637335882214	9.999999999999998e-75
0.015037523709241036	9.999999999999998e-75
0.015187898946333447	9.999999999999998e-75
0.015339777935796781	9.999999999999998e-75
0.015493175715154751	9.999999999999998e-75
0.015648107472306296	9.999999999999998e-75
0.01580458854702936	9.999999999999998e-75
0.015962634432499654	9.999999999999998e-75
0.016122260776824653	9.999999999999998e-75
0.016283483384592897	9.999999999999998e-75
0.016446318218438827	9.999999999999998e-75
0.016610781400623217	9.999999999999998e-75
0.016776889214629446	9.999999999999998e-75
0.016944658106775742	9.999999999999998e-75
0.0171141046878435	9.999999999999998e-75
0.017285245734721934	9.999999999999998e-75
0.017458098192069154	9.999999999999998e-75
0.017632679173989845	9.999999999999998e-75
0.017809005965729745	9.999999999999998e-75
0.01798709602538704	9.999999999999998e-75
0.018166966985640912	9.999999999999998e-75
0.01834863665549732	9.999999999999998e-75
0.018532123022052295	9.999999999999998e-75
0.01871744425227282	9.999999999999998e-75
0.01890461869479555	9.999999999999998e-75
0.0190936648817435	9.999999999999998e-75
0.019284601530560937	9.999999999999998e-75
0.01947744754586655	9.999999999999998e-75
0.019672222021325212	9.999999999999998e-75
0.019868944241538466	9.999999999999998e-75
0.020067633683953853	9.999999999999998e-75
0.02026831002079339	9.999999999999998e-75
0.020470993121001323	9.999999999999998e-75
0.020675703052211336	9.999999999999998e-75
0.02088246008273345	9.999999999999998e-75
0.021091284683560786	9.999999999999998e-75
0.021302197530396395	9.999999999999998e-75
0.02151521950570036	9.999999999999998e-75
0.02173037170075736	9.999999999999998e-75
0.02194767541776493	9.999999999999998e-75
0.022167152171942584	9.999999999999998e-75
0.022388823693662012	9.999999999999998e-75
0.02261271193059863	9.999999999999998e-75
0.022838839049904615	9.999999999999998e-75
0.023067227440403664	9.999999999999998e-75
0.0232978997148077	9.999999999999998e-75
0.023530878711955777	9.999999999999998e-75
0.023766187499075334	9.999999999999998e-75
0.024003849374066088	9.999999999999998e-75
0.02424388786780675	9.999999999999998e-75
0.024486326746484814	9.999999999999998e-75
0.024731190013949664	9.999999999999998e-75
0.024978501914089166	9.999999999999998e-75
0.025228286933230055	9.999999999999998e-75
0.02548056980256236	9.999999999999998e-75
0.025735375500587982	9.999999999999998e-75
0.025992729255593858	9.999999999999998e-75
0.0262526565481498	9.999999999999998e-75
0.026515183113631293	9.999999999999998e-75
0.02678033494476761	9.999999999999998e-75
0.027048138294215287	9.999999999999998e-75
0.02731861967715744	9.999999999999998e-75
0.027591805873929013	9.999999999999998e-75
0.027867723932668304	9.999999999999998e-75
0.02814640117199499	9.999999999999998e-75
0.028427865183714936	9.999999999999998e-75
0.02871214383555209	9.999999999999998e-75
0.028999265273907608	9.999999999999998e-75
0.029289257926646682	9.999999999999998e-75
0.029582150505913153	9.999999999999998e-75
0.02987797201097228	9.999999999999998e-75
0.030176751731082006	9.999999999999998e-75
0.030478519248392826	9.999999999999998e-75
0.030783304440876753	9.999999999999998e-75
0.031091137485285525	9.999999999999998e-75
0.03140204886013838	9.999999999999998e-75
0.03171606934873976	9.999999999999998e-75
0.03203323004222716	9.999999999999998e-75
0.03235356234264943	9.999999999999998e-75
0.03267709796607593	9.999999999999998e-75
0.03300386894573669	9.999999999999998e-75
0.03333390763519405	9.999999999999998e-75
0.033667246711545994	9.999999999999998e-75
0.034003919178661454	9.999999999999998e-75
0.03434395837044807	9.999999999999998e-75
0.03468739795415255	9.999999999999998e-75
0.03503427193369407	9.999999999999998e-75
0.03538461465303102	9.999999999999998e-75
0.03573846079956133	9.999999999999998e-75
0.03609584540755694	9.999999999999998e-75
0.03645680386163251	9.999999999999998e-75
0.03682137190024883	9.999999999999998e-75
0.03718958561925133	9.999999999999998e-75
0.03756148147544384	9.999999999999998e-75
0.03793709629019828	9.999999999999998e-75
0.03831646725310026	9.999999999999998e-75
0.038699631925631264	9.999999999999998e-75
0.039086628244887574	9.999999999999998e-75
0.039477494527336454	9.999999999999998e-75
0.03987226947260982	9.999999999999998e-75
0.04027099216733592	9.999999999999998e-75
0.04067370208900927	9.999999999999998e-75
0.04108043910989937	9.999999999999998e-75
0.04149124350099836	9.999999999999998e-75
0.04190615593600835	9.999999999999998e-75
0.042325217495368425	9.999999999999998e-75
0.04274846967032212	9.999999999999998e-75
0.043175954367025336	9.999999999999998e-75
0.04360771391069559	9.999999999999998e-75
0.04404379104980254	9.999999999999998e-75
0.04448422896030057	9.999999999999998e-75
0.04492907124990358	9.999999999999998e-75
0.04537836196240262	9.999999999999998e-75
0.04583214558202665	9.999999999999998e-75
0.04629046703784691	9.999999999999998e-75
0.046753371708225376	9.999999999999998e-75
0.04722090542530763	9.999999999999998e-75
0.047693114479560705	9.999999999999998e-75
0.04817004562435631	9.999999999999998e-75
0.04865174608059988	9.999999999999998e-75
0.04913826354140587	9.999999999999998e-75
0.04962964617681994	9.999999999999998e-75
0.05012594263858814	9.999999999999998e-75
0.05062720206497402	9.999999999999998e-75
0.05113347408562376	9.999999999999998e-75
0.051644808826479996	9.999999999999998e-75
0.0521612569147448	9.999999999999998e-75
0.052682869483892246	9.999999999999998e-75
0.05320969817873117	9.999999999999998e-75
0.05374179516051848	9.999999999999998e-75
0.054279213112123664	9.999999999999998e-75
0.0548220052432449	9.999999999999998e-75
0.05537022529567735	9.999999999999998e-75
0.05592392754863413	9.999999999999998e-75
0.056483166824120475	9.999999999999998e-75
0.057047998492361675	9.999999999999998e-75
0.057618478477285295	9.999999999999998e-75
0.05819466326205815	9.999999999999998e-75
0.05877660989467873	9.999999999999998e-75
0.05936437599362551	9.999999999999998e-75
0.05995801975356178	9.999999999999998e-75
0.06055759995109739	9.999999999999998e-75
0.06116317595060837	9.999999999999998e-75
0.061774807710114454	9.999999999999998e-75
0.062392555787215594	9.999999999999998e-75
0.06301648134508775	9.999999999999998e-75
0.06364664615853863	9.999999999999998e-75
0.06428311262012401	9.999999999999998e-75
0.06492594374632525	9.999999999999998e-75
0.06557520318378851	9.999999999999998e-75
0.0662309552156264	9.999999999999998e-75
0.06689326476778266	9.999999999999998e-75
0.06756219741546049	9.999999999999998e-75
0.0682378193896151	9.999999999999998e-75
0.06892019758351124	9.999999999999998e-75
0.06960939955934635	9.999999999999998e-75
0.07030549355493981	9.999999999999998e-75
0.07100854849048922	9.999999999999998e-75
0.07171863397539412	9.999999999999998e-75
0.07243582031514804	9.999999999999998e-75
0.07316017851829953	9.999999999999998e-75
0.07389178030348253	9.999999999999998e-75
0.07463069810651736	9.999999999999998e-75
0.07537700508758254	9.999999999999998e-75
0.07613077513845835	9.999999999999998e-75
0.07689208288984294	9.999999999999998e-75
0.07766100371874136	9.999999999999998e-75
0.07843761375592878	9.999999999999998e-75
0.07922198989348807	9.999999999999998e-75
0.08001420979242296	9.999999999999998e-75
0.08081435189034718	9.999999999999998e-75
0.08162249540925066	3.425768248070098e-71
0.08243872036334317	3.4792097336059055e-67
0.08326310756697661	3.4481126819225013e-66
0.08409573864264637	9.920981294177504e-66
0.08493669602907282	1.457938350789089e-66
0.08578606298936356	1.7561527316260428e-67
0.0866439236192572	9.999999999999998e-75
0.08751036285544977	9.999999999999998e-75
0.08838546648400426	9.999999999999998e-75
0.08926932114884432	9.999999999999998e-75
0.09016201436033276	9.999999999999998e-75
0.09106363450393609	9.999999999999998e-75
0.09197427084897544	9.999999999999998e-75
0.0928940135574652	9.999999999999998e-75
0.09382295369303986	9.999999999999998e-75
0.09476118322997025	9.999999999999998e-75
0.09570879506226997	9.999999999999998e-75
0.09666588301289265	9.999999999999998e-75
0.09763254184302157	9.999999999999998e-75
0.09860886726145181	9.999999999999998e-75
0.09959495593406631	9.999999999999998e-75
0.10059090549340699	9.999999999999998e-75
0.10159681454834106	9.999999999999998e-75
0.10261278269382446	9.999999999999998e-75
0.10363891052076271	9.999999999999998e-75
0.10467529962597034	9.999999999999998e-75
0.10572205262223004	9.999999999999998e-75
0.10677927314845236	9.999999999999998e-75
0.10784706587993687	1.0132184715000286e-74
0.10892553653873624	1.1419116082705656e-74
0.1100147919041236	4.90051124109271e-71
0.11111493982316484	2.3831275856946495e-43
0.1122260892213965	6.67577502242266e-42
0.11334835011361045	1.0087904430334069e-36
0.11448183361474655	3.62563814027282e-34
0.11562665195089401	4.4074422978467184e-33
0.11678291847040295	3.846833168196544e-33
0.117950747655107	6.423130320796659e-32
0.11913025513165806	5.512753935498238e-31
0.12032155768297464	5.623170573268801e-30
0.1215247732598044	2.719741800275291e-29
0.12274002099240244	1.4638181383967165e-28
0.12396742120232647	5.529991349857699e-28
0.12520709541434974	1.9063108177025206e-27
0.12645916636849325	3.916895844271802e-27
0.12772375803217817	3.139397593079537e-26
0.12900099561249995	9.99416808101747e-26
0.13029100556862497	4.0812700618522515e-25
0.1315939156243112	2.5916823788547737e-24
0.1329098547805543	8.815691437251952e-24
0.13423895332835986	3.078150756594118e-23
0.13558134286164344	1.1933824210497995e-22
0.1369371562902599	2.4438768008388347e-22
0.1383065278531625	7.922452692724728e-22
0.13968959313169413	7.949010346382853e-22
0.14108648906301105	4.3531676514082745e-21
0.1424973539536412	6.842961023821295e-19
0.14392232749317757	8.782359850232258e-18
0.14536155076810936	3.0966703733531306e-18
0.14681516627579044	9.980618179173415e-18
0.14828331793854838	3.5178581633461664e-17
0.14976615111793384	1.3854559068662193e-15
0.15126381262911318	9.094704950930079e-15
0.15277645075540433	4.871806550008629e-16
0.15430421526295837	5.00223336512582e-16
0.15584725741558797	1.6445057589807282e-17
0.15740572998974384	9.663830423671304e-33
0.15897978728964127	4.277467492036766e-33
0.1605695851625377	5.629471768810769e-35
0.16217528101416306	3.772894053410239e-37
0.16379703382430472	1.5326057707711317e-38
0.16543500416254772	1.6170103132235812e-39
0.16708935420417323	1.9429359211768842e-38
0.16876024774621495	8.767649785377956e-40
0.17044785022367712	6.320518378474149e-30
0.17215232872591388	1.798697936985996e-30
0.173873852013173	3.822830182817428e-27
0.17561259053330475	1.1583140798612881e-26
0.1773687164386378	6.798187985692082e-26
0.1791424036030242	8.273832649445877e-25
0.1809338276390544	1.3430555801343335e-26
0.18274316591544498	4.287754970448287e-22
0.18457059757459943	5.592398778404465e-19
0.1864163035503454	8.640175730662876e-17
0.18828046658584888	5.1188937098115274e-17
0.19016327125170737	1.4826212991540006e-12
0.19206490396422443	3.348971860908458e-08
0.1939855530038667	2.9230409214334877e-08
0.19592540853390536	3.0143455030421554e-11
0.19788466261924442	6.652189657881559e-12
0.19986350924543686	2.4697742515784403e-13
0.2018621443378912	7.547656382217593e-10
0.20388076578127012	6.050687579525371e-14
0.20591957343908285	1.5119332211890049e-12
0.20797876917347366	2.3285489652488284e-13
0.21005855686520844	3.812960161866584e-11
0.2121591424338605	2.5015225577698223e-13
0.21428073385819912	1.7448289795913633e-15
0.21642354119678112	6.647715377177278e-13
0.2185877766087489	6.863850572983883e-13
0.2207736543748364	4.2932610254856065e-13
0.22298139091858477	4.364393625397058e-14
0.2252112048277706	5.88587373836762e-11
0.22746331687604834	2.465853699448016e-12
0.22973795004480882	3.925739715763532e-12
0.23203532954525688	1.754964961481486e-09
0.23435568284070946	1.8045155017473264e-08
0.23669923966911657	1.6587724971125085e-09
0.2390662320658077	0.00012718953911397446
0.2414568943864658	1.658793299760742e-05
0.2438714633303305	7.734407671793194
0.24631017796363378	99.05102826294043
0.24877327974327013	1.3649694583127823
0.2512610125407028	16.02336404454622
0.25377362266610987	2884.3058023666563
0.25631135889277096	132734.5518040712
0.25887447248169865	233660.83458057835
0.26146321720651566	9243104.384378895
0.2640778493785808	11976008.748143358
0.2667186278723666	6066686.396080017
0.2693858141510903	9324988.38829473
0.2720796722926012	1634354.287391754
0.27480046901552724	294847.4733244919
0.27754847370568253	13021.544437318702
0.28032395844273933	14.674763937878161
0.28312719802716674	75214.47602567183
0.2859584700074384	233157.55173822603
0.28881805470751276	20815019.049168445
0.2917062352545879	90003012.86200741
0.2946232976071338	5056694.306324694
0.2975695305832051	3663393.443971267
0.30054522588903715	2181.053947315834
0.3035506781479275	38761.50375508319
0.3065861849294068	2513249.58687675
0.3096520467787009	5465867.433092973
0.3127485672464879	264408163.61127117
0.3158760529189528	27135548369.63524
0.31903481344814233	38794448336.786224
0.3222251615826237	3081809742.9002824
0.32544741319844994	1065126574.4863462
0.3287018873304345	706423767.23509
0.33198890620373883	2571647858.6867332
0.3353087952657762	2707390534.519003
0.338661883218434	1465335.7242320774
0.3420485020506183	445736.34752860677
0.34546898707112456	353655.92053757416
0.3489236769418358	84666586.2628915
0.35241291371125416	5286806.213256701
0.3559370428483667	40218097.69796031
0.3594964132768504	7955.897513771776
0.3630913774096189	2536686128.8772674
0.3667222911837151	111359273547.03464
0.37038951409555215	3419910220172.243
0.37409340923650775	3031814519006.2397
0.37783434332887283	45754891276160.82
0.38161268676216153	209468042628620.03
0.38542881362978315	217306251587971.28
0.389283101766081	270985522491938.44
0.39317593278374185	968124307235689.8
0.39710769211157926	1784263964645442.2
0.401078769032695	38275262701979.06
0.405089556723022	17313741118128.148
0.4091404522902522	2738095507463351.0
0.4132318568131547	6528122242407462.0
0.4173641753812863	1353628484254713.8
0.42153781713509914	102069561548554.14
0.4257531953064501	34434817788.40376
0.43001072725951467	3866570729731.059
0.43431083453210984	1876208434552627.0
0.43865394287743087	4.6687591962052104e+16
0.44304048230620524	3.124065371024079e+17
0.44747088712926725	1.3688285352872735e+18
0.45194559600055995	9.571105781751638e+18
0.4564650519605655	1.7541004583153723e+19
0.4610297024801712	4.2768472774489784e+19
0.4656399995049729	1.1528222932054863e+20
0.47029639950002267	3.671199640311989e+20
0.47499936349502286	9.740219548944154e+20
0.4797493571299731	1.1043152208601383e+20
0.48454685070127285	6.275210178080371e+20
0.48939231920828563	7.191536727819635e+20
0.4942862424003685	1.8013805101033744e+20
0.4992291048243721	2.884047587039404e+19
0.5042213958726158	1.063726050957801e+20
0.509263609831342	1.2274919316725196e+20
0.5143562459296555	1.0717214194321195e+20
0.519499808388952	2.0815864244575e+19
0.5246948064728415	7.125963026691398e+19
0.52994175453757	7.681025174023157e+19
0.5352411720829456	5.535819737438344e+19
0.5405935838037751	2.8343450967220183e+19
0.5459995196418129	2.0352100638817403e+19
0.551459514838231	1.5951903240958726e+19
0.5569741099866133	9.602827138450991e+18
0.5625438510864794	5.148527004069106e+18
0.5681692895973443	2.470876261352431e+18
0.5738509824933177	9.690141705791164e+17
0.5795894923182509	2.73220283903911e+17
0.5853853872414334	3.5445707719780816e+16
0.5912392411138477	1.2479411978815228e+16
0.5971516335249862	3.326040945595131e+17
0.6031231498602361	2.2860235644722473e+18
0.6091543813588385	1.0037623698553688e+19
0.6152459251724268	3.1644966726800056e+19
0.6213983844241512	7.534831975338033e+19
0.6276123682683926	2.2707660523040712e+20
0.6338884919510765	5.374303974801585e+20
0.6402273768705874	1.1703329691928895e+21
0.6466296506392932	2.447247951634449e+21
0.6530959471456862	4.828750733849946e+21
0.6596269066171431	6.772544000489871e+21
0.6662231756833145	6.100552605615248e+21
0.6728854074401477	5.722349127248899e+21
0.6796142615145492	1.478085406252327e+22
0.6864104041296946	3.6165174183706524e+22
0.6932745081709915	6.07777276679422e+23
0.7002072532527015	9.380504154562281e+23
0.7072093257852285	8.062486060051802e+22
0.7142814190430807	1.3576869318196678e+22
0.7214242332335116	8.602379762973997e+22
0.7286384755658467	1.8309603307852664e+23
0.7359248603215052	1.2139943680531757e+23
0.7432841089247202	5.461730717744058e+22
0.7507169500139675	1.7439578778996155e+22
0.7582241195141072	3.0768230054131076e+21
0.7658063607092482	7.922593638016364e+19
0.7734644243163408	8.250625020557437e+20
0.781199068559504	6.674400164449817e+21
0.7890110592450992	5.889692567072469e+22
0.7969011698375502	1.082346509717014e+23
0.8048701815359257	5.943284007968848e+23
0.8129188833512849	1.426334034364087e+24
0.8210480721847978	2.525935934731577e+24
0.8292585529066457	3.680149330026075e+24
0.8375511384357123	1.4002683835454896e+24
0.8459266498200694	1.450740843776181e+24
0.8543859163182701	5.665639950224743e+24
0.8629297754814528	1.3368540926246064e+25
0.8715590732362674	2.029077194173624e+25
0.8802746639686301	2.5407658102117645e+25
0.8890774106083162	2.908305243819797e+25
0.8979681847143995	4.777533237460998e+25
0.9069478665615435	3.1185351011268646e+25
0.9160173452271589	2.8595266472855056e+25
0.9251775186794305	1.610545253178042e+25
0.9344292938662249	2.2268756648757403e+25
0.9437735868048871	3.5708774748234775e+25
0.953211322672936	5.381138361825858e+25
0.9627434358996654	1.9720054622142903e+25
0.9723708702586621	4.997867130991549e+25
0.9820945789612486	1.0368537448341967e+26
0.9919155247508612	7.110264866693439e+25
1.0018346799983697	3.788491422381324e+25
1.0118530267983534	4.661765657695126e+25
1.021971557066337	6.691869646899656e+25
1.0321912726370004	1.0796189918723214e+26
1.0425131853633705	1.625771340140122e+26
1.0529383172170041	1.5122881969419298e+26
1.0634677003891742	1.4520616937662735e+26
1.074102377393066	2.6173796170132097e+26
1.0848434011669965	3.471997463457878e+26
1.0956918351786664	2.947881534734891e+26
1.1066487535304532	1.3066777196558434e+26
1.1177152410657578	8.669343290557666e+25
1.1288923934764155	2.9079985284535648e+25
1.1401813174111797	3.1737000593719974e+25
1.1515831305852913	5.376779874259645e+25
1.1630989618911443	1.185009279728929e+26
1.1747299515100555	1.7068959715844887e+26
1.1864772510251562	2.0814417911849273e+26
