#wavelength	surface flux
0.6450077295303345	1339.5088734390727
0.6472567915916443	2040.7288599012056
0.6494921445846558	2506.244858371854
0.6517150402069092	2682.17108088448
0.6539263725280762	2848.3886998398243
0.6561272740364075	3021.1181693173576
0.6583186388015747	3204.116774697481
0.6605015397071838	3400.221215653122
0.6626768708229065	3604.687742706016
0.6648455858230591	3816.6194393382793
0.6670085787773132	4036.40881042008
0.6691668033599854	4255.353152445469
0.6713210344314575	4486.717776878243
0.6734722256660461	4753.49690107483
0.6756211519241333	5033.968459152276
0.6777685880661011	5312.872141767179
0.6799154281616211	5603.551661015787
0.6820623278617859	5908.210685569946
0.6842101216316223	6226.230545895978
0.6863595843315125	6554.989024591651
0.688511312007904	6891.877250246953
0.6906660795211792	7245.286683342782
0.6928245425224304	7626.848386224074
0.6949873566627502	8037.358165615849
0.6971551775932312	8454.89546215578
0.6993286609649658	8889.808066567573
0.7015084028244019	9378.783151051106
0.7036949396133423	9895.189905544561
0.7058889269828796	10413.46336654081
0.7080909013748169	10945.250953919953
0.710301399230957	11501.965539893481
0.712520956993103	12087.776687892965
0.7147500514984131	12683.305522729403
0.7169892191886902	13296.608585739552
0.7192389369010925	13973.59724672655
0.7214996814727783	14701.953378316997
0.723771870136261	15452.056590284341
0.7260559797286987	16229.01241605847
0.7283523678779602	17030.156243188158
0.7306615710258484	17863.102359312845
0.7329838871955872	18729.223332849535
0.7353196740150452	19622.469335775473
0.7376693487167358	20568.162759655566
0.7400332689285278	21557.95254941405
0.7424117922782898	22578.863803147768
0.7448052167892456	23648.58287776945
0.7472138404846191	24771.98262537088
0.7496379613876343	25924.656157745925
0.7520779371261597	27042.72983326251
0.7545340061187744	28048.57002617706
0.7570064663887024	28743.21537817974
0.7594954967498779	28508.135976509857
0.7620013952255249	25618.89839264263
0.7645244002342224	18808.938541360498
0.7670646905899048	12341.02912084144
0.7696225643157959	12500.400136205819
0.7721980810165405	20810.97095222789
0.7747915983200073	32089.944998175975
0.7774031162261963	39090.96087113082
0.7800329327583313	42014.801871295815
0.7826811671257019	45912.148769806336
0.7853479981422424	50587.93394572793
0.7880334854125977	53947.32684433374
0.7907378077507019	56406.40684672296
0.7934610247612	57725.77598307162
0.7962033748626709	60171.85518407397
0.7989648580551147	64980.98664153014
0.801745593547821	69431.74779752083
0.8045456409454346	73004.04000818738
0.8073651194572449	76616.15558025219
0.8102040886878967	80255.24812764238
0.8130625486373901	84042.9122647154
0.8159406185150146	88207.08317275981
0.8188382983207703	92659.97695410118
0.8217556476593018	97153.7685707701
0.8246926665306091	101883.85630833788
0.8276493549346924	107017.6991343226
0.8306257724761963	112340.0406460776
0.8336219191551208	117867.88992437668
0.8366377949714661	123644.08455782227
0.8396733403205872	129645.45731187543
0.8427285552024841	135939.67491339621
0.8458034992218018	142488.24669057102
0.8488980531692505	149356.32308600127
0.8520121574401855	156561.34174006668
0.8551458716392517	164024.08469727146
0.8582990765571594	171596.7748380725
0.8614717125892639	179041.03763145357
0.8646637797355652	187034.36860355843
0.8678751587867737	196119.9791835468
0.8711057901382446	205701.59921119682
0.8743556141853333	215620.79519444416
0.87762451171875	225995.98765204253
0.8809124231338501	236701.0149277107
0.8842192888259888	247789.46515818557
0.8875449895858765	259118.04203289887
0.8908893465995789	270255.4194271121
0.894252359867096	281162.3371895051
0.8976338505744934	292642.71840709803
0.9010337591171265	306731.426020736
0.9044519662857056	322803.6739700326
0.9078882932662964	338105.55299078487
0.9113426208496094	352851.629619039
0.914814829826355	367857.4006893744
0.9183048605918884	383552.0429482048
0.9218124747276306	399533.42669146816
0.925337553024292	409823.50508314936
0.9288799166679382	410286.3767479903
0.9324395060539246	408371.10895571165
0.9360161423683167	423359.9374621614
0.9396095871925354	463501.26002340636
0.943219780921936	500098.2634729481
0.9468464851379395	515154.5894719437
0.9504896402359009	530401.6938276321
0.9541489481925964	555781.2927146364
0.9578243494033813	581413.3980117678
0.9615156054496765	607983.9059388387
0.9652225375175476	642016.7859701894
0.9689450263977051	677811.0884366009
0.9726828336715698	708269.0610838556
0.9764357805252075	737989.7435200082
0.9802037477493286	771446.6003741381
0.983986496925354	806600.465244333
0.9877838492393494	841114.7888031877
0.9915955662727356	876866.5295932216
0.9954215884208679	914287.7179317964
0.9992615580558777	951275.6681417649
1.0031154155731201	988196.4510673105
1.0069829225540161	1026131.5566517197
1.0108637809753418	1065228.6488638797
1.0147579908370972	1105519.783950674
1.018665075302124	1146983.120738309
1.022585153579712	1189497.15552579
1.0265177488327026	1233176.53850853
1.0304628610610962	1277974.0258972668
1.0344202518463135	1323844.5148640508
1.0383895635604858	1370945.089791494
1.0423706769943237	1419296.1262861646
1.0463634729385376	1468870.4055646684
1.0503677129745483	1519898.121853535
1.0543830394744873	1572242.6732284094
1.058409333229065	1625977.1297278942
1.0624464750289917	1682775.7459082545
1.0664942264556885	1741786.3667233624
1.0705522298812866	1800807.5315394828
1.0746204853057861	1860334.5259702979
1.0786986351013184	1921178.7862914884
1.0827864408493042	1983546.0947426495
1.086883783340454	2044591.641936604
1.0909905433654785	2099590.5616603475
1.0951062440872192	2142369.9750253092
1.0992310047149658	2170819.703396274
1.10336434841156	2202374.3312763777
1.1075061559677124	2245781.6994084236
1.1116561889648438	2260462.3688468733
1.115814208984375	2224113.117739486
1.1199802160263062	2198105.716540564
1.124153733253479	2267549.797135195
1.1283347606658936	2429998.7683878546
1.1325229406356812	2541702.7934937435
1.1367181539535522	2630000.541929423
1.1409201622009277	2762835.0758106457
1.145128846168518	2819797.703918299
1.1493438482284546	2845829.816874016
1.1535650491714478	2936465.5708851307
1.1577922105789185	3041466.3533115387
1.1620250940322876	3139820.717428444
1.1662636995315552	3257368.628112258
1.170507550239563	3373144.3125269166
1.174756646156311	3507309.3340696637
1.1790107488632202	3676440.058199694
1.1832695007324219	3826252.379836373
1.1875330209732056	3956535.7469390486
1.191800832748413	4091070.9682186167
1.1960728168487549	4213072.53643342
1.2003488540649414	4331167.587962246
1.2046287059783936	4460596.14169532
1.2089121341705322	4583467.850223033
1.2131990194320679	4695819.347067819
1.2174891233444214	4815065.948992852
1.2217823266983032	4940603.070837119
1.2260783910751343	5063126.081529215
1.230377197265625	5186730.999719312
1.2346785068511963	5316554.76344072
1.238982081413269	5448076.462314249
1.2432878017425537	5576502.144442382
1.2475954294204712	5703566.13628569
1.2519049644470215	5830467.482881243
1.256216049194336	5961632.6150814565
1.2605286836624146	6097348.399284664
1.2648425102233887	6230623.664938294
1.2691574096679688	6359608.657686872
1.2734732627868652	6489169.393340494
1.2777899503707886	6619182.957740801
1.2821072340011597	6744766.839435382
1.2864248752593994	6871991.603922358
1.2907428741455078	6984817.346856152
1.2950609922409058	7085142.875072095
1.2993791103363037	7224693.923731782
1.303696870803833	7397892.153510717
1.3080145120620728	7557725.8626344185
1.3123314380645752	7679654.410754478
1.3166478872299194	7777175.026237969
1.3209635019302368	7858137.103149876
1.3252781629562378	7916448.659796514
1.3295916318893433	7784710.130607768
1.3339040279388428	7105019.41424542
1.3382149934768677	6099273.408736097
1.3425244092941284	5455765.117296627
1.3468321561813354	5037756.544717834
1.3511382341384888	4472429.622916049
1.3554422855377197	4117907.68332017
1.3597444295883179	4099567.609956082
1.3640443086624146	4251751.570539731
1.3683418035507202	4682358.434637831
1.3726370334625244	5304321.976229037
1.3769296407699585	5896226.930769357
1.381219506263733	6109915.388507464
1.3855066299438477	5950899.373705793
1.3897908926010132	5757647.318672604
1.3940720558166504	5552606.252822281
1.3983501195907593	5549175.492130999
1.4026249647140503	5727956.046510994
1.4068963527679443	5873293.246569978
1.4111642837524414	6082649.998259174
1.4154287576675415	6021349.540790155
1.419689416885376	5605491.6151441885
1.4239463806152344	5478524.592433847
1.4281994104385376	5912116.947454181
1.4324485063552856	6561098.092129011
1.436693549156189	6897975.166085588
1.440934419631958	7129305.342217474
1.4451709985733032	7575885.991267808
1.449403166770935	8131785.45989777
1.453631043434143	8927154.789695553
1.4578542709350586	9822163.657587064
1.4620729684829712	10060088.200273186
1.4662868976593018	9870211.421612477
1.4704961776733398	10081383.015591923
1.4747005701065063	10550375.802436335
1.4788999557495117	11048315.299773213
1.4830944538116455	11491495.769574514
1.4872838258743286	11771790.766971178
1.491468071937561	11986452.249971692
1.4956470727920532	12268041.407332046
1.4998208284378052	12592024.480181996
1.5039892196655273	13104664.940376716
1.5081522464752197	13736964.494235903
1.5123097896575928	14242694.973069869
1.5164618492126465	14688435.3942623
1.5206083059310913	15119768.762995012
1.5247491598129272	15417917.883433389
1.5288842916488647	15569869.098666105
1.5330137014389038	15870570.156675667
1.5371372699737549	16326147.943092644
1.541254997253418	16678717.892239079
1.545366883277893	16948198.080996014
1.5494728088378906	17215190.061615046
1.5535727739334106	17465663.917305663
1.5576666593551636	17706819.913186714
1.561754584312439	17944379.407620758
1.5658363103866577	18178275.861790378
1.5699119567871094	18391340.190544162
1.5739814043045044	18603361.362774987
1.5780447721481323	18848896.111906763
1.582101821899414	19083593.774550773
1.5861525535583496	19284420.285871796
1.5901970863342285	19481571.82610051
1.5942351818084717	19687604.404101927
1.5982669591903687	19893535.19910998
1.6022924184799194	20091064.676739626
1.606311559677124	20276678.600573998
1.6103241443634033	20450929.962260954
1.6143304109573364	20626223.215292487
1.6183301210403442	20739696.650365386
1.6223233938217163	20565817.397283625
1.6263102293014526	20164474.39112157
1.6302905082702637	19864743.29216153
1.634264349937439	19952524.430655673
1.638231635093689	20711894.560319748
1.6421923637390137	21481771.679889925
1.646146535873413	21683332.09282449
1.6500942707061768	21755457.289328266
1.6540353298187256	21785405.617635343
1.6579699516296387	21859352.314668544
1.661897897720337	21629490.544740263
1.6658192873001099	20509343.23260156
1.6697341203689575	20558753.808114156
1.6736423969268799	21995090.29569771
1.677544116973877	22483256.240657385
1.6814392805099487	22513713.133536298
1.6853278875350952	22830273.87722285
1.6892099380493164	22903886.02647368
1.6930854320526123	22727781.717380982
1.696954369544983	22491685.02843376
1.7008168697357178	22169231.560213067
1.7046726942062378	22192412.46072503
1.708522081375122	22923677.70187659
1.712364912033081	23853680.41951527
1.7162011861801147	24287607.747479938
1.7200311422348022	24210300.53940817
1.723854422569275	23678710.271557823
1.7276713848114014	22930861.900935493
1.731481909751892	22623333.154010247
1.7352858781814575	22766842.28814862
1.7390835285186768	22856459.673798755
1.7428747415542603	22817200.919487163
1.7466596364974976	22894741.0048631
1.7504380941390991	22716252.488307964
1.7542102336883545	21981971.83639264
1.7579760551452637	21340808.604014523
1.7617355585098267	21135034.381052807
1.7654887437820435	20566225.35694792
1.7692357301712036	19675962.56347745
1.7729763984680176	19264794.475603253
1.776710867881775	18957192.057799205
1.7804391384124756	18407984.86854782
1.7841613292694092	17498868.031272106
1.7878772020339966	16530114.246414717
1.7915871143341064	15749959.248445287
1.7952908277511597	15534712.044884145
1.7989884614944458	15393620.615265217
1.8026801347732544	14716103.078894965
1.806365728378296	14160161.725553552
1.8100452423095703	14043639.493331004
1.8137187957763672	14913306.224829137
1.817386507987976	15309758.427918632
1.8210482597351074	15222895.88427188
1.8247040510177612	16207994.537693249
1.828354001045227	16162500.51411222
1.8319982290267944	15426557.199937837
1.8356364965438843	15112627.881334653
1.8392690420150757	14469960.705742173
1.8428958654403687	14134653.195056051
1.8465168476104736	13462984.062519932
1.8501322269439697	13367418.764245262
1.8537418842315674	13616715.765505765
1.8573459386825562	12538671.733838882
1.860944390296936	11512853.763862502
1.864537239074707	11204647.19561713
1.8681244850158691	11345426.45299386
1.871706247329712	12051366.15073913
1.8752825260162354	13768260.150219744
1.8788533210754395	16031495.158099819
1.8824186325073242	17411500.422249056
1.8859784603118896	18124078.893069338
1.8895330429077148	19026224.36333196
1.8930821418762207	19926406.841521323
1.8966259956359863	20144616.584714793
1.9001644849777222	19590789.736794524
1.9036977291107178	19573978.389517035
1.9072256088256836	20337069.53813412
1.9107483625411987	20086063.611094687
1.9142658710479736	19555622.352387134
1.9177782535552979	20081632.593437336
1.9212853908538818	19611328.226863176
1.9247875213623047	18857914.2550009
1.9282845258712769	18490313.110252395
1.9317764043807983	17305049.787329115
1.9352631568908691	16129602.786085164
1.9387450218200684	14663159.784875752
1.942221760749817	14429436.007784644
1.9456936120986938	15621016.365903478
1.9491604566574097	16435901.4471973
1.952622413635254	16447757.949298397
1.956079363822937	15162990.364598706
1.959531545639038	14823047.921968708
1.962978720664978	16907856.881317694
1.966421127319336	19328265.90393663
1.9698586463928223	19777762.38256894
1.9732913970947266	19397742.42385194
1.9767193794250488	20060277.996216644
1.9801424741744995	21115568.763353694
1.9835609197616577	22407137.217037506
1.9869745969772339	22708218.939593975
1.990383505821228	21758455.93495209
1.9937876462936401	22619713.538344786
1.9971871376037598	23676805.551995
2.000581979751587	23682301.14092878
2.003972291946411	24762548.415629476
2.007357597351074	26047922.644271843
2.0107386112213135	27344988.530050416
2.0141148567199707	28268012.15115434
2.017486572265625	28295320.040730704
2.0208535194396973	29403963.803117234
2.0242159366607666	30566770.79527088
2.027573823928833	29970977.663816307
2.0309269428253174	30032625.161367152
2.034275770187378	31353775.802648075
2.0376198291778564	31872701.180938885
2.040959596633911	31734879.280200616
2.044294595718384	32461186.31204446
2.0476250648498535	33335254.91425994
2.0509510040283203	33559722.73084731
2.054272413253784	34021518.92009007
2.057589530944824	34711837.26867586
2.0609018802642822	34889108.93629903
2.0642096996307373	34800374.77620491
2.0675129890441895	35124536.47380047
2.0708119869232178	35606824.47316639
2.074106216430664	35986825.3277292
2.0773961544036865	35941336.006122924
2.080681324005127	35640730.02037519
2.0839622020721436	35787591.85228246
2.087238311767578	36226007.28971877
2.090510129928589	36681550.6928574
2.0937774181365967	37041983.984911606
2.0970399379730225	37149251.05245083
2.1002981662750244	37143188.132539116
2.1035518646240234	37243644.10790413
2.1068007946014404	37436762.93382695
2.1100454330444336	37465521.788992465
2.1132853031158447	37406685.43264951
2.116520881652832	37495940.560927406
2.1197516918182373	37747612.87691354
2.1229779720306396	37907991.48706073
2.12619948387146	37913656.800680056
2.1294167041778564	38044051.69951343
2.132629156112671	38244366.01532434
2.1358368396759033	38335699.16415466
2.139039993286133	38335200.89611622
2.1422386169433594	38329224.17141198
2.145432472229004	38262646.19777034
2.1486217975616455	38120808.9659753
2.151806354522705	38038263.94803685
2.1549863815307617	37988765.76966479
2.1581614017486572	38148069.741049394
2.16133189201355	38400899.12084507
2.1644976139068604	38530322.32716073
2.167658567428589	38634518.122939
2.1708147525787354	38601678.37085827
2.173966407775879	38510532.15498946
2.1771130561828613	38628763.74242539
2.1802549362182617	38801593.70738612
2.183391809463501	38717257.080624156
2.1865241527557373	38655636.350893416
2.1896514892578125	38820990.4614953
2.1927738189697266	38870919.86998302
2.1958916187286377	38078250.381704696
2.1990041732788086	36068967.35985614
2.2021119594573975	34877389.23159165
2.2052149772644043	36148843.38933872
2.208312749862671	38122272.04697965
2.2114057540893555	39007682.53189425
2.214493751525879	38769089.00099071
2.217576742172241	37095755.387372576
2.2206547260284424	34411655.000052154
2.2237277030944824	33056828.412815187
2.2267956733703613	32760321.46415256
2.2298583984375	32298478.908765808
2.2329163551330566	32523401.144700177
2.235969066619873	33314002.796619542
2.2390167713165283	34078148.273119375
2.2420592308044434	33315261.45552432
2.2450966835021973	31213069.608147465
2.248128890991211	30837447.37311824
2.2511560916900635	31475003.66079778
2.254178285598755	31318769.67863823
2.257194995880127	32212663.141885985
2.260206699371338	34187588.78453689
2.2632133960723877	34561135.55588232
2.266214609146118	33264064.948525377
2.2692108154296875	32706946.597724352
2.2722020149230957	33727982.41635927
2.2751877307891846	34203709.13499247
2.278168201446533	33238235.975033473
2.2811436653137207	32115234.30101864
2.284113883972168	31090852.49841306
2.287078857421875	30136419.25858419
2.290038824081421	29267939.601567853
2.2929933071136475	27915238.82352953
2.295942783355713	27009259.552375928
2.298887014389038	28146480.582586348
2.301826238632202	30114711.924024396
2.304760217666626	31316647.08617995
2.3076889514923096	32722349.933176003
2.310612440109253	34829078.54904798
2.3135311603546143	34088324.60550899
2.3164443969726562	28089819.627537254
2.319352865219116	24335189.76093358
2.322256088256836	26813124.84160718
2.3251543045043945	29795405.60259684
2.328047275543213	31289776.145361017
2.330935478210449	31415339.58406752
2.3338186740875244	29984543.835974477
2.3366971015930176	27549156.229821075
2.3395702838897705	25614252.716089007
2.3424389362335205	25173946.401897468
2.3453025817871094	24522794.164014343
2.348161458969116	24071123.83637441
2.351015567779541	24072368.849167332
2.353865146636963	25424481.623533756
2.3567099571228027	28718309.320318777
2.3595502376556396	31235757.171310924
2.3623859882354736	32574560.289146136
2.3652172088623047	32876646.778242603
2.368043899536133	28816874.239952628
2.370866537094116	22184726.373394977
2.3736846446990967	20606375.449994504
2.3764986991882324	23097608.8198846
2.3793084621429443	26034495.293674763
2.3821144104003906	28066073.952424232
2.384916305541992	28274826.880826753
2.387714147567749	29356103.878903233
2.3905084133148193	30622655.549639642
2.393299102783203	29101534.32676891
2.3960859775543213	26814400.84452202
2.398869514465332	26079155.040845737
2.4016497135162354	25387918.27410642
2.4044265747070312	24456481.824978184
2.407200336456299	24866553.401946265
2.409970998764038	25936095.41943783
2.4127390384674072	26712087.630958784
2.415503978729248	25830208.474902786
2.418266534805298	23446313.08753868
2.4210267066955566	23183410.915932223
2.4237842559814453	24298512.08756539
2.426539897918701	24020956.113395724
2.429293394088745	24641186.819976047
2.4320452213287354	25298595.8873271
2.4347951412200928	22154437.352974363
2.4375438690185547	21134651.870620888
2.440291166305542	23848795.477509875
2.443037271499634	23036637.192765664
2.445782423019409	21033227.11854419
2.4485268592834473	21764148.82219934
2.451270818710327	20600889.477417793
2.454014539718628	18825298.633596174
2.4567582607269287	21198329.002809197
2.4595019817352295	22069715.01827967
2.4622461795806885	21815030.17866856
2.4649908542633057	22230710.56187322
2.4677364826202393	18706443.97174834
2.4704833030700684	15411931.435255898
2.473231554031372	14533715.476690173
2.4759814739227295	15022262.513338618
2.4787333011627197	16379844.954164373
