#wavelength	surface flux
0.6450077295303345	27717.384684034474
0.6472567915916443	41884.54477758799
0.6494921445846558	50689.06215430216
0.6517150402069092	53310.429928568934
0.6539263725280762	55561.33342950654
0.6561272740364075	57558.531152247844
0.6583186388015747	59899.74721833863
0.6605015397071838	63042.03919481949
0.6626768708229065	66156.53697031435
0.6648455858230591	68994.7434416801
0.6670085787773132	71744.15897587467
0.6691668033599854	73769.43246745567
0.6713210344314575	75948.72716391136
0.6734722256660461	79917.68788377885
0.6756211519241333	84055.94174951252
0.6777685880661011	87137.34127271941
0.6799154281616211	90099.15691622598
0.6820623278617859	92831.49153505014
0.6842101216316223	95167.7324940163
0.6863595843315125	96749.40779079741
0.688511312007904	97356.62563969384
0.6906660795211792	99622.96151571805
0.6928245425224304	104931.30915653161
0.6949873566627502	110970.24967141474
0.6971551775932312	115798.26548409414
0.6993286609649658	120491.01513270027
0.7015084028244019	127471.28313991278
0.7036949396133423	135679.91186648092
0.7058889269828796	142788.66449346291
0.7080909013748169	148718.7814630014
0.710301399230957	154302.18889242862
0.712520956993103	160059.04451724736
0.7147500514984131	165923.3448334742
0.7169892191886902	171974.23675801005
0.7192389369010925	178387.3572635203
0.7214996814727783	185053.1780604221
0.723771870136261	191925.93330947263
0.7260559797286987	199006.3515652023
0.7283523678779602	206266.00668874642
0.7306615710258484	213540.49078679786
0.7329838871955872	219729.88339685998
0.7353196740150452	225011.5248985917
0.7376693487167358	231015.336695174
0.7400332689285278	237281.86771881778
0.7424117922782898	243782.4051308441
0.7448052167892456	251299.91178204893
0.7472138404846191	260283.57973101767
0.7496379613876343	270482.29260833055
0.7520779371261597	280437.3107126018
0.7545340061187744	289821.24238078925
0.7570064663887024	296823.1243322718
0.7594954967498779	295353.3370223294
0.7620013952255249	266315.9100900328
0.7645244002342224	187107.11295433616
0.7670646905899048	103640.4609277605
0.7696225643157959	100652.55048776092
0.7721980810165405	194872.5059909336
0.7747915983200073	311806.45899772085
0.7774031162261963	373020.59318496473
0.7800329327583313	391452.9994930161
0.7826811671257019	418995.10951297864
0.7853479981422424	453928.31237739976
0.7880334854125977	477822.8015095812
0.7907378077507019	493411.4041305931
0.7934610247612	497409.59075407294
0.7962033748626709	509829.653720438
0.7989648580551147	541610.3380300608
0.801745593547821	570177.2635301282
0.8045456409454346	591775.114953336
0.8073651194572449	614289.508704956
0.8102040886878967	637743.6470555088
0.8130625486373901	661666.0535266605
0.8159406185150146	686095.6106730615
0.8188382983207703	711028.4842557778
0.8217556476593018	736316.9352169038
0.8246926665306091	762382.2776363547
0.8276493549346924	789536.257485134
0.8306257724761963	817592.6172882384
0.8336219191551208	846523.0023323538
0.8366377949714661	876309.7107839711
0.8396733403205872	906976.9172503952
0.8427285552024841	938664.216827545
0.8458034992218018	971288.8595061669
0.8488980531692505	1004621.9509518896
0.8520121574401855	1037434.8826677034
0.8551458716392517	1070175.731879337
0.8582990765571594	1103467.7671586424
0.8614717125892639	1136177.3629301696
0.8646637797355652	1170871.6376742683
0.8678751587867737	1210801.9073177453
0.8711057901382446	1255700.9489601585
0.8743556141853333	1303493.867649064
0.87762451171875	1352384.9078689015
0.8809124231338501	1401492.7743855913
0.8842192888259888	1451067.830925009
0.8875449895858765	1501717.5996489846
0.8908893465995789	1552055.447879886
0.894252359867096	1602517.5516166876
0.8976338505744934	1655229.8750762353
0.9010337591171265	1711693.2288937154
0.9044519662857056	1770902.8985763178
0.9078882932662964	1830255.3546392724
0.9113426208496094	1890100.7845377112
0.914814829826355	1951051.4436808538
0.9183048605918884	2013594.2083428877
0.9218124747276306	2076971.5876477833
0.925337553024292	2132954.406409845
0.9288799166679382	2178936.28293024
0.9324395060539246	2224986.6588351554
0.9360161423683167	2290894.3957566298
0.9396095871925354	2390560.7060887613
0.943219780921936	2490171.9921382726
0.9468464851379395	2561983.193978064
0.9504896402359009	2633104.621855878
0.9541489481925964	2716859.2397862305
0.9578243494033813	2800911.5101564853
0.9615156054496765	2887556.7622373663
0.9652225375175476	2986822.272469959
0.9689450263977051	3089751.626819288
0.9726828336715698	3186004.671334905
0.9764357805252075	3282816.6674708063
0.9802037477493286	3384503.021633908
0.983986496925354	3487196.3916711234
0.9877838492393494	3589801.442984411
0.9915955662727356	3696796.998434106
0.9954215884208679	3807336.3273226805
0.9992615580558777	3916966.406641725
1.0031154155731201	4027590.1347375223
1.0069829225540161	4142323.590144308
1.0108637809753418	4260387.902800454
1.0147579908370972	4381241.604981526
1.018665075302124	4504432.043025126
1.022585153579712	4629326.4860992525
1.0265177488327026	4756599.4042823715
1.0304628610610962	4886426.489683262
1.0344202518463135	5018794.35642792
1.0383895635604858	5153750.310339921
1.0423706769943237	5291072.336538716
1.0463634729385376	5430324.85220964
1.0503677129745483	5571549.469302942
1.0543830394744873	5715507.848195663
1.058409333229065	5864179.635738768
1.0624464750289917	6020827.765247337
1.0664942264556885	6182193.079765366
1.0705522298812866	6342447.216461492
1.0746204853057861	6502446.304048099
1.0786986351013184	6664508.434107333
1.0827864408493042	6829228.350144875
1.086883783340454	6993889.36539724
1.0909905433654785	7152997.918775006
1.0951062440872192	7296991.909543935
1.0992310047149658	7430363.235220936
1.10336434841156	7588693.380744087
1.1075061559677124	7774028.974937839
1.1116561889648438	7907796.680825316
1.115814208984375	7966270.9128615055
1.1199802160263062	8035051.758497669
1.124153733253479	8212432.845191824
1.1283347606658936	8509492.67900725
1.1325229406356812	8759309.519272154
1.1367181539535522	8954226.261525989
1.1409201622009277	9186564.653634353
1.145128846168518	9365874.83888477
1.1493438482284546	9543760.552243058
1.1535650491714478	9803198.009961264
1.1577922105789185	10031933.277581416
1.1620250940322876	10205445.242903892
1.1662636995315552	10422399.85178381
1.170507550239563	10656828.250669762
1.174756646156311	10890202.692442546
1.1790107488632202	11168746.235053593
1.1832695007324219	11448645.948026199
1.1875330209732056	11711789.50272049
1.191800832748413	11983053.530479655
1.1960728168487549	12237532.444951693
1.2003488540649414	12483375.368439535
1.2046287059783936	12741981.973280434
1.2089121341705322	12995214.75759744
1.2131990194320679	13242124.0280875
1.2174891233444214	13494117.855728978
1.2217823266983032	13750637.84291372
1.2260783910751343	14007896.696847068
1.230377197265625	14267368.480997305
1.2346785068511963	14531775.431547647
1.238982081413269	14797904.527578868
1.2432878017425537	15062914.039832145
1.2475954294204712	15327106.030579962
1.2519049644470215	15590362.176390104
1.256216049194336	15859855.229684105
1.2605286836624146	16136315.018535724
1.2648425102233887	16410593.497589469
1.2691574096679688	16680502.831403721
1.2734732627868652	16951391.19201094
1.2777899503707886	17224096.76153278
1.2821072340011597	17494829.35727936
1.2864248752593994	17768020.611611053
1.2907428741455078	18029125.267081678
1.2950609922409058	18278867.80480317
1.2993791103363037	18566699.949828282
1.303696870803833	18886026.796769578
1.3080145120620728	19186347.162010796
1.3123314380645752	19459170.556973606
1.3166478872299194	19717896.034289535
1.3209635019302368	19952903.03819658
1.3252781629562378	20175437.822319776
1.3295916318893433	20237601.36259518
1.3339040279388428	19736569.581697505
1.3382149934768677	18962568.016317982
1.3425244092941284	18462944.901469372
1.3468321561813354	18111857.599284004
1.3511382341384888	17665412.061426595
1.3554422855377197	17437799.998191833
1.3597444295883179	17763649.28234856
1.3640443086624146	18282365.696033314
1.3683418035507202	18996818.305733148
1.3726370334625244	19972634.365338657
1.3769296407699585	20940347.659051284
1.381219506263733	21481899.392921697
1.3855066299438477	21272515.601978008
1.3897908926010132	20764416.382125366
1.3940720558166504	20592016.359281097
1.3983501195907593	21004013.108930483
1.4026249647140503	21381618.85807794
1.4068963527679443	21692756.892260615
1.4111642837524414	22184138.825669866
1.4154287576675415	21804734.9078825
1.419689416885376	20946710.741768617
1.4239463806152344	20881439.716093577
1.4281994104385376	21678455.516034827
1.4324485063552856	23167601.384868566
1.436693549156189	24106048.988537733
1.440934419631958	24333113.823108144
1.4451709985733032	24930083.610092144
1.449403166770935	25514380.13798072
1.453631043434143	26025539.133468464
1.4578542709350586	26856792.12895258
1.4620729684829712	27355863.126671184
1.4662868976593018	27495764.36926085
1.4704961776733398	28011616.642738923
1.4747005701065063	28647192.294483226
1.4788999557495117	29209215.30223024
1.4830944538116455	29661435.2469154
1.4872838258743286	29900633.77102623
1.491468071937561	30203049.79611839
1.4956470727920532	30633432.396350205
1.4998208284378052	31060718.084223345
1.5039892196655273	31691540.158740703
1.5081522464752197	32377978.488191124
1.5123097896575928	32900290.018514737
1.5164618492126465	33416922.2446636
1.5206083059310913	33917656.72508092
1.5247491598129272	34240444.23122026
1.5288842916488647	34403665.48015778
1.5330137014389038	34775259.73722315
1.5371372699737549	35377772.18791532
1.541254997253418	35882995.67845206
1.545366883277893	36260260.37880509
1.5494728088378906	36629409.33095174
1.5535727739334106	36979792.932620496
1.5576666593551636	37277277.87515227
1.561754584312439	37583015.98627001
1.5658363103866577	37956598.96403745
1.5699119567871094	38316476.757198595
1.5739814043045044	38650310.87383848
1.5780447721481323	39015207.78258562
1.582101821899414	39377438.612123474
1.5861525535583496	39722834.781960584
1.5901970863342285	40054839.65962776
1.5942351818084717	40381479.21455234
1.5982669591903687	40704114.68041
1.6022924184799194	41013679.073518105
1.606311559677124	41307569.7475335
1.6103241443634033	41602487.419303894
1.6143304109573364	41919993.08739295
1.6183301210403442	42232739.015408054
1.6223233938217163	42492830.195711814
1.6263102293014526	42712887.84881134
1.6302905082702637	42921361.399226665
1.634264349937439	43144821.54953313
1.638231635093689	43514402.25642266
1.6421923637390137	43927375.96635136
1.646146535873413	44255819.36941194
1.6500942707061768	44583584.16292074
1.6540353298187256	44873475.51718935
1.6579699516296387	45125323.36946093
1.661897897720337	45314552.425984636
1.6658192873001099	45411104.3602119
1.6697341203689575	45697355.459545344
1.6736423969268799	46138793.066948764
1.677544116973877	46431956.904580675
1.6814392805099487	46703062.37838523
1.6853278875350952	47047918.77589339
1.6892099380493164	47345771.62913569
1.6930854320526123	47556643.918716684
1.696954369544983	47753257.73524081
1.7008168697357178	47992201.750803836
1.7046726942062378	48246477.59544938
1.708522081375122	48542433.54587383
1.712364912033081	48854407.12489255
1.7162011861801147	49049491.53056743
1.7200311422348022	49161112.22514848
1.723854422569275	49136654.2473179
1.7276713848114014	48855855.57162239
1.731481909751892	48590193.61090789
1.7352858781814575	48492780.40460161
1.7390835285186768	48548611.64942962
1.7428747415542603	48860911.551549405
1.7466596364974976	49517256.00207213
1.7504380941390991	49771008.42063534
1.7542102336883545	49212895.51163294
1.7579760551452637	48983231.59357262
1.7617355585098267	49078979.712290406
1.7654887437820435	48373038.11155141
1.7692357301712036	47549828.70655754
1.7729763984680176	47558608.603057906
1.776710867881775	47713572.06979047
1.7804391384124756	47609523.575338416
1.7841613292694092	47419829.08281527
1.7878772020339966	46233671.482100114
1.7915871143341064	44604748.35665691
1.7952908277511597	44138125.29230504
1.7989884614944458	43504397.91931191
1.8026801347732544	43098716.72828882
1.806365728378296	42744422.9398861
1.8100452423095703	42440495.17270875
1.8137187957763672	44301514.13618218
1.817386507987976	45906073.91382641
1.8210482597351074	46517677.22385765
1.8247040510177612	47240099.76565374
1.828354001045227	47036051.53744265
1.8319982290267944	47716173.17300044
1.8356364965438843	49025308.564792365
1.8392690420150757	48132824.94863312
1.8428958654403687	46083894.913455166
1.8465168476104736	44349739.5228968
1.8501322269439697	44464883.34744716
1.8537418842315674	44574534.953554705
1.8573459386825562	42758901.27517984
1.860944390296936	41685640.67394101
1.864537239074707	42120419.64869145
1.8681244850158691	42960451.49672786
1.871706247329712	43529380.68315389
1.8752825260162354	45061939.10550565
1.8788533210754395	47782241.71501
1.8824186325073242	49161975.661842346
1.8859784603118896	49834690.02933641
1.8895330429077148	51461876.86485214
1.8930821418762207	52441757.8274792
1.8966259956359863	52296193.97694594
1.9001644849777222	51551070.10017152
1.9036977291107178	51709681.136894904
1.9072256088256836	52806185.05248392
1.9107483625411987	52612997.669640124
1.9142658710479736	52661469.69772625
1.9177782535552979	52449638.88620888
1.9212853908538818	50185218.03981446
1.9247875213623047	50207400.61591913
1.9282845258712769	52472203.93784907
1.9317764043807983	52366970.30736395
1.9352631568908691	50606542.23961205
1.9387450218200684	48443247.21689918
1.942221760749817	46674066.91595714
1.9456936120986938	46389410.08489533
1.9491604566574097	47588419.81626658
1.952622413635254	48171003.29923282
1.956079363822937	46300454.01527634
1.959531545639038	46095352.08422326
1.962978720664978	50129562.94241063
1.966421127319336	53837553.63749713
1.9698586463928223	54076979.6289593
1.9732913970947266	53091006.55431749
1.9767193794250488	53264175.55204575
1.9801424741744995	54811352.18666334
1.9835609197616577	56241313.8224934
1.9869745969772339	55584571.55350341
1.990383505821228	53983637.71107174
1.9937876462936401	55110720.47438096
1.9971871376037598	56423396.23598584
2.000581979751587	55773624.79923106
2.003972291946411	56457649.2440408
2.007357597351074	58229960.915219545
2.0107386112213135	59676203.465367265
2.0141148567199707	60196765.29649308
2.017486572265625	60189238.77787961
2.0208535194396973	61214204.83624695
2.0242159366607666	61930716.93156661
2.027573823928833	60803196.07210713
2.0309269428253174	60431448.770925395
2.034275770187378	61888860.82473008
2.0376198291778564	62860304.37055431
2.040959596633911	63014719.99979713
2.044294595718384	63725138.92300717
2.0476250648498535	64675749.389720686
2.0509510040283203	65195048.52897775
2.054272413253784	65637178.86543944
2.057589530944824	66176403.32538678
2.0609018802642822	66419836.27609823
2.0642096996307373	66466841.810051896
2.0675129890441895	66977382.82380794
2.0708119869232178	67597404.1684685
2.074106216430664	67909250.72204976
2.0773961544036865	67894968.39077877
2.080681324005127	67726953.0048005
2.0839622020721436	67875392.65216294
2.087238311767578	68310201.06518865
2.090510129928589	68791052.450913
2.0937774181365967	69165849.85031857
2.0970399379730225	69322473.89124647
2.1002981662750244	69450563.80779174
2.1035518646240234	69669887.06763962
2.1068007946014404	69883354.74622881
2.1100454330444336	69938605.1216193
2.1132853031158447	69945998.31975104
2.116520881652832	70070473.15827589
2.1197516918182373	70301775.71825008
2.1229779720306396	70463939.77793437
2.12619948387146	70537361.87258565
2.1294167041778564	70690734.04125403
2.132629156112671	70886875.82974078
2.1358368396759033	71018308.05473611
2.139039993286133	71077291.57013184
2.1422386169433594	71138280.77430375
2.145432472229004	71166958.302658
2.1486217975616455	71178087.28584257
2.151806354522705	71318723.65831578
2.1549863815307617	71461089.9651535
2.1581614017486572	71593064.16560587
2.16133189201355	71767648.88417397
2.1644976139068604	71856420.79639788
2.167658567428589	71913325.8423472
2.1708147525787354	71939975.05674642
2.173966407775879	71935370.03971799
2.1771130561828613	72031984.17103416
2.1802549362182617	72177489.08706452
2.183391809463501	72183770.15695027
2.1865241527557373	72165549.15967058
2.1896514892578125	72297362.69419439
2.1927738189697266	72384920.17195371
2.1958916187286377	72309480.00549899
2.1990041732788086	72180506.82532395
2.2021119594573975	72197694.40117659
2.2052149772644043	72451540.5707544
2.208312749862671	72724899.9612025
2.2114057540893555	72848937.04493634
2.214493751525879	72799647.51336831
2.217576742172241	72365344.03694437
2.2206547260284424	71761530.83903158
2.2237277030944824	71740141.08845359
2.2267956733703613	72021299.0683904
2.2298583984375	72173104.37247461
2.2329163551330566	72288724.03907928
2.235969066619873	72250600.4462309
2.2390167713165283	72377032.1890054
2.2420592308044434	72505353.49061407
2.2450966835021973	72405809.80961576
2.248128890991211	72562460.20404804
2.2511560916900635	72610909.30731805
2.254178285598755	72166294.67624877
2.257194995880127	72113283.72488612
2.260206699371338	72617157.00529629
2.2632133960723877	72737430.05161458
2.266214609146118	72452977.00214675
2.2692108154296875	72235153.34647246
2.2722020149230957	72518534.53545514
2.2751877307891846	73020038.03631672
2.278168201446533	72837226.87654121
2.2811436653137207	72497583.71045516
2.284113883972168	72506875.1392902
2.287078857421875	72397621.65803292
2.290038824081421	71696330.83298042
2.2929933071136475	68771430.45931494
2.295942783355713	66199842.34849594
2.298887014389038	67046743.03794922
2.301826238632202	67236052.6494547
2.304760217666626	65429146.5456765
2.3076889514923096	66078203.138914645
2.310612440109253	68915763.96629225
2.3135311603546143	69561909.73500787
2.3164443969726562	68600130.93921573
2.319352865219116	67603559.20624389
2.322256088256836	65320499.111441836
2.3251543045043945	63694022.86648318
2.328047275543213	64999120.53540839
2.330935478210449	66861509.03060352
2.3338186740875244	67333596.81946033
2.3366971015930176	66879295.53616184
2.3395702838897705	67268868.68773584
2.3424389362335205	67971207.90540013
2.3453025817871094	66884575.81114001
2.348161458969116	65980171.57563896
2.351015567779541	64870989.749987945
2.353865146636963	64137850.74325651
2.3567099571228027	65690104.68547161
2.3595502376556396	66286265.302672505
2.3623859882354736	66011808.33619268
2.3652172088623047	66051970.62803737
2.368043899536133	65122065.78274087
2.370866537094116	64625691.72910591
2.3736846446990967	65476620.9177122
2.3764986991882324	65367245.63784874
2.3793084621429443	64237797.34404289
2.3821144104003906	64401492.65792169
2.384916305541992	65303710.936537586
2.387714147567749	66184265.23938325
2.3905084133148193	66053482.14491344
2.393299102783203	64123221.68361695
2.3960859775543213	64389262.0639933
2.398869514465332	65961207.73522858
2.4016497135162354	65059679.657340914
2.4044265747070312	64890556.28458428
2.407200336456299	66138720.66451282
2.409970998764038	66467670.32756219
2.4127390384674072	66084467.79362473
2.415503978729248	65311586.15480545
2.418266534805298	64311221.77695919
2.4210267066955566	63967533.92168768
2.4237842559814453	64488537.96917451
2.426539897918701	64815154.52154824
2.429293394088745	64159317.00574503
2.4320452213287354	61637325.709756576
2.4347951412200928	57449369.217515215
2.4375438690185547	57078765.2195061
2.440291166305542	59961857.15383718
2.443037271499634	59225445.35006894
2.445782423019409	58125185.25134652
2.4485268592834473	59965749.674661934
2.451270818710327	58797026.77335948
2.454014539718628	55414653.1172423
2.4567582607269287	56818666.87446625
2.4595019817352295	57590839.16623204
2.4622461795806885	57367265.45031467
2.4649908542633057	57495308.399375215
2.4677364826202393	53353764.214187205
2.4704833030700684	50521967.518345185
2.473231554031372	48285948.24172235
2.4759814739227295	48149340.97639259
2.4787333011627197	51479698.43012717
2.481487512588501	51203804.05024312
2.4842441082000732	51530829.80031655
2.4870035648345947	51612380.30780313
