#wavelength	surface flux
0.6450077295303345	73.039860259044
0.6472567915916443	111.56019480492081
0.6494921445846558	137.6945039129722
0.6517150402069092	148.32694691547
0.6539263725280762	158.6187139545185
0.6561272740364075	169.49317232304108
0.6583186388015747	181.00748927938326
0.6605015397071838	193.1942348839014
0.6626768708229065	206.03059789134423
0.6648455858230591	219.5684722434577
0.6670085787773132	233.8281803831946
0.6691668033599854	248.6002943995712
0.6713210344314575	264.21428258810084
0.6734722256660461	281.29251228772574
0.6756211519241333	299.3682431749222
0.6777685880661011	318.09820093798913
0.6799154281616211	337.7952131658313
0.6820623278617859	358.5388637245979
0.6842101216316223	380.36524840971714
0.6863595843315125	403.2670139822684
0.688511312007904	427.2480991960013
0.6906660795211792	452.48488579213625
0.6928245425224304	479.37690310160025
0.6949873566627502	508.2313821711094
0.6971551775932312	538.6021997282761
0.6993286609649658	570.4425892692235
0.7015084028244019	604.499050461211
0.7036949396133423	640.545030521152
0.7058889269828796	678.1200372847064
0.7080909013748169	717.4395118516221
0.710301399230957	759.0102829029319
0.712520956993103	802.94515923693
0.7147500514984131	848.4301789122783
0.7169892191886902	896.0575795800006
0.7192389369010925	948.2277924091834
0.7214996814727783	1003.9872243800504
0.723771870136261	1062.0166556403026
0.7260559797286987	1123.2754683056748
0.7283523678779602	1187.3225435678796
0.7306615710258484	1254.4978670501398
0.7329838871955872	1325.313216418721
0.7353196740150452	1399.284042676748
0.7376693487167358	1478.5210444286388
0.7400332689285278	1563.1616272911763
0.7424117922782898	1651.807538260806
0.7448052167892456	1745.9925257418006
0.7472138404846191	1846.8258209319804
0.7496379613876343	1953.9829244634584
0.7520779371261597	2066.6538545335047
0.7545340061187744	2185.2571268582583
0.7570064663887024	2310.0983391502473
0.7594954967498779	2440.69241463103
0.7620013952255249	2566.1095182108324
0.7645244002342224	2641.8854772953587
0.7670646905899048	2697.314388550731
0.7696225643157959	2848.5679753227937
0.7721980810165405	3108.384768952306
0.7747915983200073	3373.517451888055
0.7774031162261963	3589.1288973497476
0.7800329327583313	3789.338999956236
0.7826811671257019	4006.8338388539896
0.7853479981422424	4239.334182650651
0.7880334854125977	4479.4136347695585
0.7907378077507019	4729.0214612973805
0.7934610247612	4986.332264008907
0.7962033748626709	5264.762579684811
0.7989648580551147	5571.857434213879
0.801745593547821	5892.946035262141
0.8045456409454346	6226.752619690943
0.8073651194572449	6575.2831776260155
0.8102040886878967	6935.017708842273
0.8130625486373901	7315.991948709065
0.8159406185150146	7727.696453736205
0.8188382983207703	8164.879150466795
0.8217556476593018	8622.14435887781
0.8246926665306091	9106.155351979034
0.8276493549346924	9625.650146125305
0.8306257724761963	10173.69817353731
0.8336219191551208	10748.482249898478
0.8366377949714661	11351.497514739052
0.8396733403205872	11983.861617398215
0.8427285552024841	12650.750604727045
0.8458034992218018	13350.115503917086
0.8488980531692505	14092.443735016419
0.8520121574401855	14879.815079416932
0.8551458716392517	15704.035339848842
0.8582990765571594	16568.92114147105
0.8614717125892639	17476.00784711331
0.8646637797355652	18430.511002080773
0.8678751587867737	19441.753876555606
0.8711057901382446	20509.874430923184
0.8743556141853333	21633.665521875086
0.87762451171875	22816.040940652823
0.8809124231338501	24055.619249173185
0.8842192888259888	25354.009365319023
0.8875449895858765	26697.873573455825
0.8908893465995789	28054.00909048624
0.894252359867096	29412.561950327672
0.8976338505744934	30825.911025663067
0.9010337591171265	32526.834845968795
0.9044519662857056	34490.06833678621
0.9078882932662964	36419.973813864155
0.9113426208496094	38318.815103311375
0.914814829826355	40252.23219334273
0.9183048605918884	42274.40595437134
0.9218124747276306	44398.137268186045
0.925337553024292	46143.36607800397
0.9288799166679382	47081.59406337104
0.9324395060539246	47443.439068752974
0.9360161423683167	49106.53493628069
0.9396095871925354	53817.557653580305
0.943219780921936	58567.65052190391
0.9468464851379395	60752.457632301026
0.9504896402359009	63028.42784084785
0.9541489481925964	66659.04332712837
0.9578243494033813	70248.77602065331
0.9615156054496765	73937.64716179117
0.9652225375175476	78687.28933383898
0.9689450263977051	83688.73504101079
0.9726828336715698	87953.97768137328
0.9764357805252075	92273.2860996856
0.9802037477493286	97124.5551096501
0.983986496925354	102101.46511592178
0.9877838492393494	107074.3410736893
0.9915955662727356	112359.60985840874
0.9954215884208679	117957.56877122981
0.9992615580558777	123595.28699042603
1.0031154155731201	129293.05136446939
1.0069829225540161	135208.90448330058
1.0108637809753418	141386.75464135216
1.0147579908370972	147804.39738040246
1.018665075302124	154465.62733098984
1.022585153579712	161373.24385193485
1.0265177488327026	168538.54008787748
1.0304628610610962	175959.0670005589
1.0344202518463135	183654.22670115216
1.0383895635604858	191639.72764321175
1.0423706769943237	199906.57597460086
1.0463634729385376	208454.28052983203
1.0503677129745483	217304.0570311687
1.0543830394744873	226471.50453965578
1.058409333229065	236025.3037604811
1.0624464750289917	246194.12062829165
1.0664942264556885	256787.1655910129
1.0705522298812866	267487.87797136395
1.0746204853057861	278413.445821512
1.0786986351013184	289676.2395807222
1.0827864408493042	301342.158949926
1.086883783340454	313148.90234284004
1.0909905433654785	324592.0115420188
1.0951062440872192	334705.65131997084
1.0992310047149658	343438.66934353503
1.10336434841156	354935.5101044619
1.1075061559677124	370508.32129817834
1.1116561889648438	379423.7948225378
1.115814208984375	375694.2485286158
1.1199802160263062	372983.70601512655
1.124153733253479	385394.3885848061
1.1283347606658936	414044.71581579285
1.1325229406356812	440009.4149191234
1.1367181539535522	458137.55651480576
1.1409201622009277	477260.28446663695
1.145128846168518	488044.7660865429
1.1493438482284546	500769.87697132665
1.1535650491714478	527742.7630382681
1.1577922105789185	550898.6249994999
1.1620250940322876	565672.5485159673
1.1662636995315552	586620.0848115354
1.170507550239563	611162.7378539788
1.174756646156311	637914.1361131322
1.1790107488632202	669351.7382101353
1.1832695007324219	697450.119772966
1.1875330209732056	724890.7201244732
1.191800832748413	754209.2099696317
1.1960728168487549	779362.4352357076
1.2003488540649414	803704.7695454084
1.2046287059783936	831810.6378407266
1.2089121341705322	859786.8696954899
1.2131990194320679	886028.1803428857
1.2174891233444214	914087.0881506793
1.2217823266983032	943821.9627191313
1.2260783910751343	973064.0554780834
1.230377197265625	1002731.166020694
1.2346785068511963	1033993.1567420028
1.238982081413269	1065967.9717635752
1.2432878017425537	1097816.5644144558
1.2475954294204712	1129851.3117252123
1.2519049644470215	1162026.1181119822
1.256216049194336	1195311.972329636
1.2605286836624146	1230160.6451337808
1.2648425102233887	1265074.3482198745
1.2691574096679688	1299406.1647515188
1.2734732627868652	1334525.9981468346
1.2777899503707886	1370870.1722192282
1.2821072340011597	1406811.4829365183
1.2864248752593994	1442697.0112594522
1.2907428741455078	1475679.6447210629
1.2950609922409058	1506538.373344145
1.2993791103363037	1546946.9484018204
1.303696870803833	1594651.702864903
1.3080145120620728	1638328.4557441624
1.3123314380645752	1676698.2885244805
1.3166478872299194	1710161.948218863
1.3209635019302368	1736943.627234653
1.3252781629562378	1770980.8454944242
1.3295916318893433	1798214.432569196
1.3339040279388428	1756050.6999947526
1.3382149934768677	1669059.4949288187
1.3425244092941284	1622090.4071955832
1.3468321561813354	1602408.9425681923
1.3511382341384888	1535109.7930007123
1.3554422855377197	1479653.1911853896
1.3597444295883179	1506234.8074575262
1.3640443086624146	1547957.7636271883
1.3683418035507202	1609872.5158609496
1.3726370334625244	1707203.986090214
1.3769296407699585	1842302.5460019256
1.381219506263733	1962106.3630751532
1.3855066299438477	1965970.0221015948
1.3897908926010132	1930859.4149057798
1.3940720558166504	1928278.1543239132
1.3983501195907593	1956483.3266751664
1.4026249647140503	1978435.6408801114
1.4068963527679443	2021837.601098132
1.4111642837524414	2120498.609240195
1.4154287576675415	2089100.488770288
1.419689416885376	1952899.7087300178
1.4239463806152344	1920983.0636327371
1.4281994104385376	2039287.3489594457
1.4324485063552856	2279098.872380057
1.436693549156189	2431526.8413611343
1.440934419631958	2479168.0790654216
1.4451709985733032	2599499.2875937806
1.449403166770935	2726875.625102199
1.453631043434143	2832629.3717004056
1.4578542709350586	2979981.4391837926
1.4620729684829712	3028940.946369128
1.4662868976593018	3000121.2630591653
1.4704961776733398	3085288.404132259
1.4747005701065063	3218187.9640204567
1.4788999557495117	3356590.6669092416
1.4830944538116455	3468285.1839593323
1.4872838258743286	3507100.6793335374
1.491468071937561	3545255.8796408908
1.4956470727920532	3620588.414139683
1.4998208284378052	3715787.916645723
1.5039892196655273	3875097.8621142404
1.5081522464752197	4041523.7923131483
1.5123097896575928	4149500.6553170662
1.5164618492126465	4255551.579780823
1.5206083059310913	4360303.328062447
1.5247491598129272	4433108.72913895
1.5288842916488647	4480290.741252431
1.5330137014389038	4576771.847715421
1.5371372699737549	4720001.704268586
1.541254997253418	4835882.608375293
1.545366883277893	4921083.603657493
1.5494728088378906	5002274.028614503
1.5535727739334106	5082156.506571779
1.5576666593551636	5156379.292823153
1.561754584312439	5231406.554756411
1.5658363103866577	5317855.758006519
1.5699119567871094	5402751.387443532
1.5739814043045044	5484255.001140118
1.5780447721481323	5574024.089255751
1.582101821899414	5660905.938925591
1.5861525535583496	5742169.002793046
1.5901970863342285	5823263.972801735
1.5942351818084717	5905227.552782856
1.5982669591903687	5986873.9644986605
1.6022924184799194	6066574.641320775
1.606311559677124	6146107.518082372
1.6103241443634033	6226186.946553113
1.6143304109573364	6306981.202996815
1.6183301210403442	6372460.060803256
1.6223233938217163	6368164.354592457
1.6263102293014526	6309366.002793905
1.6302905082702637	6268722.770265707
1.634264349937439	6307860.180991394
1.638231635093689	6537563.371785827
1.6421923637390137	6789723.925313974
1.646146535873413	6881242.0181257995
1.6500942707061768	6932420.135933923
1.6540353298187256	6965957.785706553
1.6579699516296387	7011257.510310445
1.661897897720337	6971778.156849773
1.6658192873001099	6692431.558803562
1.6697341203689575	6762483.129920243
1.6736423969268799	7199206.563512411
1.677544116973877	7339244.108857789
1.6814392805099487	7376445.375715712
1.6853278875350952	7523641.82310211
1.6892099380493164	7593193.632849741
1.6930854320526123	7582964.28676151
1.696954369544983	7569442.34974161
1.7008168697357178	7520075.427028924
1.7046726942062378	7547666.105244449
1.708522081375122	7802772.48792313
1.712364912033081	8126141.727815535
1.7162011861801147	8299622.162580234
1.7200311422348022	8332843.1552447835
1.723854422569275	8213681.4167919755
1.7276713848114014	8007263.507939351
1.731481909751892	7946035.079837663
1.7352858781814575	8088465.762074383
1.7390835285186768	8279155.28023943
1.7428747415542603	8416676.103484701
1.7466596364974976	8579280.401036963
1.7504380941390991	8677012.156629775
1.7542102336883545	8619467.072698586
1.7579760551452637	8614322.332162984
1.7617355585098267	8657857.662262918
1.7654887437820435	8553874.171369718
1.7692357301712036	8423753.980612239
1.7729763984680176	8469832.865384765
1.776710867881775	8577789.926579
1.7804391384124756	8608931.034796268
1.7841613292694092	8590601.378455484
1.7878772020339966	8311896.921783094
1.7915871143341064	7869969.878311408
1.7952908277511597	7836830.938832031
1.7989884614944458	7957706.418758526
1.8026801347732544	8060908.329595963
1.806365728378296	8007069.030285178
1.8100452423095703	7868005.290854862
1.8137187957763672	8268716.212703492
1.817386507987976	8728365.991583059
1.8210482597351074	8993643.94342174
1.8247040510177612	9247950.171607625
1.828354001045227	9180005.447443044
1.8319982290267944	9228390.977489324
1.8356364965438843	9590561.908377042
1.8392690420150757	9501374.48393771
1.8428958654403687	9013061.184986647
1.8465168476104736	8585035.08885602
1.8501322269439697	8758312.328009916
1.8537418842315674	9026997.78593252
1.8573459386825562	8713635.747247582
1.860944390296936	8315247.799497876
1.864537239074707	8129816.816152114
1.8681244850158691	8268480.408217643
1.871706247329712	8498922.606685134
1.8752825260162354	8819261.885814812
1.8788533210754395	9329448.946397565
1.8824186325073242	9638134.4972639
1.8859784603118896	9895473.719024653
1.8895330429077148	10323830.874863116
1.8930821418762207	10569413.814367365
1.8966259956359863	10693841.15508019
1.9001644849777222	10664226.416289255
1.9036977291107178	10752179.230373334
1.9072256088256836	11045552.132419381
1.9107483625411987	10949024.40584372
1.9142658710479736	10966352.861958077
1.9177782535552979	11072960.4996306
1.9212853908538818	10577323.487351282
1.9247875213623047	10494358.341295825
1.9282845258712769	10988779.981730305
1.9317764043807983	10925580.1636308
1.9352631568908691	10567211.949244387
1.9387450218200684	10073952.076838005
1.942221760749817	9540267.667713225
1.9456936120986938	9384619.543677798
1.9491604566574097	9712184.706345713
1.952622413635254	10020977.837940434
1.956079363822937	9502782.392274318
1.959531545639038	9303882.241355488
1.962978720664978	10573861.606702568
1.966421127319336	11892560.406667726
1.9698586463928223	12240625.61792719
1.9732913970947266	12201535.36938444
1.9767193794250488	12232436.409444964
1.9801424741744995	12674923.910654278
1.9835609197616577	13087834.013133354
1.9869745969772339	12833274.87565535
1.990383505821228	12448137.61304979
1.9937876462936401	12760865.622239877
1.9971871376037598	13014525.194178475
2.000581979751587	12602585.46888148
2.003972291946411	12617080.198117025
2.007357597351074	13412398.026520167
2.0107386112213135	14226911.00582974
2.0141148567199707	14378326.332294574
2.017486572265625	14279797.346079962
2.0208535194396973	14644823.322582448
2.0242159366607666	14872047.41100212
2.027573823928833	14474517.241573881
2.0309269428253174	14286957.07649736
2.034275770187378	14678296.391023172
2.0376198291778564	14953777.639857674
2.040959596633911	15002401.685875187
2.044294595718384	15349379.097083312
2.0476250648498535	15679168.05690126
2.0509510040283203	15801200.993401518
2.054272413253784	16024227.387607737
2.057589530944824	16212963.074512232
2.0609018802642822	16306836.523080738
2.0642096996307373	16394767.772182276
2.0675129890441895	16519860.56291349
2.0708119869232178	16675326.827231841
2.074106216430664	16849745.4988931
2.0773961544036865	16894859.525739588
2.080681324005127	16796068.81736785
2.0839622020721436	16836931.143383835
2.087238311767578	16995884.70782555
2.090510129928589	17182504.123745263
2.0937774181365967	17392199.588512152
2.0970399379730225	17502807.069203343
2.1002981662750244	17565744.26391781
2.1035518646240234	17660849.1613025
2.1068007946014404	17742148.464930613
2.1100454330444336	17750476.444564894
2.1132853031158447	17751791.07664496
2.116520881652832	17848619.156840183
2.1197516918182373	18003946.876547556
2.1229779720306396	18109745.960587237
2.12619948387146	18165055.185802743
2.1294167041778564	18256964.91877015
2.132629156112671	18372920.68168922
2.1358368396759033	18455792.977173015
2.139039993286133	18513193.36538194
2.1422386169433594	18570805.94546005
2.145432472229004	18604568.742825262
2.1486217975616455	18609194.965591762
2.151806354522705	18619220.51657965
2.1549863815307617	18622249.64273392
2.1581614017486572	18708705.2922548
2.16133189201355	18844957.05109095
2.1644976139068604	18957845.257786132
2.167658567428589	19067076.47679614
2.1708147525787354	19112903.05221151
2.173966407775879	19137257.40824042
2.1771130561828613	19235087.607780628
2.1802549362182617	19343959.47192152
2.183391809463501	19365410.07711344
2.1865241527557373	19400665.69572448
2.1896514892578125	19501551.43499813
2.1927738189697266	19566253.46272881
2.1958916187286377	19331871.70798566
2.1990041732788086	18637843.470432717
2.2021119594573975	18241615.73449265
2.2052149772644043	18747240.30864277
2.208312749862671	19521560.13752691
2.2114057540893555	19916221.34837125
2.214493751525879	19898779.27655807
2.217576742172241	19252903.69953276
2.2206547260284424	18070157.234407827
2.2237277030944824	17514124.45939148
2.2267956733703613	17595376.743702393
2.2298583984375	17674780.814041153
2.2329163551330566	17891011.0959242
2.235969066619873	18128521.600695457
2.2390167713165283	18518551.912229214
2.2420592308044434	18331020.824640412
2.2450966835021973	17349677.220556326
2.248128890991211	17120660.286075633
2.2511560916900635	17367551.719036557
2.254178285598755	17246425.903094154
2.257194995880127	17799085.221051615
2.260206699371338	19060963.232987348
2.2632133960723877	19637190.526285466
2.266214609146118	19121739.27867459
2.2692108154296875	18580796.779771104
2.2722020149230957	18836813.176335037
2.2751877307891846	18966951.994773466
2.278168201446533	18524252.10669537
2.2811436653137207	18027680.454875737
2.284113883972168	17470457.01650117
2.287078857421875	16954427.827169027
2.290038824081421	16539090.576998623
2.2929933071136475	15745931.350743545
2.295942783355713	15253040.873064764
2.298887014389038	16030762.696747923
2.301826238632202	16927498.309376642
2.304760217666626	17220775.241706412
2.3076889514923096	18099464.7977432
2.310612440109253	19554519.22981182
2.3135311603546143	19378712.447629828
2.3164443969726562	16530883.927603269
2.319352865219116	14545542.676196167
2.322256088256836	15436994.18700942
2.3251543045043945	16665154.030476367
2.328047275543213	17520374.72797245
2.330935478210449	17979897.298972443
2.3338186740875244	17624908.22762576
2.3366971015930176	16519025.266509213
2.3395702838897705	15566109.201167108
2.3424389362335205	15788504.620515272
2.3453025817871094	15879003.600163661
2.348161458969116	15360068.311647225
2.351015567779541	14694464.881982386
2.353865146636963	15059796.459813133
2.3567099571228027	17017954.855498526
2.3595502376556396	18427893.35528887
2.3623859882354736	18908864.726540092
2.3652172088623047	19087000.803429633
2.368043899536133	17181728.974721447
2.370866537094116	13893962.001692275
2.3736846446990967	13063146.577155506
2.3764986991882324	14373271.559804859
2.3793084621429443	15857237.543560714
2.3821144104003906	17090051.292438176
2.384916305541992	17723615.11746248
2.387714147567749	18513032.835346207
2.3905084133148193	18835871.793562472
2.393299102783203	17736325.73972374
2.3960859775543213	17346716.618015897
2.398869514465332	17662606.155807026
2.4016497135162354	16628481.380487459
2.4044265747070312	15765088.608188506
2.407200336456299	16638968.563842865
2.409970998764038	17623432.140196074
2.4127390384674072	17942713.962870967
2.415503978729248	17597265.137044933
2.418266534805298	16672154.167722678
2.4210267066955566	16342018.722211836
2.4237842559814453	16403101.348304298
2.426539897918701	16283529.35718282
2.429293394088745	17077684.29527528
2.4320452213287354	17633522.509237498
2.4347951412200928	15623286.740654992
2.4375438690185547	14947420.520346876
2.440291166305542	16895005.6198627
2.443037271499634	17128582.207747895
2.445782423019409	16893841.796497706
2.4485268592834473	17669767.29561869
2.451270818710327	17359776.25244412
2.454014539718628	16952691.331448026
2.4567582607269287	17582248.992859878
2.4595019817352295	17813402.742734052
2.4622461795806885	18129808.034907714
2.4649908542633057	18448407.981737588
2.4677364826202393	17292635.326710828
2.4704833030700684	16461236.199999908
2.473231554031372	15971812.46906316
2.4759814739227295	16111934.281701108
2.4787333011627197	17300810.36453462
