#wavelength	surface flux
0.6450077295303345	60143.26059475569
0.6472567915916443	89752.20119463884
0.6494921445846558	106697.90700756032
0.6517150402069092	111158.79432143978
0.6539263725280762	115447.38604189314
0.6561272740364075	118260.7760241858
0.6583186388015747	121942.17102019962
0.6605015397071838	128525.66623364283
0.6626768708229065	134601.58050774297
0.6648455858230591	139058.3279455098
0.6670085787773132	142953.04726394222
0.6691668033599854	144708.35741237196
0.6713210344314575	146644.05188814134
0.6734722256660461	153264.12940581518
0.6756211519241333	159912.80441062961
0.6777685880661011	162600.0271513678
0.6799154281616211	164331.1881113598
0.6820623278617859	164895.09487236783
0.6842101216316223	163482.29191686498
0.6863595843315125	158820.1525832371
0.688511312007904	151024.09476089277
0.6906660795211792	151233.06214318235
0.6928245425224304	162660.30302131985
0.6949873566627502	175793.9949429815
0.6971551775932312	185245.6321533291
0.6993286609649658	192958.91824627251
0.7015084028244019	206428.2255466612
0.7036949396133423	225969.36134150418
0.7058889269828796	242507.64505370826
0.7080909013748169	252363.89874471986
0.710301399230957	259815.47368815687
0.712520956993103	267469.92843743134
0.7147500514984131	275250.2884924123
0.7169892191886902	283673.19731057226
0.7192389369010925	292797.8725723743
0.7214996814727783	302129.1761948586
0.723771870136261	311831.8012502387
0.7260559797286987	321750.6432468374
0.7283523678779602	331660.59753253043
0.7306615710258484	339694.56447892316
0.7329838871955872	335326.3785955315
0.7353196740150452	319558.3516603371
0.7376693487167358	308639.4890739719
0.7400332689285278	300321.5325245156
0.7424117922782898	293271.05834808655
0.7448052167892456	294513.9055861814
0.7472138404846191	308521.6447340424
0.7496379613876343	333553.9402708068
0.7520779371261597	359165.8015863005
0.7545340061187744	385953.95828621724
0.7570064663887024	410686.1665121903
0.7594954967498779	422282.35575043474
0.7620013952255249	397629.8977664989
0.7645244002342224	298125.58967173565
0.7670646905899048	182318.11130240536
0.7696225643157959	178575.7048219649
0.7721980810165405	310231.84821210493
0.7747915983200073	464109.78326625563
0.7774031162261963	537616.2394050007
0.7800329327583313	556705.6985791337
0.7826811671257019	586843.411933597
0.7853479981422424	623345.500397894
0.7880334854125977	644332.2285373001
0.7907378077507019	652027.3153934182
0.7934610247612	643548.0540384437
0.7962033748626709	647721.5517357374
0.7989648580551147	676025.5404993404
0.801745593547821	703566.1739037457
0.8045456409454346	729806.5156393112
0.8073651194572449	762850.256000941
0.8102040886878967	800703.7021950561
0.8130625486373901	837160.4037837251
0.8159406185150146	869461.3487934758
0.8188382983207703	898469.9767420512
0.8217556476593018	925754.9288503157
0.8246926665306091	953343.8437866415
0.8276493549346924	981141.4865902804
0.8306257724761963	1009105.9517679521
0.8336219191551208	1038210.9959687997
0.8366377949714661	1068322.3824787983
0.8396733403205872	1098815.3118401198
0.8427285552024841	1128983.9640304407
0.8458034992218018	1158682.1184963838
0.8488980531692505	1187214.1854106907
0.8520121574401855	1205798.7497879618
0.8551458716392517	1217680.1268988058
0.8582990765571594	1231533.933305163
0.8614717125892639	1246304.7366093074
0.8646637797355652	1264887.9036103287
0.8678751587867737	1293452.8728493438
0.8711057901382446	1343026.170240743
0.8743556141853333	1407382.1440192796
0.87762451171875	1472443.6652759062
0.8809124231338501	1534868.0718633437
0.8842192888259888	1592633.765261024
0.8875449895858765	1647230.9802421234
0.8908893465995789	1697914.7910618305
0.894252359867096	1745795.197228407
0.8976338505744934	1795190.2062975497
0.9010337591171265	1847669.782807908
0.9044519662857056	1901777.0685588864
0.9078882932662964	1956477.6341449807
0.9113426208496094	2012254.2939414904
0.914814829826355	2067246.4920164063
0.9183048605918884	2120873.231575706
0.9218124747276306	2172740.8992578443
0.925337553024292	2215994.3826844855
0.9288799166679382	2250776.121336903
0.9324395060539246	2287769.201643965
0.9360161423683167	2343808.7673395984
0.9396095871925354	2432435.0218684217
0.943219780921936	2521030.194321183
0.9468464851379395	2581294.203283629
0.9504896402359009	2640043.265113551
0.9541489481925964	2710107.6464258647
0.9578243494033813	2779513.4717780286
0.9615156054496765	2850796.949309259
0.9652225375175476	2934836.5293152803
0.9689450263977051	3022520.8096288727
0.9726828336715698	3101225.4370242795
0.9764357805252075	3178848.449252548
0.9802037477493286	3261025.64603832
0.983986496925354	3342886.79676982
0.9877838492393494	3420249.191465548
0.9915955662727356	3497792.582291817
0.9954215884208679	3583547.6840792596
0.9992615580558777	3674114.55269338
1.0031154155731201	3763826.623407665
1.0069829225540161	3855305.311006899
1.0108637809753418	3950106.210322031
1.0147579908370972	4045768.0288711404
1.018665075302124	4141852.8112923806
1.022585153579712	4239636.533201022
1.0265177488327026	4338781.81631172
1.0304628610610962	4440399.966930647
1.0344202518463135	4544965.914335047
1.0383895635604858	4651229.820312611
1.0423706769943237	4757491.422814027
1.0463634729385376	4861827.9884282015
1.0503677129745483	4965973.805161972
1.0543830394744873	5073711.00973358
1.058409333229065	5187495.032923129
1.0624464750289917	5309137.421626281
1.0664942264556885	5432949.577364578
1.0705522298812866	5554400.9825688675
1.0746204853057861	5678040.523528083
1.0786986351013184	5804812.39779758
1.0827864408493042	5930584.582080397
1.086883783340454	6051852.6130801765
1.0909905433654785	6167566.229767141
1.0951062440872192	6271380.381416817
1.0992310047149658	6366426.535595156
1.10336434841156	6482934.571377635
1.1075061559677124	6623330.01350577
1.1116561889648438	6723886.278246563
1.115814208984375	6765069.850882802
1.1199802160263062	6815008.126294203
1.124153733253479	6946079.230375532
1.1283347606658936	7163499.4357182495
1.1325229406356812	7345993.368809367
1.1367181539535522	7483010.437118162
1.1409201622009277	7644383.644115584
1.145128846168518	7773994.469118299
1.1493438482284546	7908394.616625322
1.1535650491714478	8100671.726349968
1.1577922105789185	8265078.197702426
1.1620250940322876	8383947.086094885
1.1662636995315552	8532545.033807445
1.170507550239563	8693931.088299872
1.174756646156311	8850338.017444916
1.1790107488632202	9040935.48181958
1.1832695007324219	9239936.843173686
1.1875330209732056	9427814.066966401
1.191800832748413	9619591.797557691
1.1960728168487549	9795660.914803809
1.2003488540649414	9962588.67744399
1.2046287059783936	10141029.592674414
1.2089121341705322	10317389.233318955
1.2131990194320679	10488403.161136987
1.2174891233444214	10662398.022060057
1.2217823266983032	10840510.436119521
1.2260783910751343	11018638.802409891
1.230377197265625	11195858.682651242
1.2346785068511963	11373633.98784599
1.238982081413269	11549811.659989724
1.2432878017425537	11726093.987546599
1.2475954294204712	11904643.969257854
1.2519049644470215	12081674.868285738
1.256216049194336	12262215.458671436
1.2605286836624146	12447922.412011212
1.2648425102233887	12632395.13894269
1.2691574096679688	12815749.071449922
1.2734732627868652	12999557.21444699
1.2777899503707886	13183320.897849815
1.2821072340011597	13363765.046145584
1.2864248752593994	13542486.790221086
1.2907428741455078	13713966.666025545
1.2950609922409058	13881193.086672097
1.2993791103363037	14072140.766153872
1.303696870803833	14280452.110743824
1.3080145120620728	14476299.31733327
1.3123314380645752	14656368.999312457
1.3166478872299194	14827014.576625986
1.3209635019302368	14981548.985501897
1.3252781629562378	15132971.589832747
1.3295916318893433	15202539.848598091
1.3339040279388428	14961123.974299004
1.3382149934768677	14572191.825234775
1.3425244092941284	14296187.059854545
1.3468321561813354	14087687.055586094
1.3511382341384888	13828578.61917934
1.3554422855377197	13712092.306363018
1.3597444295883179	14005736.835094461
1.3640443086624146	14380521.17704809
1.3683418035507202	14763189.445603147
1.3726370334625244	15328766.984582486
1.3769296407699585	15962313.597757353
1.381219506263733	16337743.845432442
1.3855066299438477	16177502.320312567
1.3897908926010132	15822343.936007025
1.3940720558166504	15767724.633141223
1.3983501195907593	16104741.937742548
1.4026249647140503	16364964.850373076
1.4068963527679443	16571784.41737708
1.4111642837524414	16899343.080499385
1.4154287576675415	16648820.569766138
1.419689416885376	16129051.595940411
1.4239463806152344	16144733.088053076
1.4281994104385376	16663881.114788057
1.4324485063552856	17609165.558889173
1.436693549156189	18220468.279452294
1.440934419631958	18349738.526590463
1.4451709985733032	18719719.586385023
1.449403166770935	19090011.016639307
1.453631043434143	19341506.876048017
1.4578542709350586	19773312.92218575
1.4620729684829712	20086444.21450573
1.4662868976593018	20195420.908721827
1.4704961776733398	20490125.303687893
1.4747005701065063	20862265.602424808
1.4788999557495117	21194502.89663342
1.4830944538116455	21446095.30834014
1.4872838258743286	21566777.048440207
1.491468071937561	21734989.488986652
1.4956470727920532	21989334.99753109
1.4998208284378052	22249951.80181063
1.5039892196655273	22616373.700987905
1.5081522464752197	22990125.441558603
1.5123097896575928	23269235.148860276
1.5164618492126465	23554782.224332917
1.5206083059310913	23830443.845883325
1.5247491598129272	24012490.309293095
1.5288842916488647	24116155.890931193
1.5330137014389038	24328011.251571544
1.5371372699737549	24658891.975448914
1.541254997253418	24943018.39267932
1.545366883277893	25156343.657932956
1.5494728088378906	25360819.173010964
1.5535727739334106	25562239.209238473
1.5576666593551636	25739794.319420483
1.561754584312439	25919013.311886027
1.5658363103866577	26131926.72573481
1.5699119567871094	26335072.964818336
1.5739814043045044	26522625.540684685
1.5780447721481323	26729017.51253282
1.582101821899414	26934737.881443206
1.5861525535583496	27130979.009754922
1.5901970863342285	27320521.866174143
1.5942351818084717	27505202.292955793
1.5982669591903687	27688709.06008081
1.6022924184799194	27867538.67440858
1.606311559677124	28039929.639252268
1.6103241443634033	28210855.530953377
1.6143304109573364	28387398.585264668
1.6183301210403442	28564680.12546459
1.6223233938217163	28727403.070243627
1.6263102293014526	28875939.19682327
1.6302905082702637	29018785.90814411
1.634264349937439	29167457.947575096
1.638231635093689	29357902.50374989
1.6421923637390137	29555998.730738964
1.646146535873413	29733610.967958756
1.6500942707061768	29916128.73079212
1.6540353298187256	30083351.83510794
1.6579699516296387	30234670.99819095
1.661897897720337	30367039.008642007
1.6658192873001099	30474824.073968932
1.6697341203689575	30636012.696417842
1.6736423969268799	30835622.145227943
1.677544116973877	30989587.6280675
1.6814392805099487	31145102.670399476
1.6853278875350952	31330498.183878392
1.6892099380493164	31499491.92982001
1.6930854320526123	31632406.04314134
1.696954369544983	31757363.712474413
1.7008168697357178	31896036.91091406
1.7046726942062378	32036887.260150738
1.708522081375122	32195881.449795984
1.712364912033081	32361248.477848638
1.7162011861801147	32481771.337848336
1.7200311422348022	32568355.48801307
1.723854422569275	32597664.030538544
1.7276713848114014	32516823.518740814
1.731481909751892	32435902.382301286
1.7352858781814575	32447276.6348291
1.7390835285186768	32547071.82910935
1.7428747415542603	32746890.67018959
1.7466596364974976	33096156.975643802
1.7504380941390991	33266590.704632644
1.7542102336883545	33086417.271408748
1.7579760551452637	33102391.379555628
1.7617355585098267	33202772.725144856
1.7654887437820435	32819541.043565903
1.7692357301712036	32418635.88918555
1.7729763984680176	32468696.589359924
1.776710867881775	32662814.069034636
1.7804391384124756	32847085.936077923
1.7841613292694092	32913875.225768916
1.7878772020339966	32218257.86264549
1.7915871143341064	31267062.582321327
1.7952908277511597	31073955.997924466
1.7989884614944458	30718721.879540797
1.8026801347732544	30448605.761950165
1.806365728378296	30320450.31125672
1.8100452423095703	30245856.702971976
1.8137187957763672	31125148.155321583
1.817386507987976	31923069.264499117
1.8210482597351074	32535214.51574282
1.8247040510177612	32962119.766809814
1.828354001045227	32684454.532122623
1.8319982290267944	33191719.83356397
1.8356364965438843	34237633.98250414
1.8392690420150757	33968170.44902144
1.8428958654403687	32862762.88834969
1.8465168476104736	32095338.639570683
1.8501322269439697	32339299.575112876
1.8537418842315674	32332892.394991614
1.8573459386825562	31278203.075339366
1.860944390296936	30726570.109566066
1.864537239074707	31097681.0537311
1.8681244850158691	31435226.555245124
1.871706247329712	31418926.105537422
1.8752825260162354	32128079.804900393
1.8788533210754395	33668267.590785734
1.8824186325073242	34302232.874618776
1.8859784603118896	34438757.018262826
1.8895330429077148	35382650.19196015
1.8930821418762207	36021681.361044765
1.8966259956359863	35855710.142977744
1.9001644849777222	35254925.897179715
1.9036977291107178	35288360.6649922
1.9072256088256836	35874343.43961007
1.9107483625411987	35709662.862210706
1.9142658710479736	35891728.57802758
1.9177782535552979	35721284.40564862
1.9212853908538818	34337960.280851565
1.9247875213623047	34454086.84035266
1.9282845258712769	35871954.69988464
1.9317764043807983	36228391.34848098
1.9352631568908691	35703659.24940548
1.9387450218200684	34718608.137022935
1.942221760749817	33468633.314094376
1.9456936120986938	32733119.986864097
1.9491604566574097	33285724.876875624
1.952622413635254	34080620.625940025
1.956079363822937	33422543.05597681
1.959531545639038	33235939.51185002
1.962978720664978	35337927.79854254
1.966421127319336	37356208.660507895
1.9698586463928223	37573683.4143695
1.9732913970947266	37045160.829221815
1.9767193794250488	37000436.7959681
1.9801424741744995	37859626.03371048
1.9835609197616577	38512573.670225255
1.9869745969772339	37960677.86366684
1.990383505821228	37214604.835824445
1.9937876462936401	37858349.39569047
1.9971871376037598	38455024.15930844
2.000581979751587	37938264.010576956
2.003972291946411	38096371.4309903
2.007357597351074	39042119.33922512
2.0107386112213135	39836210.11790249
2.0141148567199707	40037656.38968746
2.017486572265625	40024570.77055358
2.0208535194396973	40419475.99909335
2.0242159366607666	40531913.55014482
2.027573823928833	39931385.44184241
2.0309269428253174	39714786.22283674
2.034275770187378	40318431.452467754
2.0376198291778564	40747690.732841685
2.040959596633911	40766092.36588532
2.044294595718384	41051874.79044174
2.0476250648498535	41466123.12887452
2.0509510040283203	41673769.4917299
2.054272413253784	41858683.06573487
2.057589530944824	42032153.21227387
2.0609018802642822	42109690.69051344
2.0642096996307373	42188480.77009061
2.0675129890441895	42378021.50971806
2.0708119869232178	42564018.79382678
2.074106216430664	42680920.88422665
2.0773961544036865	42685833.051351756
2.080681324005127	42603384.9290262
2.0839622020721436	42652191.11704012
2.087238311767578	42832343.280183405
2.090510129928589	43008218.50281051
2.0937774181365967	43145943.53734425
2.0970399379730225	43219362.7655692
2.1002981662750244	43278250.38743937
2.1035518646240234	43354577.95533296
2.1068007946014404	43418894.81754302
2.1100454330444336	43443253.72468354
2.1132853031158447	43470575.50759052
2.116520881652832	43550679.0203699
2.1197516918182373	43654581.08326625
2.1229779720306396	43721649.33413045
2.12619948387146	43763149.194167234
2.1294167041778564	43829808.50280303
2.132629156112671	43910297.64350513
2.1358368396759033	43971411.15250086
2.139039993286133	44010264.39163984
2.1422386169433594	44051225.250492126
2.145432472229004	44082781.96991894
2.1486217975616455	44108287.268706426
2.151806354522705	44161498.82424612
2.1549863815307617	44213091.50857385
2.1581614017486572	44275653.92610046
2.16133189201355	44351177.06805447
2.1644976139068604	44396320.58100446
2.167658567428589	44432059.305311255
2.1708147525787354	44460756.55704002
2.173966407775879	44481296.856987
2.1771130561828613	44533155.43045843
2.1802549362182617	44594082.826829456
2.183391809463501	44618876.01654543
2.1865241527557373	44645931.29422832
2.1896514892578125	44703393.81366825
2.1927738189697266	44747882.79876876
2.1958916187286377	44753139.472813345
2.1990041732788086	44742192.43584366
2.2021119594573975	44771520.5739556
2.2052149772644043	44850952.99902698
2.208312749862671	44926206.473465376
2.2114057540893555	44974021.687680535
2.214493751525879	44977019.98629378
2.217576742172241	44871679.38817592
2.2206547260284424	44729686.06621428
2.2237277030944824	44753410.378571
2.2267956733703613	44861713.06946884
2.2298583984375	44923173.03213617
2.2329163551330566	44955046.095349565
2.235969066619873	44960570.18426376
2.2390167713165283	45031783.05857433
2.2420592308044434	45092101.92491256
2.2450966835021973	45076180.46197565
2.248128890991211	45134959.564309716
2.2511560916900635	45170513.22178576
2.254178285598755	45051470.341006614
2.257194995880127	45028138.38829563
2.260206699371338	45167623.10912009
2.2632133960723877	45221110.9130837
2.266214609146118	45188949.155166626
2.2692108154296875	45140504.349282674
2.2722020149230957	45209927.56602906
2.2751877307891846	45368172.600297734
2.278168201446533	45335012.46612017
2.2811436653137207	45272244.67832262
2.284113883972168	45295357.61476975
2.287078857421875	45254037.012671456
2.290038824081421	45045128.41565781
2.2929933071136475	44057897.913710155
2.295942783355713	43136348.630012356
2.298887014389038	43337077.78268634
2.301826238632202	43093859.879423186
2.304760217666626	42087388.95988648
2.3076889514923096	42673042.708861336
2.310612440109253	44359366.072824694
2.3135311603546143	44488686.332901426
2.3164443969726562	43920878.28123509
2.319352865219116	43537392.232602954
2.322256088256836	42367765.62448108
2.3251543045043945	41439588.38930618
2.328047275543213	42026874.204223976
2.330935478210449	43101896.0110245
2.3338186740875244	43620367.160937294
2.3366971015930176	43484356.4472321
2.3395702838897705	43653106.42479016
2.3424389362335205	44105314.106572144
2.3453025817871094	43617947.621193625
2.348161458969116	43222247.15825453
2.351015567779541	42824288.96497127
2.353865146636963	42409459.07992856
2.3567099571228027	42918307.104445934
2.3595502376556396	43202850.11132364
2.3623859882354736	43317101.67013525
2.3652172088623047	43388809.68690788
2.368043899536133	42863533.725321166
2.370866537094116	42802019.75725509
2.3736846446990967	43367680.02975719
2.3764986991882324	43194110.47641338
2.3793084621429443	42250777.67414357
2.3821144104003906	42241907.63204039
2.384916305541992	43141541.37739891
2.387714147567749	43689008.89597557
2.3905084133148193	43225555.13522927
2.393299102783203	42157739.048645176
2.3960859775543213	42636810.49114297
2.398869514465332	43630126.78870352
2.4016497135162354	43158829.9673416
2.4044265747070312	42997890.27750544
2.407200336456299	43549617.40907607
2.409970998764038	43793553.87454885
2.4127390384674072	43630956.79582674
2.415503978729248	43480652.888165124
2.418266534805298	43711339.25697492
2.4210267066955566	43769142.11631961
2.4237842559814453	43683148.33160225
2.426539897918701	43626304.80349913
2.429293394088745	43142670.92031273
2.4320452213287354	42049256.538401775
2.4347951412200928	40384498.481453404
2.4375438690185547	40275278.58022434
2.440291166305542	41645841.98174663
2.443037271499634	41374468.134595565
2.445782423019409	40947371.653830454
2.4485268592834473	42000992.50933191
2.451270818710327	41840928.385232724
2.454014539718628	40440939.45124821
2.4567582607269287	40551009.01856842
2.4595019817352295	40662834.81623793
2.4622461795806885	40583493.66443405
2.4649908542633057	40272302.10377706
2.4677364826202393	38302507.00440959
2.4704833030700684	37519193.51129511
2.473231554031372	36573909.618759416
2.4759814739227295	36381366.1397915
2.4787333011627197	38508274.202759385
