#wavelength	surface flux
0.6450077295303345	13004.221219085874
0.6472567915916443	19720.967809620928
0.6494921445846558	24010.80075317344
0.6517150402069092	25420.52723194451
0.6539263725280762	26686.870421139767
0.6561272740364075	27934.663109397625
0.6583186388015747	29280.756368723436
0.6605015397071838	30814.309945227804
0.6626768708229065	32376.92242126112
0.6648455858230591	33922.99163041102
0.6670085787773132	35478.94621864602
0.6691668033599854	36883.935497862425
0.6713210344314575	38370.70389232563
0.6734722256660461	40352.9656943838
0.6756211519241333	42429.34335135273
0.6777685880661011	44310.396389971625
0.6799154281616211	46224.55995957111
0.6820623278617859	48189.898404412794
0.6842101216316223	50183.07888859604
0.6863595843315125	52139.846262502855
0.688511312007904	54013.40327984692
0.6906660795211792	56083.63122526243
0.6928245425224304	58565.81802645905
0.6949873566627502	61266.9039508963
0.6971551775932312	63829.729498146335
0.6993286609649658	66445.76548069963
0.7015084028244019	69619.42879954661
0.7036949396133423	72999.4943993625
0.7058889269828796	76190.53451049334
0.7080909013748169	79323.7475981447
0.710301399230957	82532.70494832196
0.712520956993103	85883.50454075806
0.7147500514984131	89298.07868702091
0.7169892191886902	92801.5940766537
0.7192389369010925	96516.15293539826
0.7214996814727783	100422.63665623928
0.723771870136261	104474.49410578051
0.7260559797286987	108626.58224946963
0.7283523678779602	112853.03392918225
0.7306615710258484	117165.79534730023
0.7329838871955872	121399.459226853
0.7353196740150452	125591.59116087394
0.7376693487167358	129997.34490098905
0.7400332689285278	134482.64492023317
0.7424117922782898	139039.80023200522
0.7448052167892456	143796.7032154744
0.7472138404846191	148807.00410094293
0.7496379613876343	153826.2148982205
0.7520779371261597	158141.58670668106
0.7545340061187744	161015.3803962083
0.7570064663887024	160681.12383192035
0.7594954967498779	152320.67545643557
0.7620013952255249	125705.72145574575
0.7645244002342224	78166.4577874876
0.7670646905899048	37842.23092705007
0.7696225643157959	36683.79652753326
0.7721980810165405	82232.07873046471
0.7747915983200073	149226.90337592925
0.7774031162261963	193101.7563601
0.7800329327583313	210270.4410100683
0.7826811671257019	233164.18611333636
0.7853479981422424	260522.3705827858
0.7880334854125977	277592.1422466567
0.7907378077507019	287494.4992300955
0.7934610247612	288884.55027835397
0.7962033748626709	297374.41539386264
0.7989648580551147	321534.1612252956
0.801745593547821	342750.9018287377
0.8045456409454346	357324.9665355836
0.8073651194572449	371825.3023276725
0.8102040886878967	386552.4205525392
0.8130625486373901	401682.0803734894
0.8159406185150146	417629.9484427206
0.8188382983207703	434223.78981794097
0.8217556476593018	450995.6980070502
0.8246926665306091	468367.55267020833
0.8276493549346924	486690.1696176458
0.8306257724761963	505583.33814897964
0.8336219191551208	525064.4808504571
0.8366377949714661	545192.2273362988
0.8396733403205872	565943.5244533895
0.8427285552024841	587452.9364917189
0.8458034992218018	609646.3787155496
0.8488980531692505	632575.1779103795
0.8520121574401855	656065.445681053
0.8551458716392517	680074.2996305448
0.8582990765571594	704209.6650988901
0.8614717125892639	727593.3300362189
0.8646637797355652	752576.4603517264
0.8678751587867737	781093.4373648902
0.8711057901382446	811357.6420078308
0.8743556141853333	842580.4913680361
0.87762451171875	874772.9667015631
0.8809124231338501	907582.9017494656
0.8842192888259888	941216.5366919321
0.8875449895858765	975484.7808004194
0.8908893465995789	1009637.1678179125
0.894252359867096	1043959.1858653137
0.8976338505744934	1079779.6761106336
0.9010337591171265	1119464.4664300184
0.9044519662857056	1161960.4928326942
0.9078882932662964	1203796.8162516784
0.9113426208496094	1245411.1753434597
0.914814829826355	1287779.3908981076
0.9183048605918884	1331539.0361981855
0.9218124747276306	1375815.3311196456
0.925337553024292	1410994.1624744826
0.9288799166679382	1432406.6150597355
0.9324395060539246	1453914.0145195646
0.9360161423683167	1501288.1797200262
0.9396095871925354	1583056.0446327734
0.943219780921936	1659910.8017814807
0.9468464851379395	1707909.807533122
0.9504896402359009	1755827.3678385685
0.9541489481925964	1816453.2730882133
0.9578243494033813	1877668.547380784
0.9615156054496765	1941180.6246724909
0.9652225375175476	2015346.7599515326
0.9689450263977051	2092232.0292149896
0.9726828336715698	2163029.906818591
0.9764357805252075	2233630.176851269
0.9802037477493286	2308818.4744863147
0.983986496925354	2386109.9722179226
0.9877838492393494	2463179.501933476
0.9915955662727356	2542906.810943417
0.9954215884208679	2625116.8473262745
0.9992615580558777	2706372.9826345025
1.0031154155731201	2788256.744843494
1.0069829225540161	2872901.4588230224
1.0108637809753418	2959874.842601726
1.0147579908370972	3048970.6270101485
1.018665075302124	3139907.081730656
1.022585153579712	3232320.5983409076
1.0265177488327026	3326535.959150896
1.0304628610610962	3422472.94994221
1.0344202518463135	3520251.86421874
1.0383895635604858	3620117.0283180317
1.0423706769943237	3721933.884620972
1.0463634729385376	3825342.82769016
1.0503677129745483	3930689.6316073416
1.0543830394744873	4038717.1589788706
1.058409333229065	4149840.4903276796
1.0624464750289917	4265027.128439725
1.0664942264556885	4382588.727827488
1.0705522298812866	4500578.786354034
1.0746204853057861	4619811.059774551
1.0786986351013184	4741065.415626738
1.0827864408493042	4863956.566504469
1.086883783340454	4985007.551272852
1.0909905433654785	5099062.096567601
1.0951062440872192	5198647.815178195
1.0992310047149658	5283124.144351755
1.10336434841156	5373797.449527495
1.1075061559677124	5477503.923097973
1.1116561889648438	5545541.420171302
1.115814208984375	5558393.597429392
1.1199802160263062	5579242.77937498
1.124153733253479	5712312.08338348
1.1283347606658936	5968066.523412368
1.1325229406356812	6157734.431220421
1.1367181539535522	6311761.393370524
1.1409201622009277	6528228.097807689
1.145128846168518	6661285.88099471
1.1493438482284546	6754057.153559673
1.1535650491714478	6921598.022887399
1.1577922105789185	7096626.074673249
1.1620250940322876	7255622.155083721
1.1662636995315552	7445326.966996337
1.170507550239563	7635197.1144242
1.174756646156311	7840386.222725474
1.1790107488632202	8087871.649375267
1.1832695007324219	8315755.072596894
1.1875330209732056	8519077.181346472
1.191800832748413	8729611.100429453
1.1960728168487549	8931342.44924667
1.2003488540649414	9128202.027051007
1.2046287059783936	9333257.174651735
1.2089121341705322	9532439.235360192
1.2131990194320679	9723033.963452563
1.2174891233444214	9917458.331599368
1.2217823266983032	10117294.137353634
1.2260783910751343	10316198.576918198
1.230377197265625	10516113.997368466
1.2346785068511963	10721826.871728433
1.238982081413269	10929226.042392962
1.2432878017425537	11133892.099794235
1.2475954294204712	11338030.954309026
1.2519049644470215	11542160.86506156
1.256216049194336	11750245.898945611
1.2605286836624146	11961937.255077148
1.2648425102233887	12170818.398618558
1.2691574096679688	12376739.013174934
1.2734732627868652	12583302.993280418
1.2777899503707886	12790485.414036805
1.2821072340011597	12994569.943707284
1.2864248752593994	13199471.134013738
1.2907428741455078	13393009.22136212
1.2950609922409058	13578084.642395036
1.2993791103363037	13797514.125852954
1.303696870803833	14045049.819272164
1.3080145120620728	14278689.745002594
1.3123314380645752	14480020.930930456
1.3166478872299194	14663308.786612412
1.3209635019302368	14828945.509473663
1.3252781629562378	14959062.839278314
1.3295916318893433	14858517.805849245
1.3339040279388428	14090121.528253904
1.3382149934768677	12886802.135601057
1.3425244092941284	12012756.982292563
1.3468321561813354	11391852.695673335
1.3511382341384888	10708716.152157063
1.3554422855377197	10331594.717000151
1.3597444295883179	10457889.609281728
1.3640443086624146	10936328.01693792
1.3683418035507202	11801847.297912246
1.3726370334625244	12836038.930489695
1.3769296407699585	13661618.802292092
1.381219506263733	13874126.086452436
1.3855066299438477	13568708.83103597
1.3897908926010132	13170415.343788909
1.3940720558166504	12852164.311996894
1.3983501195907593	13031518.892401058
1.4026249647140503	13471255.796549015
1.4068963527679443	13772162.221902143
1.4111642837524414	14014104.581999915
1.4154287576675415	13757756.909543676
1.419689416885376	13143895.917197924
1.4239463806152344	13038552.823589928
1.4281994104385376	13666596.801285887
1.4324485063552856	14726218.199139569
1.436693549156189	15410034.304739436
1.440934419631958	15771057.617485039
1.4451709985733032	16344322.460387487
1.449403166770935	16953146.360081624
1.453631043434143	17767024.81591932
1.4578542709350586	18780614.265709456
1.4620729684829712	19229444.72184894
1.4662868976593018	19273642.15202686
1.4704961776733398	19681682.622872554
1.4747005701065063	20263864.243996136
1.4788999557495117	20798057.5476475
1.4830944538116455	21270220.662513036
1.4872838258743286	21598048.927818324
1.491468071937561	21880452.219432425
1.4956470727920532	22249792.54214824
1.4998208284378052	22656987.34507893
1.5039892196655273	23213410.959838685
1.5081522464752197	23854979.633105762
1.5123097896575928	24385143.21470065
1.5164618492126465	24882866.034078725
1.5206083059310913	25363154.148833003
1.5247491598129272	25700370.741756808
1.5288842916488647	25901887.830152333
1.5330137014389038	26244352.8815979
1.5371372699737549	26727989.95586426
1.541254997253418	27120113.581718862
1.545366883277893	27444216.462022584
1.5494728088378906	27777558.296624616
1.5535727739334106	28087882.212072674
1.5576666593551636	28375430.87130598
1.561754584312439	28663527.685356643
1.5658363103866577	28950415.02213915
1.5699119567871094	29217801.688953336
1.5739814043045044	29484965.087032866
1.5780447721481323	29780889.657045577
1.582101821899414	30068698.894838765
1.5861525535583496	30328107.104712296
1.5901970863342285	30584527.64168634
1.5942351818084717	30844601.086664483
1.5982669591903687	31101264.111456368
1.6022924184799194	31350030.249616243
1.606311559677124	31588931.666914877
1.6103241443634033	31816511.986993663
1.6143304109573364	32043645.24686161
1.6183301210403442	32250348.24851131
1.6223233938217163	32286643.30013066
1.6263102293014526	32137635.11638495
1.6302905082702637	31996211.547480166
1.634264349937439	32053997.280083302
1.638231635093689	32659799.849517487
1.6421923637390137	33394059.24543386
1.646146535873413	33713261.09857869
1.6500942707061768	33900329.8276851
1.6540353298187256	34032024.01085827
1.6579699516296387	34182516.98715317
1.661897897720337	34081291.75834953
1.6658192873001099	33375565.151610985
1.6697341203689575	33544028.892697476
1.6736423969268799	34655550.594361365
1.677544116973877	35109343.48127834
1.6814392805099487	35276341.01656931
1.6853278875350952	35610296.79944711
1.6892099380493164	35770291.35329072
1.6930854320526123	35777684.83232132
1.696954369544983	35783740.83847043
1.7008168697357178	35786988.02303283
1.7046726942062378	35956789.3851705
1.708522081375122	36425603.99551382
1.712364912033081	36955284.564672336
1.7162011861801147	37206937.54188141
1.7200311422348022	37207118.18994909
1.723854422569275	36995397.6009145
1.7276713848114014	36602155.57537632
1.731481909751892	36381936.13686378
1.7352858781814575	36361497.70206799
1.7390835285186768	36275465.84087719
1.7428747415542603	36257277.790019125
1.7466596364974976	36441595.461718485
1.7504380941390991	36277449.31393526
1.7542102336883545	35527116.43358476
1.7579760551452637	34944759.244600706
1.7617355585098267	34766563.147539936
1.7654887437820435	34033653.31756846
1.7692357301712036	33010339.317269415
1.7729763984680176	32637639.847621128
1.776710867881775	32357066.266683
1.7804391384124756	31747463.627136346
1.7841613292694092	30722203.217385657
1.7878772020339966	29505657.120763753
1.7915871143341064	28568140.34260644
1.7952908277511597	28226571.84880241
1.7989884614944458	27606753.498336516
1.8026801347732544	26673755.79061306
1.806365728378296	26179016.12881575
1.8100452423095703	26244220.669463646
1.8137187957763672	27568522.835363574
1.817386507987976	28208766.903779503
1.8210482597351074	28091229.869894408
1.8247040510177612	29149761.78664845
1.828354001045227	29320559.655419957
1.8319982290267944	29070511.94933746
1.8356364965438843	29155013.447670396
1.8392690420150757	28276630.134958528
1.8428958654403687	27487350.799872994
1.8465168476104736	26501423.005323105
1.8501322269439697	26200354.425193455
1.8537418842315674	26087624.583707165
1.8573459386825562	24553736.65516118
1.860944390296936	23454234.99534393
1.864537239074707	23456848.189701635
1.8681244850158691	23946842.587017912
1.871706247329712	24774508.170498524
1.8752825260162354	26783706.151796915
1.8788533210754395	29705134.177543618
1.8824186325073242	31516438.243126895
1.8859784603118896	32340008.417414278
1.8895330429077148	33472250.031257574
1.8930821418762207	34692214.20223901
1.8966259956359863	34963175.73014799
1.9001644849777222	34198153.480421595
1.9036977291107178	34077246.868611425
1.9072256088256836	34837464.5630973
1.9107483625411987	34550903.978035234
1.9142658710479736	34096693.0365335
1.9177782535552979	34161701.14614452
1.9212853908538818	32796720.707951263
1.9247875213623047	32259802.140967563
1.9282845258712769	32935170.27543305
1.9317764043807983	32085464.22337854
1.9352631568908691	30389410.531188022
1.9387450218200684	28220313.274982814
1.942221760749817	27614747.32807884
1.9456936120986938	28911228.73519749
1.9491604566574097	30090293.66237355
1.952622413635254	30075943.385096423
1.956079363822937	28381103.02836008
1.959531545639038	28198514.38030027
1.962978720664978	30928622.646809988
1.966421127319336	33681356.081814565
1.9698586463928223	33966275.65169205
1.9732913970947266	33293948.824338254
1.9767193794250488	34138812.14999962
1.9801424741744995	35589550.92658994
1.9835609197616577	37015992.916334614
1.9869745969772339	37070367.81827683
1.990383505821228	35677616.13902821
1.9937876462936401	36844990.66958722
1.9971871376037598	38359168.822842725
2.000581979751587	38384258.13735836
2.003972291946411	39647814.66681476
2.007357597351074	40856529.5315317
2.0107386112213135	41869391.758989066
2.0141148567199707	42951017.62913455
2.017486572265625	43217949.92320635
2.0208535194396973	44298127.2636177
2.0242159366607666	45548208.23745813
2.027573823928833	45101961.926644474
2.0309269428253174	45163919.20609842
2.034275770187378	46533624.807620585
2.0376198291778564	47167461.928735696
2.040959596633911	47084282.64433862
2.044294595718384	47669765.880580425
2.0476250648498535	48473010.02438307
2.0509510040283203	48779500.80089771
2.054272413253784	49277063.020815186
2.057589530944824	50047145.00770466
2.0609018802642822	50261318.49376588
2.0642096996307373	50192441.53961567
2.0675129890441895	50663197.20709921
2.0708119869232178	51274283.89962943
2.074106216430664	51615272.34911044
2.0773961544036865	51525661.072013915
2.080681324005127	51245608.1745556
2.0839622020721436	51420968.021431506
2.087238311767578	51947555.57965879
2.090510129928589	52468516.54754722
2.0937774181365967	52816534.12170576
2.0970399379730225	52927687.33441465
2.1002981662750244	53002711.48539009
2.1035518646240234	53153137.84523346
2.1068007946014404	53303897.55586951
2.1100454330444336	53288133.78100552
2.1132853031158447	53251331.63173714
2.116520881652832	53437246.663158946
2.1197516918182373	53735685.1745489
2.1229779720306396	53883690.819562845
2.12619948387146	53907427.42458325
2.1294167041778564	54041057.997242
2.132629156112671	54235327.08368347
2.1358368396759033	54351648.45305896
2.139039993286133	54385709.966701776
2.1422386169433594	54412470.68900242
2.145432472229004	54386809.632622205
2.1486217975616455	54324227.765175894
2.151806354522705	54369389.86966605
2.1549863815307617	54408661.715185754
2.1581614017486572	54552180.99155872
2.16133189201355	54786308.43480759
2.1644976139068604	54897059.28908943
2.167658567428589	54969771.10520686
2.1708147525787354	54973993.67276662
2.173966407775879	54934265.05866863
2.1771130561828613	55028026.99822084
2.1802549362182617	55179979.72023735
2.183391809463501	55153587.73604001
2.1865241527557373	55118744.80914794
2.1896514892578125	55261318.44875031
2.1927738189697266	55325363.4809447
2.1958916187286377	54964745.286931664
2.1990041732788086	54073717.77709357
2.2021119594573975	53571574.46846642
2.2052149772644043	54232359.43912913
2.208312749862671	55208748.29988937
2.2114057540893555	55627515.58746414
2.214493751525879	55451737.935635656
2.217576742172241	54410056.25311741
2.2206547260284424	52814587.39354881
2.2237277030944824	52158315.5516081
2.2267956733703613	52081701.90959563
2.2298583984375	51776829.09743399
2.2329163551330566	51847045.27934441
2.235969066619873	52171738.11980692
2.2390167713165283	52704389.93100392
2.2420592308044434	52512358.39593487
2.2450966835021973	51373636.541144036
2.248128890991211	51274664.18211194
2.2511560916900635	51565283.0856516
2.254178285598755	50912865.351015136
2.257194995880127	51274307.21833861
2.260206699371338	52904927.1865404
2.2632133960723877	53310040.38682388
2.266214609146118	52515798.29470827
2.2692108154296875	52294103.95225749
2.2722020149230957	53129753.439856045
2.2751877307891846	53631576.6205252
2.278168201446533	52823463.72098477
2.2811436653137207	51817087.15906316
2.284113883972168	51190466.98156053
2.287078857421875	50626354.85732369
2.290038824081421	49984666.31896989
2.2929933071136475	48537569.837940864
2.295942783355713	47717318.18431615
2.298887014389038	49025732.560813606
2.301826238632202	50098411.89227081
2.304760217666626	49932471.01174428
2.3076889514923096	50951003.03228017
2.310612440109253	53123489.21631686
2.3135311603546143	52466169.77333567
2.3164443969726562	48097507.64501777
2.319352865219116	45493623.27867113
2.322256088256836	46590531.37961744
2.3251543045043945	48265665.177135944
2.328047275543213	49745318.27253567
2.330935478210449	50479717.1815942
2.3338186740875244	49655155.107240915
2.3366971015930176	47667794.83976899
2.3395702838897705	46435732.76938385
2.3424389362335205	46231297.59217178
2.3453025817871094	44967849.94589544
2.348161458969116	43956343.457196034
2.351015567779541	43516028.68168571
2.353865146636963	44375310.86104135
2.3567099571228027	47389088.74262043
2.3595502376556396	49385624.43225905
2.3623859882354736	50361931.33616373
2.3652172088623047	50840922.01276425
2.368043899536133	47325769.57527248
2.370866537094116	41885894.352542475
2.3736846446990967	41449787.556487605
2.3764986991882324	43744315.9031787
2.3793084621429443	45049439.602286704
2.3821144104003906	46276205.82476574
2.384916305541992	46994937.88231214
2.387714147567749	47796334.928229295
2.3905084133148193	48202033.642369896
2.393299102783203	46688045.67393974
2.3960859775543213	45325914.02401408
2.398869514465332	45505923.06286621
2.4016497135162354	45282425.50977766
2.4044265747070312	44611333.76087786
2.407200336456299	44740781.14811192
2.409970998764038	45197638.40890373
2.4127390384674072	45523958.81385747
2.415503978729248	44371387.39359542
2.418266534805298	42132505.38943403
2.4210267066955566	42369305.72969754
2.4237842559814453	44280801.69299327
2.426539897918701	44536693.12154926
2.429293394088745	44261542.592898995
2.4320452213287354	43191636.75515992
2.4347951412200928	38988568.30055619
2.4375438690185547	37902136.17454236
2.440291166305542	40642698.29931847
2.443037271499634	39217522.67835337
2.445782423019409	36726448.90876788
2.4485268592834473	37599107.885345
2.451270818710327	36056578.026759245
2.454014539718628	33474857.351817694
2.4567582607269287	36357861.429443605
2.4595019817352295	37154416.97601065
2.4622461795806885	36403795.97235851
2.4649908542633057	36623892.90584459
2.4677364826202393	31877114.550349016
2.4704833030700684	28120222.020388793
2.473231554031372	26784525.03042335
2.4759814739227295	26941634.6585744
2.4787333011627197	29128010.250275455
2.481487512588501	29687345.016954713
