#wavelength	surface flux
0.6450077295303345	755.3810490669042
0.6472567915916443	1154.0344896309853
0.6494921445846558	1424.4982623947496
0.6517150402069092	1533.6204299162023
0.6539263725280762	1638.25165813349
0.6561272740364075	1748.1720287248152
0.6583186388015747	1864.566794917854
0.6605015397071838	1988.3172461294175
0.6626768708229065	2118.290461846961
0.6648455858230591	2254.411097510062
0.6670085787773132	2396.7524283190187
0.6691668033599854	2542.3433867856666
0.6713210344314575	2696.7163796871905
0.6734722256660461	2868.2608310358833
0.6756211519241333	3048.449025713837
0.6777685880661011	3231.7376799384247
0.6799154281616211	3424.6543214739
0.6820623278617859	3629.2060020443923
0.6842101216316223	3844.605018376283
0.6863595843315125	4070.068136912969
0.688511312007904	4304.722379057618
0.6906660795211792	4548.2609329329125
0.6928245425224304	4805.203090080461
0.6949873566627502	5082.767582848999
0.6971551775932312	5371.215919923586
0.6993286609649658	5671.439289595741
0.7015084028244019	6001.099116356689
0.7036949396133423	6349.756897240322
0.7058889269828796	6706.511872655436
0.7080909013748169	7075.951659787625
0.710301399230957	7464.879641950605
0.712520956993103	7875.734566985048
0.7147500514984131	8292.245971340424
0.7169892191886902	8719.794124078158
0.7192389369010925	9197.736881302635
0.7214996814727783	9719.632214141908
0.723771870136261	10256.914479920124
0.7260559797286987	10811.160434851665
0.7283523678779602	11384.145771421232
0.7306615710258484	11983.281356899137
0.7329838871955872	12616.156498297067
0.7353196740150452	13277.199140901412
0.7376693487167358	13971.230016048657
0.7400332689285278	14693.239540013516
0.7424117922782898	15437.916742532336
0.7448052167892456	16207.781969951893
0.7472138404846191	16993.30649922021
0.7496379613876343	17771.162122652233
0.7520779371261597	18487.949351373092
0.7545340061187744	19054.27296870443
0.7570064663887024	19260.17309702474
0.7594954967498779	18567.656257311894
0.7620013952255249	15931.608851547207
0.7645244002342224	11221.311651695816
0.7670646905899048	7365.984141854241
0.7696225643157959	7527.524617747795
0.7721980810165405	12620.993338395454
0.7747915983200073	20351.87122522694
0.7774031162261963	25897.012989837545
0.7800329327583313	28585.606950420988
0.7826811671257019	32090.70388118638
0.7853479981422424	36199.57997735646
0.7880334854125977	39076.47784979202
0.7907378077507019	41075.544948422525
0.7934610247612	41969.06898024852
0.7962033748626709	43887.60129446737
0.7989648580551147	48026.90412170224
0.801745593547821	51827.78860376944
0.8045456409454346	54761.95273001999
0.8073651194572449	57702.2833183334
0.8102040886878967	60639.26091010368
0.8130625486373901	63677.684718284836
0.8159406185150146	67078.08730481671
0.8188382983207703	70784.59706368027
0.8217556476593018	74501.41310356092
0.8246926665306091	78428.8416988257
0.8276493549346924	82732.78100946112
0.8306257724761963	87170.61797975402
0.8336219191551208	91799.35685995212
0.8366377949714661	96684.47376003585
0.8396733403205872	101786.73573304167
0.8427285552024841	107168.39496490516
0.8458034992218018	112789.30478745863
0.8488980531692505	118676.24044626231
0.8520121574401855	124868.46785415748
0.8551458716392517	131314.2691404092
0.8582990765571594	137770.2761022727
0.8614717125892639	143916.39392935848
0.8646637797355652	150677.83523238305
0.8678751587867737	158731.39487491813
0.8711057901382446	167222.54274221833
0.8743556141853333	175924.32464112295
0.87762451171875	185043.25991854788
0.8809124231338501	194506.78945894394
0.8842192888259888	204379.33211938635
0.8875449895858765	214474.64124930918
0.8908893465995789	224345.4981455104
0.894252359867096	233916.65178845183
0.8976338505744934	244070.8807193557
0.9010337591171265	256804.67330557003
0.9044519662857056	271404.75607921067
0.9078882932662964	285120.3163777824
0.9113426208496094	298272.92708189634
0.914814829826355	311862.6824887167
0.9183048605918884	326221.18979562283
0.9218124747276306	340778.6881574021
0.925337553024292	348880.4528604951
0.9288799166679382	345520.0227413843
0.9324395060539246	341115.1745857968
0.9360161423683167	356656.4584568222
0.9396095871925354	395618.0798027366
0.943219780921936	428553.0253989066
0.9468464851379395	441459.8227957251
0.9504896402359009	455724.5199054518
0.9541489481925964	479459.80442298873
0.9578243494033813	503376.5128952944
0.9615156054496765	529064.0057585104
0.9652225375175476	562196.7368849721
0.9689450263977051	596873.9580450784
0.9726828336715698	626684.9874166176
0.9764357805252075	655634.7287230896
0.9802037477493286	688422.9664532027
0.983986496925354	723603.9913190866
0.9877838492393494	758319.1398655896
0.9915955662727356	793573.0304747048
0.9954215884208679	830004.9086843114
0.9992615580558777	866009.3788507803
1.0031154155731201	901972.2075582726
1.0069829225540161	939024.7400419991
1.0108637809753418	977298.1586200612
1.0147579908370972	1016635.6625521993
1.018665075302124	1057091.7160585783
1.022585153579712	1098671.3753760988
1.0265177488327026	1141311.673308956
1.0304628610610962	1185037.2639500196
1.0344202518463135	1230095.0095519524
1.0383895635604858	1276580.6395065053
1.0423706769943237	1324334.041465904
1.0463634729385376	1373328.5129312782
1.0503677129745483	1423802.655124483
1.0543830394744873	1475635.5128259577
1.058409333229065	1529176.3498449589
1.0624464750289917	1585998.4078934635
1.0664942264556885	1644615.4807055027
1.0705522298812866	1702991.742357805
1.0746204853057861	1762440.7471084683
1.0786986351013184	1823753.03939865
1.0827864408493042	1886150.0375616264
1.086883783340454	1946628.542012594
1.0909905433654785	2000657.408419565
1.0951062440872192	2042242.3876452965
1.0992310047149658	2065608.8796592061
1.10336434841156	2078362.6302797752
1.1075061559677124	2088566.0868278092
1.1116561889648438	2074824.7643793605
1.115814208984375	2029606.7736417165
1.1199802160263062	2006860.2514877203
1.124153733253479	2086895.361619
1.1283347606658936	2252696.184301067
1.1325229406356812	2346763.9660136206
1.1367181539535522	2443461.356138282
1.1409201622009277	2610966.54822518
1.145128846168518	2674703.9589463216
1.1493438482284546	2678321.080945791
1.1535650491714478	2739131.094875746
1.1577922105789185	2841561.6152795916
1.1620250940322876	2968089.0091340165
1.1662636995315552	3109174.8023114726
1.170507550239563	3239790.6056271773
1.174756646156311	3389833.367170065
1.1790107488632202	3577667.7628563866
1.1832695007324219	3750726.3321904982
1.1875330209732056	3897497.773563525
1.191800832748413	4040218.885464066
1.1960728168487549	4173420.5330772432
1.2003488540649414	4303080.072259373
1.2046287059783936	4439758.319885516
1.2089121341705322	4569598.7729615
1.2131990194320679	4690309.019910665
1.2174891233444214	4818752.506723529
1.2217823266983032	4953186.755149621
1.2260783910751343	5084535.802577125
1.230377197265625	5218105.63919362
1.2346785068511963	5357990.988990962
1.238982081413269	5499373.019248509
1.2432878017425537	5637871.178790474
1.2475954294204712	5775652.443467714
1.2519049644470215	5913831.225061901
1.256216049194336	6055428.607183437
1.2605286836624146	6200653.097611664
1.2648425102233887	6343478.856456771
1.2691574096679688	6481603.248655623
1.2734732627868652	6618752.0579023585
1.2777899503707886	6755707.635341249
1.2821072340011597	6888925.161845283
1.2864248752593994	7022137.719518211
1.2907428741455078	7140629.3811483355
1.2950609922409058	7249251.655011524
1.2993791103363037	7393145.826724281
1.303696870803833	7568603.468781948
1.3080145120620728	7737210.043642676
1.3123314380645752	7864399.666325571
1.3166478872299194	7964890.79013581
1.3209635019302368	8051198.641342673
1.3252781629562378	8076959.4158863695
1.3295916318893433	7811173.6767326
1.3339040279388428	6870198.250566432
1.3382149934768677	5462325.938776592
1.3425244092941284	4400414.773748485
1.3468321561813354	3742226.156217561
1.3511382341384888	3096329.3392815036
1.3554422855377197	2672279.5428487007
1.3597444295883179	2619598.478063753
1.3640443086624146	2876009.0179120013
1.3683418035507202	3390741.636235092
1.3726370334625244	4047354.1624240093
1.3769296407699585	4675113.892389102
1.381219506263733	4749984.527776083
1.3855066299438477	4415229.1179761095
1.3897908926010132	4215178.034619774
1.3940720558166504	4037433.5950027383
1.3983501195907593	4055531.173943555
1.4026249647140503	4316127.514034768
1.4068963527679443	4431703.329119358
1.4111642837524414	4489690.850714084
1.4154287576675415	4458510.873304457
1.419689416885376	4227726.554007106
1.4239463806152344	4262472.985349806
1.4281994104385376	4773344.470637536
1.4324485063552856	5337902.460685593
1.436693549156189	5646931.7888792185
1.440934419631958	5943466.255447941
1.4451709985733032	6423387.318456199
1.449403166770935	7153475.721200788
1.453631043434143	8174310.215433542
1.4578542709350586	9214720.014333444
1.4620729684829712	9574271.802415075
1.4662868976593018	9402471.30983489
1.4704961776733398	9545571.799509954
1.4747005701065063	10073319.608384905
1.4788999557495117	10686322.337566277
1.4830944538116455	11224045.222980365
1.4872838258743286	11632216.115357934
1.491468071937561	11960033.765983203
1.4956470727920532	12359529.98966827
1.4998208284378052	12830542.570563994
1.5039892196655273	13454722.353421161
1.5081522464752197	14191156.236828977
1.5123097896575928	14850076.956521561
1.5164618492126465	15429970.116274428
1.5206083059310913	15978755.963898007
1.5247491598129272	16416857.244696654
1.5288842916488647	16714146.517304685
1.5330137014389038	17119877.896312013
1.5371372699737549	17623778.30286403
1.541254997253418	18017907.322731264
1.545366883277893	18372267.606385596
1.5494728088378906	18727522.697700493
1.5535727739334106	19041780.34969357
1.5576666593551636	19348721.3156223
1.561754584312439	19659079.366698768
1.5658363103866577	19954393.141928364
1.5699119567871094	20220286.822897352
1.5739814043045044	20478709.592720125
1.5780447721481323	20768813.639539998
1.582101821899414	21059135.07013661
1.5861525535583496	21312487.991022166
1.5901970863342285	21555578.4473074
1.5942351818084717	21808566.238185
1.5982669591903687	22064810.78235616
1.6022924184799194	22310872.476812318
1.606311559677124	22538313.261241786
1.6103241443634033	22749779.452987794
1.6143304109573364	22951093.157655258
1.6183301210403442	23029220.716901697
1.6223233938217163	22690556.882830355
1.6263102293014526	22041062.04311577
1.6302905082702637	21561263.12447252
1.634264349937439	21719577.976566803
1.638231635093689	22760229.296557512
1.6421923637390137	23730715.66120787
1.646146535873413	23937964.037424825
1.6500942707061768	23993259.498389162
1.6540353298187256	24076564.45701913
1.6579699516296387	24234734.72176777
1.661897897720337	23935720.56913132
1.6658192873001099	22363599.353443734
1.6697341203689575	22343845.114298273
1.6736423969268799	24313321.92857791
1.677544116973877	25043915.437829044
1.6814392805099487	25036992.83986458
1.6853278875350952	25347711.347532693
1.6892099380493164	25373537.683778893
1.6930854320526123	25108240.133299045
1.696954369544983	24693739.913693067
1.7008168697357178	24082599.438185055
1.7046726942062378	24026677.83146395
1.708522081375122	25052668.83187804
1.712364912033081	26398697.501851287
1.7162011861801147	27067138.316495724
1.7200311422348022	26924958.826497395
1.723854422569275	26056766.945809234
1.7276713848114014	25020333.696306597
1.731481909751892	24724526.502844572
1.7352858781814575	24981334.11201178
1.7390835285186768	25015746.300075576
1.7428747415542603	24739387.846923266
1.7466596364974976	24468112.693589482
1.7504380941390991	23934930.502651904
1.7542102336883545	22828337.037659097
1.7579760551452637	21825585.493767794
1.7617355585098267	21350595.59356115
1.7654887437820435	20333442.696860645
1.7692357301712036	18900815.904901303
1.7729763984680176	18049551.70327129
1.776710867881775	17409889.83792857
1.7804391384124756	16764660.961763259
1.7841613292694092	15494597.18994462
1.7878772020339966	14247832.228499511
1.7915871143341064	13365051.581944669
1.7952908277511597	12923119.04872351
1.7989884614944458	12698755.149734909
1.8026801347732544	11545361.908958236
1.806365728378296	10977831.984289076
1.8100452423095703	11518093.967056472
1.8137187957763672	12287153.117076742
1.817386507987976	11998177.697191684
1.8210482597351074	12019267.019755557
1.8247040510177612	13543910.555131445
1.828354001045227	12986551.76384874
1.8319982290267944	11460255.335920155
1.8356364965438843	10882485.836601844
1.8392690420150757	10338519.985835506
1.8428958654403687	10529575.916695999
1.8465168476104736	10269157.127351318
1.8501322269439697	10101417.641381286
1.8537418842315674	10118178.429100562
1.8573459386825562	8874006.645287128
1.860944390296936	7779237.465943132
1.864537239074707	7386351.832269465
1.8681244850158691	7300786.544943475
1.871706247329712	8132401.457355728
1.8752825260162354	10359324.292397538
1.8788533210754395	13140199.847471278
1.8824186325073242	14881134.305491932
1.8859784603118896	15432197.840281002
1.8895330429077148	16143606.932031782
1.8930821418762207	17715501.038418654
1.8966259956359863	18475758.439100944
1.9001644849777222	17359803.08259661
1.9036977291107178	16720569.566902436
1.9072256088256836	17618314.055173192
1.9107483625411987	17619381.4897932
1.9142658710479736	17192019.282696933
1.9177782535552979	18182752.319815144
1.9212853908538818	17824984.463655002
1.9247875213623047	16327828.683084682
1.9282845258712769	15121185.749379305
1.9317764043807983	13548383.888858533
1.9352631568908691	12278233.527463408
1.9387450218200684	10907937.139205998
1.942221760749817	11086891.172483893
1.9456936120986938	12469887.646319333
1.9491604566574097	13309707.282324208
1.952622413635254	13647461.049652882
1.956079363822937	12769383.20239883
1.959531545639038	12494005.162595509
1.962978720664978	14141233.748979758
1.966421127319336	16494626.852848476
1.9698586463928223	17182735.065563016
1.9732913970947266	16675964.010549352
1.9767193794250488	17482654.421239384
1.9801424741744995	18686101.86992444
1.9835609197616577	20275220.371404123
1.9869745969772339	21071867.133703627
1.990383505821228	20012109.711834777
1.9937876462936401	21221507.09167667
1.9971871376037598	22924344.237614755
2.000581979751587	23393018.48846406
2.003972291946411	25153190.456387103
2.007357597351074	26577592.472861044
2.0107386112213135	28282004.262952838
2.0141148567199707	30120373.742462263
2.017486572265625	30551577.35345884
2.0208535194396973	32342290.489333246
2.0242159366607666	34125585.338814706
2.027573823928833	33356710.666697193
2.0309269428253174	33557903.153078854
2.034275770187378	35461936.31685571
2.0376198291778564	36102299.112012185
2.040959596633911	35768837.58539155
2.044294595718384	36674818.33930193
2.0476250648498535	37891373.12071905
2.0509510040283203	38106836.5174226
2.054272413253784	38650016.23182029
2.057589530944824	39856994.082718246
2.0609018802642822	40193888.472732835
2.0642096996307373	39899264.89288716
2.0675129890441895	40375494.12111629
2.0708119869232178	41183343.12566314
2.074106216430664	41758191.11888077
2.0773961544036865	41675659.87441408
2.080681324005127	41342098.03387708
2.0839622020721436	41654095.87637035
2.087238311767578	42295988.47740924
2.090510129928589	42940859.83904046
2.0937774181365967	43398691.60729506
2.0970399379730225	43526670.164653376
2.1002981662750244	43493745.65245881
2.1035518646240234	43606454.99127071
2.1068007946014404	43947763.97076318
2.1100454330444336	44079981.636316
2.1132853031158447	44019366.67315458
2.116520881652832	44091560.42070757
2.1197516918182373	44419817.13994384
2.1229779720306396	44669714.058993965
2.12619948387146	44668162.77747739
2.1294167041778564	44856989.658706486
2.132629156112671	45174208.16829817
2.1358368396759033	45309775.49438477
2.139039993286133	45262335.897297084
2.1422386169433594	45187908.646035254
2.145432472229004	45038291.8952825
2.1486217975616455	44755377.64485008
2.151806354522705	44571707.70441746
2.1549863815307617	44549983.69348988
2.1581614017486572	44852938.21887488
2.16133189201355	45214611.31996068
2.1644976139068604	45377708.58927284
2.167658567428589	45503880.0164951
2.1708147525787354	45424008.60282503
2.173966407775879	45273589.42959405
2.1771130561828613	45455169.347180165
2.1802549362182617	45718451.26319182
2.183391809463501	45554112.16969921
2.1865241527557373	45441421.7026422
2.1896514892578125	45720600.602245994
2.1927738189697266	45782840.28318581
2.1958916187286377	44290932.45482872
2.1990041732788086	40565727.54565444
2.2021119594573975	38346040.08938931
2.2052149772644043	40638230.513405494
2.208312749862671	44218307.55537037
2.2114057540893555	45786742.05283712
2.214493751525879	45291221.164697915
2.217576742172241	42603258.51747298
2.2206547260284424	38678200.096352294
2.2237277030944824	36576384.27321088
2.2267956733703613	35609193.14723342
2.2298583984375	34348153.48192991
2.2329163551330566	34493988.00809116
2.235969066619873	35979549.81141968
2.2390167713165283	36995412.76759754
2.2420592308044434	35563136.02780222
2.2450966835021973	32662274.397734366
2.248128890991211	32231102.91244662
2.2511560916900635	33379585.533560492
2.254178285598755	33486957.958213624
2.257194995880127	34465307.16391763
2.260206699371338	36503090.96784071
2.2632133960723877	36433241.27091443
2.266214609146118	34805061.686001204
2.2692108154296875	34793948.25487165
2.2722020149230957	36629467.25378005
2.2751877307891846	37339027.78580484
2.278168201446533	36145481.24394628
2.2811436653137207	34752467.00323944
2.284113883972168	33286438.191794537
2.287078857421875	31854013.55612016
2.290038824081421	30471091.353376657
2.2929933071136475	28651235.161188994
2.295942783355713	27431581.71806573
2.298887014389038	28583352.739702225
2.301826238632202	31192454.668045193
2.304760217666626	33365845.835875567
2.3076889514923096	35744571.20880137
2.310612440109253	38750152.00241715
2.3135311603546143	37528673.44900996
2.3164443969726562	28774401.512015846
2.319352865219116	23478103.782483168
2.322256088256836	27163326.95440835
2.3251543045043945	31532727.572895903
2.328047275543213	33572842.57374513
2.330935478210449	33269555.143894773
2.3338186740875244	30715480.28440158
2.3366971015930176	27394875.806643672
2.3395702838897705	25069582.277974352
2.3424389362335205	24198768.783032086
2.3453025817871094	23084025.208927587
2.348161458969116	22815866.55610238
2.351015567779541	23407873.583830755
2.353865146636963	25437417.359465897
2.3567099571228027	29764854.706470203
2.3595502376556396	33558118.949812636
2.3623859882354736	35579195.04728092
2.3652172088623047	35432461.17103334
2.368043899536133	29567502.533883184
2.370866537094116	20903568.698263273
2.3736846446990967	18978246.990374234
2.3764986991882324	22179459.59439741
2.3793084621429443	26189264.99855955
2.3821144104003906	28718059.1961436
2.384916305541992	28617716.2716516
2.387714147567749	30091732.892025106
2.3905084133148193	32133725.1035286
2.393299102783203	30370616.528403603
2.3960859775543213	26701854.539324194
2.398869514465332	24881946.770236522
2.4016497135162354	24225007.644758888
2.4044265747070312	23531117.385380466
2.407200336456299	23727189.49135945
2.409970998764038	24870743.75664809
2.4127390384674072	26152678.864697784
2.415503978729248	24965925.968052685
2.418266534805298	21810666.835999094
2.4210267066955566	21424776.17231641
2.4237842559814453	22435650.67925918
2.426539897918701	21677351.55470028
2.429293394088745	22493910.717546556
2.4320452213287354	23956727.631865524
2.4347951412200928	20846830.921768922
2.4375438690185547	20104138.205854744
2.440291166305542	23150876.08427901
2.443037271499634	20967736.03352251
2.445782423019409	17677954.80033849
2.4485268592834473	18854829.339775987
2.451270818710327	17910070.62482231
2.454014539718628	15894637.603741007
2.4567582607269287	19001618.508292828
2.4595019817352295	19905260.16471457
2.4622461795806885	19176933.77900417
2.4649908542633057	19414956.255893663
2.4677364826202393	14900048.639333615
2.4704833030700684	10693905.334689975
2.473231554031372	9881309.566326674
2.4759814739227295	10691787.40431127
2.4787333011627197	12268225.089835962
