#wavelength	surface flux
0.6450077295303345	217298.59628194454
0.6472567915916443	325051.326947136
0.6494921445846558	387195.1645272922
0.6517150402069092	402038.65731922997
0.6539263725280762	415775.4495832716
0.6561272740364075	429468.8912636502
0.6583186388015747	443333.22564636415
0.6605015397071838	457625.68098489655
0.6626768708229065	471671.1401889593
0.6648455858230591	484194.8830624504
0.6670085787773132	494577.15494311665
0.6691668033599854	497353.73376384797
0.6713210344314575	500904.38052655105
0.6734722256660461	521905.95642989164
0.6756211519241333	545691.6371774293
0.6777685880661011	560283.3131016819
0.6799154281616211	573217.245745387
0.6820623278617859	583664.5434800008
0.6842101216316223	590367.8391279074
0.6863595843315125	588085.0905309883
0.688511312007904	575834.9578413388
0.6906660795211792	579709.8295748789
0.6928245425224304	608891.1555527697
0.6949873566627502	641137.8672025923
0.6971551775932312	664175.0718741589
0.6993286609649658	686084.5678677955
0.7015084028244019	723994.3079023621
0.7036949396133423	768283.6785655787
0.7058889269828796	796886.94918312
0.7080909013748169	814543.6251498448
0.710301399230957	833800.5066631669
0.712520956993103	854213.2563123114
0.7147500514984131	874380.5035250131
0.7169892191886902	898872.7277572382
0.7192389369010925	926903.1064976382
0.7214996814727783	955591.0788000951
0.723771870136261	985981.9593420591
0.7260559797286987	1016454.6172902168
0.7283523678779602	1045464.0154704498
0.7306615710258484	1068651.3513961541
0.7329838871955872	1057774.3436577239
0.7353196740150452	1014863.5996363974
0.7376693487167358	983559.2631894462
0.7400332689285278	957870.5871215241
0.7424117922782898	935038.988758143
0.7448052167892456	935365.3512186073
0.7472138404846191	971400.8364710828
0.7496379613876343	1039405.3105266294
0.7520779371261597	1112222.0194877456
0.7545340061187744	1192902.2964613119
0.7570064663887024	1276290.6229532026
0.7594954967498779	1347779.1592736617
0.7620013952255249	1392225.9553841313
0.7645244002342224	1321530.5517161384
0.7670646905899048	1187963.1070165853
0.7696225643157959	1213658.4777601385
0.7721980810165405	1420647.0358446646
0.7747915983200073	1615905.779750864
0.7774031162261963	1700570.8776309036
0.7800329327583313	1739483.693484964
0.7826811671257019	1787627.6923218255
0.7853479981422424	1836118.921415702
0.7880334854125977	1874547.645852293
0.7907378077507019	1895967.6406012187
0.7934610247612	1893722.4235959232
0.7962033748626709	1908059.5828624077
0.7989648580551147	1949821.0573028224
0.801745593547821	1997381.3297214664
0.8045456409454346	2057940.1141706263
0.8073651194572449	2136992.6633195756
0.8102040886878967	2228417.079187641
0.8130625486373901	2317183.1591666215
0.8159406185150146	2397248.1836386416
0.8188382983207703	2469477.405838701
0.8217556476593018	2535148.253964415
0.8246926665306091	2599928.281428829
0.8276493549346924	2665360.0650937185
0.8306257724761963	2730927.173807033
0.8336219191551208	2798391.9376441697
0.8366377949714661	2867428.161316942
0.8396733403205872	2936734.7632663604
0.8427285552024841	3004988.6513551776
0.8458034992218018	3071934.413535178
0.8488980531692505	3135998.4129506527
0.8520121574401855	3175111.4480614034
0.8551458716392517	3195734.1164573547
0.8582990765571594	3219698.3292894135
0.8614717125892639	3247222.883226265
0.8646637797355652	3282819.933484011
0.8678751587867737	3338154.4205001094
0.8711057901382446	3444907.4612007504
0.8743556141853333	3589830.487102412
0.87762451171875	3737644.792740064
0.8809124231338501	3881832.722687799
0.8842192888259888	4016534.015802353
0.8875449895858765	4141078.1097044223
0.8908893465995789	4251407.048463437
0.894252359867096	4352560.401655583
0.8976338505744934	4456665.542506857
0.9010337591171265	4568253.94238755
0.9044519662857056	4684505.148809877
0.9078882932662964	4800097.290836177
0.9113426208496094	4915163.524162015
0.914814829826355	5028657.031245748
0.9183048605918884	5139017.428189339
0.9218124747276306	5241331.468483771
0.925337553024292	5314644.236516623
0.9288799166679382	5365377.889956177
0.9324395060539246	5427998.005932038
0.9360161423683167	5539285.316641707
0.9396095871925354	5733082.927896175
0.943219780921936	5925893.507664768
0.9468464851379395	6040371.094874278
0.9504896402359009	6150878.292228021
0.9541489481925964	6292040.458845592
0.9578243494033813	6427349.447353461
0.9615156054496765	6563957.79858041
0.9652225375175476	6735473.337194568
0.9689450263977051	6916915.888562546
0.9726828336715698	7070282.3165975
0.9764357805252075	7218658.916953176
0.9802037477493286	7377871.0844664825
0.983986496925354	7530775.568053502
0.9877838492393494	7664234.507487153
0.9915955662727356	7803008.3044223795
0.9954215884208679	7978973.316193913
0.9992615580558777	8159968.803727412
1.0031154155731201	8323075.386016832
1.0069829225540161	8490276.619426543
1.0108637809753418	8666923.661732009
1.0147579908370972	8846125.67012456
1.018665075302124	9029257.560794173
1.022585153579712	9209980.193149602
1.0265177488327026	9382238.42499508
1.0304628610610962	9564981.666360354
1.0344202518463135	9761189.674393222
1.0383895635604858	9961367.106066404
1.0423706769943237	10157715.748352205
1.0463634729385376	10343587.735225057
1.0503677129745483	10526214.952800004
1.0543830394744873	10716388.168339968
1.058409333229065	10917333.144551976
1.0624464750289917	11130346.429064313
1.0664942264556885	11345908.699405398
1.0705522298812866	11557815.29437584
1.0746204853057861	11777673.192837583
1.0786986351013184	12006337.479224324
1.0827864408493042	12232066.160037475
1.086883783340454	12439573.575954562
1.0909905433654785	12622786.048950033
1.0951062440872192	12768545.80535129
1.0992310047149658	12893776.412788894
1.10336434841156	13084165.531138012
1.1075061559677124	13340182.275053216
1.1116561889648438	13498184.33951705
1.115814208984375	13509028.153239664
1.1199802160263062	13542363.231763367
1.124153733253479	13762479.108653517
1.1283347606658936	14166091.773776907
1.1325229406356812	14483590.491598025
1.1367181539535522	14690116.898290273
1.1409201622009277	14948488.59792585
1.145128846168518	15155085.008088648
1.1493438482284546	15392742.573955167
1.1535650491714478	15754974.159263585
1.1577922105789185	16035024.81421732
1.1620250940322876	16192740.862785142
1.1662636995315552	16413092.520484213
1.170507550239563	16666080.742975105
1.174756646156311	16878437.662718117
1.1790107488632202	17170389.7050905
1.1832695007324219	17527060.397442136
1.1875330209732056	17866477.330238845
1.191800832748413	18207939.80789359
1.1960728168487549	18500402.25249429
1.2003488540649414	18760714.868655294
1.2046287059783936	19050005.74626627
1.2089121341705322	19329131.20886958
1.2131990194320679	19597280.5742213
1.2174891233444214	19876633.366786607
1.2217823266983032	20163656.84266406
1.2260783910751343	20451882.630636726
1.230377197265625	20735447.87300646
1.2346785068511963	21013201.178137682
1.238982081413269	21278643.990742855
1.2432878017425537	21538834.34469717
1.2475954294204712	21810782.204542335
1.2519049644470215	22082841.217595924
1.256216049194336	22357673.998130344
1.2605286836624146	22640663.057629924
1.2648425102233887	22921612.255623046
1.2691574096679688	23205153.130144686
1.2734732627868652	23487589.373585258
1.2777899503707886	23759315.77448543
1.2821072340011597	24021117.30989591
1.2864248752593994	24279539.970498312
1.2907428741455078	24513677.14564254
1.2950609922409058	24739262.05088854
1.2993791103363037	25033376.272618268
1.303696870803833	25369495.949910764
1.3080145120620728	25661397.711339545
1.3123314380645752	25908960.280487243
1.3166478872299194	26141893.925946478
1.3209635019302368	26333171.612630703
1.3252781629562378	26487635.851210527
1.3295916318893433	26437052.202215627
1.3339040279388428	25745915.586349603
1.3382149934768677	24899012.8117517
1.3425244092941284	24430505.43241014
1.3468321561813354	24069756.541775685
1.3511382341384888	23553605.829498928
1.3554422855377197	23314921.936785165
1.3597444295883179	23839078.64537458
1.3640443086624146	24388847.416886214
1.3683418035507202	24846053.552607484
1.3726370334625244	25681869.551825732
1.3769296407699585	26768559.660147432
1.381219506263733	27466021.29842891
1.3855066299438477	27149618.039233383
1.3897908926010132	26452686.31665975
1.3940720558166504	26311284.39847831
1.3983501195907593	26785714.61768761
1.4026249647140503	27019114.107292004
1.4068963527679443	27216109.17482042
1.4111642837524414	27803108.735009577
1.4154287576675415	27373992.83834703
1.419689416885376	26324096.3464256
1.4239463806152344	26171145.298346236
1.4281994104385376	27017420.977963302
1.4324485063552856	28684447.95698901
1.436693549156189	29652474.29776912
1.440934419631958	29717063.65991353
1.4451709985733032	30313056.96972429
1.449403166770935	30927473.90026616
1.453631043434143	31224764.95204881
1.4578542709350586	31864097.711620126
1.4620729684829712	32334476.04355612
1.4662868976593018	32407112.551681217
1.4704961776733398	32841588.430468597
1.4747005701065063	33453176.431623545
1.4788999557495117	33993571.71766769
1.4830944538116455	34338186.87102639
1.4872838258743286	34417446.00270209
1.491468071937561	34674550.82488861
1.4956470727920532	35094340.582389385
1.4998208284378052	35454777.8547881
1.5039892196655273	36014359.849099524
1.5081522464752197	36602925.74826594
1.5123097896575928	37046191.526511975
1.5164618492126465	37524285.00673608
1.5206083059310913	37956665.805472754
1.5247491598129272	38151562.41760887
1.5288842916488647	38168231.74503816
1.5330137014389038	38448586.850506686
1.5371372699737549	39011147.81271503
1.541254997253418	39469702.3101634
1.545366883277893	39769944.69437964
1.5494728088378906	40061903.39945027
1.5535727739334106	40358716.97796089
1.5576666593551636	40593477.49111531
1.561754584312439	40831027.13624663
1.5658363103866577	41136966.51940909
1.5699119567871094	41404879.120519616
1.5739814043045044	41655773.54875526
1.5780447721481323	41974588.0269247
1.582101821899414	42282469.49553264
1.5861525535583496	42560537.291302085
1.5901970863342285	42834019.90472036
1.5942351818084717	43093345.83157745
1.5982669591903687	43332484.428748794
1.6022924184799194	43558048.58533524
1.606311559677124	43779548.81707622
1.6103241443634033	44003837.52643661
1.6143304109573364	44243593.40422611
1.6183301210403442	44482721.54489031
1.6223233938217163	44702677.484747194
1.6263102293014526	44922184.17972616
1.6302905082702637	45133340.765474536
1.634264349937439	45342262.70899529
1.638231635093689	45567944.63312994
1.6421923637390137	45774561.5767814
1.646146535873413	46022126.7404347
1.6500942707061768	46304936.32059774
1.6540353298187256	46534362.73653904
1.6579699516296387	46725802.30545975
1.661897897720337	46908558.30728344
1.6658192873001099	47129291.56510353
1.6697341203689575	47360968.515984416
1.6736423969268799	47540762.70836208
1.677544116973877	47678251.90808613
1.6814392805099487	47870923.16932196
1.6853278875350952	48150241.26030854
1.6892099380493164	48405638.27703416
1.6930854320526123	48558132.01953123
1.696954369544983	48646936.66810237
1.7008168697357178	48764967.31446125
1.7046726942062378	48904625.679015316
1.708522081375122	49059637.904746674
1.712364912033081	49200015.49425139
1.7162011861801147	49244447.15090494
1.7200311422348022	49244798.87038166
1.723854422569275	49141102.147253454
1.7276713848114014	48802638.75295394
1.731481909751892	48505103.27781033
1.7352858781814575	48398606.683628716
1.7390835285186768	48469237.44827838
1.7428747415542603	48779916.78703517
1.7466596364974976	49448131.45641325
1.7504380941390991	49779884.821989246
1.7542102336883545	49366715.487018056
1.7579760551452637	49305773.684009686
1.7617355585098267	49382641.19455339
1.7654887437820435	48642222.73190958
1.7692357301712036	47908164.9027422
1.7729763984680176	47934162.818715736
1.776710867881775	48208608.633240946
1.7804391384124756	48473945.53667662
1.7841613292694092	48682833.59038801
1.7878772020339966	47608766.48188392
1.7915871143341064	45881534.92372257
1.7952908277511597	45448824.03555928
1.7989884614944458	45021779.02943801
1.8026801347732544	44702329.241803266
1.806365728378296	44302320.8894818
1.8100452423095703	43995662.74149418
1.8137187957763672	45412976.471106105
1.817386507987976	46562483.29150618
1.8210482597351074	47312026.12267959
1.8247040510177612	47926400.52597912
1.828354001045227	47583178.250284396
1.8319982290267944	48477514.1644972
1.8356364965438843	50150422.78824874
1.8392690420150757	49605057.831384145
1.8428958654403687	47522565.660882376
1.8465168476104736	46068513.58558645
1.8501322269439697	46571883.387308955
1.8537418842315674	46794669.15369581
1.8573459386825562	45202413.10463842
1.860944390296936	44439911.22567629
1.864537239074707	45176997.329278946
1.8681244850158691	45654429.71612643
1.871706247329712	45392185.48399662
1.8752825260162354	46102501.286085606
1.8788533210754395	48092361.12078999
1.8824186325073242	48928659.52468779
1.8859784603118896	49129518.26085962
1.8895330429077148	50611007.69528976
1.8930821418762207	51578963.84239832
1.8966259956359863	51176845.07804806
1.9001644849777222	50223022.0695094
1.9036977291107178	50422707.635669455
1.9072256088256836	51398657.79637212
1.9107483625411987	51220043.267902076
1.9142658710479736	51578757.67834209
1.9177782535552979	51326057.541304596
1.9212853908538818	49316266.52399121
1.9247875213623047	49481313.612926446
1.9282845258712769	51480599.991362885
1.9317764043807983	52000464.27941145
1.9352631568908691	51377524.04083499
1.9387450218200684	49907860.35011111
1.942221760749817	47660044.89101162
1.9456936120986938	46164199.97210846
1.9491604566574097	46888889.400988445
1.952622413635254	48193016.28210488
1.956079363822937	47302871.912821494
1.959531545639038	46904487.70640161
1.962978720664978	49969469.20278845
1.966421127319336	53055755.56127488
1.9698586463928223	53408593.64053578
1.9732913970947266	52628289.50602531
1.9767193794250488	52311392.34348451
1.9801424741744995	53272389.211523876
1.9835609197616577	54062656.07326554
1.9869745969772339	53161312.55773589
1.990383505821228	52126134.44812198
1.9937876462936401	53052680.086515024
1.9971871376037598	53738584.42141901
2.000581979751587	52733776.6850368
2.003972291946411	52882214.26063302
2.007357597351074	54502946.08417256
2.0107386112213135	55826729.20894506
2.0141148567199707	55929685.372920245
2.017486572265625	55856682.70456084
2.0208535194396973	56578904.14422232
2.0242159366607666	56575584.476802096
2.027573823928833	55326143.07712198
2.0309269428253174	54946380.87729239
2.034275770187378	55979826.93022768
2.0376198291778564	56640982.127202645
2.040959596633911	56635004.69288415
2.044294595718384	57058534.0034923
2.0476250648498535	57702517.038579285
2.0509510040283203	58064858.80982853
2.054272413253784	58364833.051697314
2.057589530944824	58666741.25133897
2.0609018802642822	58768068.99204493
2.0642096996307373	58792385.65389259
2.0675129890441895	59138329.28223644
2.0708119869232178	59556410.64928429
2.074106216430664	59762472.35965401
2.0773961544036865	59666884.92230318
2.080681324005127	59410783.908516444
2.0839622020721436	59484103.368841864
2.087238311767578	59845244.43181545
2.090510129928589	60196927.13428141
2.0937774181365967	60450182.16750396
2.0970399379730225	60573101.87421606
2.1002981662750244	60657833.563797385
2.1035518646240234	60760394.29570934
2.1068007946014404	60874876.70697287
2.1100454330444336	60907179.675153576
2.1132853031158447	60920460.44682842
2.116520881652832	61035004.327951096
2.1197516918182373	61204639.106007345
2.1229779720306396	61329549.946579576
2.12619948387146	61417601.49085427
2.1294167041778564	61543897.8617544
2.132629156112671	61699933.572827175
2.1358368396759033	61784867.272564255
2.139039993286133	61792666.939164706
2.1422386169433594	61824441.90957521
2.145432472229004	61827777.01335618
2.1486217975616455	61806835.55670273
2.151806354522705	61922825.44174817
2.1549863815307617	62063136.52863645
2.1581614017486572	62195314.12636348
2.16133189201355	62358514.36032936
2.1644976139068604	62391670.35039192
2.167658567428589	62388508.27028189
2.1708147525787354	62431026.200851694
2.173966407775879	62452446.816213764
2.1771130561828613	62490752.663496956
2.1802549362182617	62568795.45645538
2.183391809463501	62597894.88545896
2.1865241527557373	62636090.08961214
2.1896514892578125	62779044.02876324
2.1927738189697266	62875282.18444287
2.1958916187286377	62936651.70351925
2.1990041732788086	62982315.134773195
2.2021119594573975	62989525.252442874
2.2052149772644043	63089632.092132635
2.208312749862671	63215260.25059712
2.2114057540893555	63280494.13556454
2.214493751525879	63284715.16404372
2.217576742172241	63021508.26522606
2.2206547260284424	62686578.55868926
2.2237277030944824	62790649.907321185
2.2267956733703613	63062641.96382373
2.2298583984375	63231965.95683396
2.2329163551330566	63334495.230992116
2.235969066619873	63289637.257265
2.2390167713165283	63422226.97311762
2.2420592308044434	63674656.60970812
2.2450966835021973	63761150.5426511
2.248128890991211	63949845.253223345
2.2511560916900635	64046822.060869336
2.254178285598755	63801678.46868449
2.257194995880127	63613671.71553556
2.260206699371338	63532677.78807894
2.2632133960723877	63440537.09676224
2.266214609146118	63539140.15277779
2.2692108154296875	63574132.6962412
2.2722020149230957	63695274.901989855
2.2751877307891846	63984827.932951294
2.278168201446533	63809695.529744044
2.2811436653137207	63698253.44248446
2.284113883972168	63974794.36578245
2.287078857421875	64198326.30657244
2.290038824081421	63940752.007040456
2.2929933071136475	61740622.920410685
2.295942783355713	59639504.05417199
2.298887014389038	60212438.21453257
2.301826238632202	60270383.259706385
2.304760217666626	58845857.39885226
2.3076889514923096	59799585.97415382
2.310612440109253	62489318.95823221
2.3135311603546143	62852808.14795171
2.3164443969726562	62171854.99938642
2.319352865219116	61469500.424194366
2.322256088256836	58916439.426605456
2.3251543045043945	56940611.726462916
2.328047275543213	57924990.05806111
2.330935478210449	59642221.468952596
2.3338186740875244	60339564.11230244
2.3366971015930176	60203711.709896296
2.3395702838897705	60678064.95208896
2.3424389362335205	61651256.20330393
2.3453025817871094	61264959.63560901
2.348161458969116	60775561.07367445
2.351015567779541	59886886.55019155
2.353865146636963	58751845.75259354
2.3567099571228027	59112945.866772816
2.3595502376556396	59174317.655118905
2.3623859882354736	58906247.97089278
2.3652172088623047	58961366.329377495
2.368043899536133	58832105.21474919
2.370866537094116	59483673.52865848
2.3736846446990967	60075759.00305797
2.3764986991882324	59021814.757704794
2.3793084621429443	57474031.528431095
2.3821144104003906	57598154.82820725
2.384916305541992	58691175.050146975
2.387714147567749	59195656.99967511
2.3905084133148193	58349141.07267097
2.393299102783203	56509231.6906748
2.3960859775543213	57158922.31575285
2.398869514465332	58845900.4532912
2.4016497135162354	58216429.11585198
2.4044265747070312	58199719.335733995
2.407200336456299	59261563.924445756
2.409970998764038	59392296.13534166
2.4127390384674072	58933076.56234876
2.415503978729248	58954867.21984762
2.418266534805298	59413653.792652406
2.4210267066955566	59111046.02102407
2.4237842559814453	58791792.8771315
2.426539897918701	58855898.96801441
2.429293394088745	57877031.39999617
2.4320452213287354	55782973.8061042
2.4347951412200928	53420810.32808092
2.4375438690185547	53498429.837900266
2.440291166305542	55464062.27153474
2.443037271499634	54966321.87440268
2.445782423019409	54601092.919845305
2.4485268592834473	56621081.17424044
2.451270818710327	56465154.55512428
2.454014539718628	54191796.57400742
2.4567582607269287	54115459.48811082
2.4595019817352295	54339063.33087803
2.4622461795806885	54310341.99222047
2.4649908542633057	53673554.71010161
2.4677364826202393	50822445.66427889
2.4704833030700684	49659026.195940904
2.473231554031372	48309689.64391193
2.4759814739227295	48389553.65618735
2.4787333011627197	51331557.04650853
2.481487512588501	51153224.34724138
2.4842441082000732	50630865.81005084
