#wavelength	surface flux
0.6450077295303345	24587.211798582015
0.6472567915916443	36972.863909737636
0.6494921445846558	44422.707238279836
0.6517150402069092	46542.164103163304
0.6539263725280762	48370.72067506095
0.6561272740364075	49528.595044698595
0.6583186388015747	51177.93042647161
0.6605015397071838	54258.36338985665
0.6626768708229065	57156.94024394706
0.6648455858230591	59396.659502112656
0.6670085787773132	61481.24233302727
0.6691668033599854	62838.82938590836
0.6713210344314575	64303.13216169562
0.6734722256660461	67447.11577127711
0.6756211519241333	70663.59305201343
0.6777685880661011	72640.62036876191
0.6799154281616211	74374.4014686993
0.6820623278617859	75742.28016823919
0.6842101216316223	76500.50451303938
0.6863595843315125	76222.03933165596
0.688511312007904	74758.18265387497
0.6906660795211792	75673.94766309825
0.6928245425224304	80514.00097047487
0.6949873566627502	86244.44261473777
0.6971551775932312	90566.71224234645
0.6993286609649658	94283.98907072007
0.7015084028244019	100175.22574608517
0.7036949396133423	107908.40641793332
0.7058889269828796	114578.67952715968
0.7080909013748169	119354.01842457608
0.710301399230957	123460.58565991721
0.712520956993103	127696.63813069403
0.7147500514984131	132016.85747678077
0.7169892191886902	136508.73736816584
0.7192389369010925	141271.11145808504
0.7214996814727783	146204.7306026476
0.723771870136261	151299.04786020226
0.7260559797286987	156512.51343723648
0.7283523678779602	161805.84015516032
0.7306615710258484	166812.7958191456
0.7329838871955872	169404.70799928773
0.7353196740150452	169896.32502373683
0.7376693487167358	171414.57368611364
0.7400332689285278	173162.294420672
0.7424117922782898	175074.49162906467
0.7448052167892456	178943.07493929978
0.7472138404846191	186151.59070815067
0.7496379613876343	196100.26994954675
0.7520779371261597	205661.81861485384
0.7545340061187744	214476.22623989527
0.7570064663887024	221015.13089840213
0.7594954967498779	219964.98152780003
0.7620013952255249	197407.30832040243
0.7645244002342224	137826.36404455054
0.7670646905899048	76117.6925483163
0.7696225643157959	73937.31187694382
0.7721980810165405	143405.31378589128
0.7747915983200073	230710.0754191154
0.7774031162261963	277131.8681547535
0.7800329327583313	291105.27466994984
0.7826811671257019	311686.29076675593
0.7853479981422424	337119.13002777024
0.7880334854125977	352874.97806392336
0.7907378077507019	361628.5369242244
0.7934610247612	362041.9940075552
0.7962033748626709	369634.50456587586
0.7989648580551147	392018.63679609733
0.801745593547821	412345.69723734027
0.8045456409454346	428205.5751068862
0.8073651194572449	445465.57921967935
0.8102040886878967	463907.08239520364
0.8130625486373901	482307.51648868475
0.8159406185150146	500232.2335937142
0.8188382983207703	517859.2719188701
0.8217556476593018	535558.6196541615
0.8246926665306091	553872.0638067826
0.8276493549346924	572774.26192263
0.8306257724761963	592112.6524041282
0.8336219191551208	612154.1786379572
0.8366377949714661	632875.0905451255
0.8396733403205872	654083.3046060308
0.8427285552024841	675715.2454856841
0.8458034992218018	697735.1996829555
0.8488980531692505	720040.2231562453
0.8520121574401855	740697.017683778
0.8551458716392517	760380.5815088206
0.8582990765571594	780728.4459295014
0.8614717125892639	801190.5342231806
0.8646637797355652	823332.8557144146
0.8678751587867737	849349.4734358769
0.8711057901382446	881168.7295590462
0.8743556141853333	916973.7450349387
0.87762451171875	953393.9495528203
0.8809124231338501	989644.1112202989
0.8842192888259888	1025405.2246972256
0.8875449895858765	1060597.943015628
0.8908893465995789	1095054.4201488215
0.894252359867096	1129581.2194809653
0.8976338505744934	1165376.938953055
0.9010337591171265	1203983.1965065165
0.9044519662857056	1244986.5495309483
0.9078882932662964	1286178.260781129
0.9113426208496094	1327505.350520696
0.914814829826355	1369153.8359268373
0.9183048605918884	1411307.2447335979
0.9218124747276306	1453231.7800450947
0.925337553024292	1488917.9293004414
0.9288799166679382	1516465.0169489933
0.9324395060539246	1543685.4838152463
0.9360161423683167	1587558.1912796232
0.9396095871925354	1659080.5314649495
0.943219780921936	1729574.4307304348
0.9468464851379395	1777036.9046650336
0.9504896402359009	1824119.6974049313
0.9541489481925964	1881436.4064074457
0.9578243494033813	1938996.5739008668
0.9615156054496765	1998171.4482672561
0.9652225375175476	2066642.1407190438
0.9689450263977051	2137794.763132723
0.9726828336715698	2202935.658666125
0.9764357805252075	2267697.888964574
0.9802037477493286	2336240.286284029
0.983986496925354	2405958.655295585
0.9877838492393494	2474775.001537331
0.9915955662727356	2545287.703316958
0.9954215884208679	2619436.2697774344
0.9992615580558777	2694669.306319232
1.0031154155731201	2770392.23975227
1.0069829225540161	2848499.1692926977
1.0108637809753418	2928933.137960596
1.0147579908370972	3010316.265384005
1.018665075302124	3092902.5330932857
1.022585153579712	3177619.8092972487
1.0265177488327026	3264514.797558611
1.0304628610610962	3353105.777463522
1.0344202518463135	3443357.0856546503
1.0383895635604858	3535332.1659381716
1.0423706769943237	3628585.6007924913
1.0463634729385376	3723245.8483800613
1.0503677129745483	3819953.612544804
1.0543830394744873	3918896.72217579
1.058409333229065	4021026.689536354
1.0624464750289917	4128755.236340519
1.0664942264556885	4238605.651519018
1.0705522298812866	4346709.216832174
1.0746204853057861	4456343.457370953
1.0786986351013184	4569124.380230829
1.0827864408493042	4682622.351532064
1.086883783340454	4794258.836403155
1.0909905433654785	4902392.282981061
1.0951062440872192	5000829.637144712
1.0992310047149658	5089842.822212735
1.10336434841156	5193071.168765135
1.1075061559677124	5315334.632521106
1.1116561889648438	5402461.915148308
1.115814208984375	5433778.477196738
1.1199802160263062	5470369.636195547
1.124153733253479	5590009.388850381
1.1283347606658936	5803095.076114354
1.1325229406356812	5980330.101849374
1.1367181539535522	6115401.853173766
1.1409201622009277	6279077.948186498
1.145128846168518	6399989.832793606
1.1493438482284546	6515245.894850361
1.1535650491714478	6692897.185997464
1.1577922105789185	6852063.434046806
1.1620250940322876	6972743.685030213
1.1662636995315552	7124481.882546879
1.170507550239563	7287782.192298312
1.174756646156311	7456781.490371658
1.1790107488632202	7657568.029876486
1.1832695007324219	7848560.293387103
1.1875330209732056	8026424.289915864
1.191800832748413	8212095.312401573
1.1960728168487549	8384884.226766386
1.2003488540649414	8552865.14058424
1.2046287059783936	8732435.158603853
1.2089121341705322	8907735.466847237
1.2131990194320679	9076041.779905932
1.2174891233444214	9249468.331208691
1.2217823266983032	9428391.16703904
1.2260783910751343	9606835.747316713
1.230377197265625	9784977.401360996
1.2346785068511963	9965593.989322769
1.238982081413269	10146265.43553522
1.2432878017425537	10326005.492782574
1.2475954294204712	10508352.969931398
1.2519049644470215	10691327.749056254
1.256216049194336	10877841.391471116
1.2605286836624146	11068816.193532616
1.2648425102233887	11258837.335607208
1.2691574096679688	11446883.576060358
1.2734732627868652	11634229.01393858
1.2777899503707886	11823962.93804763
1.2821072340011597	12012096.965786697
1.2864248752593994	12197942.598029966
1.2907428741455078	12376634.799065603
1.2950609922409058	12549524.158595482
1.2993791103363037	12748098.517904483
1.303696870803833	12969587.3931405
1.3080145120620728	13179423.51102523
1.3123314380645752	13369333.020887135
1.3166478872299194	13546749.277088419
1.3209635019302368	13706018.35392969
1.3252781629562378	13861247.701868346
1.3295916318893433	13917041.499524763
1.3339040279388428	13591875.445938565
1.3382149934768677	13040173.324371668
1.3425244092941284	12638322.574791757
1.3468321561813354	12352040.366431631
1.3511382341384888	12011281.132306697
1.3554422855377197	11811131.529227072
1.3597444295883179	11993344.18964008
1.3640443086624146	12360180.561726913
1.3683418035507202	12914626.825430796
1.3726370334625244	13633751.698984893
1.3769296407699585	14307672.093347384
1.381219506263733	14663493.523583768
1.3855066299438477	14510955.439115461
1.3897908926010132	14166328.27509049
1.3940720558166504	14039783.202085413
1.3983501195907593	14333377.0473581
1.4026249647140503	14636968.055255324
1.4068963527679443	14876657.384878948
1.4111642837524414	15193876.326659098
1.4154287576675415	14906821.919545704
1.419689416885376	14319230.04697987
1.4239463806152344	14292884.361925112
1.4281994104385376	14852084.402271876
1.4324485063552856	15893866.608314998
1.436693549156189	16578040.704828085
1.440934419631958	16768762.576530715
1.4451709985733032	17188189.923182152
1.449403166770935	17599842.527943328
1.453631043434143	17991635.821805548
1.4578542709350586	18597931.670491137
1.4620729684829712	18951178.639758315
1.4662868976593018	19048936.509371378
1.4704961776733398	19398119.578473978
1.4747005701065063	19833896.236409858
1.4788999557495117	20230405.68815433
1.4830944538116455	20560587.822782636
1.4872838258743286	20740952.71538185
1.491468071937561	20933239.459279843
1.4956470727920532	21216358.956147358
1.4998208284378052	21523375.39366362
1.5039892196655273	21968070.31855578
1.5081522464752197	22445433.28002374
1.5123097896575928	22803269.892473705
1.5164618492126465	23152290.775134552
1.5206083059310913	23493002.347424727
1.5247491598129272	23725167.677021462
1.5288842916488647	23860908.548654255
1.5330137014389038	24124295.971389655
1.5371372699737549	24520948.56143949
1.541254997253418	24851815.659334935
1.545366883277893	25105204.612597868
1.5494728088378906	25355280.578532893
1.5535727739334106	25600751.549580257
1.5576666593551636	25828952.691130705
1.561754584312439	26058405.131757997
1.5658363103866577	26300850.095769476
1.5699119567871094	26529941.92602573
1.5739814043045044	26757117.957770742
1.5780447721481323	27009537.156700976
1.582101821899414	27253258.689710885
1.5861525535583496	27478347.28602813
1.5901970863342285	27704554.183228858
1.5942351818084717	27929917.08364681
1.5982669591903687	28148748.469575845
1.6022924184799194	28364602.13210419
1.606311559677124	28576287.381080635
1.6103241443634033	28780234.661991365
1.6143304109573364	28985182.682743985
1.6183301210403442	29184660.44806968
1.6223233938217163	29302379.907248165
1.6263102293014526	29328357.646964874
1.6302905082702637	29344236.937511098
1.634264349937439	29422959.12293023
1.638231635093689	29810064.74203277
1.6421923637390137	30304475.593399066
1.646146535873413	30572485.27768141
1.6500942707061768	30765978.46168759
1.6540353298187256	30918261.23186994
1.6579699516296387	31068837.43735669
1.661897897720337	31084215.61667262
1.6658192873001099	30805780.229893167
1.6697341203689575	31002347.515618697
1.6736423969268799	31658814.53284743
1.677544116973877	31954158.554728996
1.6814392805099487	32122592.79037163
1.6853278875350952	32392668.651495125
1.6892099380493164	32572565.147730656
1.6930854320526123	32665409.785484273
1.696954369544983	32764611.38173828
1.7008168697357178	32868531.73172761
1.7046726942062378	33033066.810376503
1.708522081375122	33347037.115550075
1.712364912033081	33700003.0213374
1.7162011861801147	33907009.21389655
1.7200311422348022	33990576.98913331
1.723854422569275	33943104.21272406
1.7276713848114014	33738413.80857253
1.731481909751892	33609640.50395827
1.7352858781814575	33653163.586749464
1.7390835285186768	33767088.576855145
1.7428747415542603	33967983.22361718
1.7466596364974976	34339259.12983534
1.7504380941390991	34480674.641446814
1.7542102336883545	34167723.43021301
1.7579760551452637	34028708.8777158
1.7617355585098267	34078880.14061437
1.7654887437820435	33631753.107005455
1.7692357301712036	33090255.078619234
1.7729763984680176	33085907.148589753
1.776710867881775	33210556.443785723
1.7804391384124756	33177692.410691798
1.7841613292694092	32977043.109811682
1.7878772020339966	32073361.450219918
1.7915871143341064	30968394.371254317
1.7952908277511597	30713866.99087679
1.7989884614944458	30301350.377943393
1.8026801347732544	29944238.037464008
1.806365728378296	29699592.954357434
1.8100452423095703	29550053.915624764
1.8137187957763672	30808777.51807679
1.817386507987976	31920091.026815884
1.8210482597351074	32370362.447305854
1.8247040510177612	32887259.689798795
1.828354001045227	32741981.23294791
1.8319982290267944	33154641.9363842
1.8356364965438843	34023424.12011603
1.8392690420150757	33413977.881244574
1.8428958654403687	32109660.593177006
1.8465168476104736	31068502.8972156
1.8501322269439697	31186402.92805892
1.8537418842315674	31265338.653302737
1.8573459386825562	30062486.86385587
1.860944390296936	29231970.574642997
1.864537239074707	29329321.841362685
1.8681244850158691	29808662.6317793
1.871706247329712	30247300.927880768
1.8752825260162354	31470121.18698919
1.8788533210754395	33515812.411251467
1.8824186325073242	34530254.68076248
1.8859784603118896	34968999.380520925
1.8895330429077148	36084379.436308034
1.8930821418762207	36831766.73085946
1.8966259956359863	36778982.23171414
1.9001644849777222	36218395.15344295
1.9036977291107178	36208741.82399519
1.9072256088256836	36837078.68240966
1.9107483625411987	36611463.89872686
1.9142658710479736	36599107.0603762
1.9177782535552979	36447732.73072044
1.9212853908538818	34819606.49674292
1.9247875213623047	34803094.89419394
1.9282845258712769	36413315.81421988
1.9317764043807983	36395827.88065729
1.9352631568908691	35207116.740955666
1.9387450218200684	33737046.79367992
1.942221760749817	32641690.233173445
1.9456936120986938	32558002.997836713
1.9491604566574097	33401377.0197198
1.952622413635254	33811449.12594323
1.956079363822937	32510977.125970364
1.959531545639038	32413415.490465406
1.962978720664978	35269895.62626019
1.966421127319336	37861509.07329923
1.9698586463928223	38084412.67011679
1.9732913970947266	37488636.7828819
1.9767193794250488	37754774.326730736
1.9801424741744995	38916458.96164971
1.9835609197616577	39918017.78316743
1.9869745969772339	39430392.49235894
1.990383505821228	38305006.478310846
1.9937876462936401	39176923.677117646
1.9971871376037598	40162468.032767646
2.000581979751587	39680412.40750242
2.003972291946411	40094071.28183007
2.007357597351074	41307187.7778133
2.0107386112213135	42381658.133648455
2.0141148567199707	42861592.6448952
2.017486572265625	42825182.196552865
2.0208535194396973	43412326.8262345
2.0242159366607666	43933188.46021837
2.027573823928833	43311902.18478892
2.0309269428253174	43052183.24623505
2.034275770187378	43883663.52624034
2.0376198291778564	44417570.53005661
2.040959596633911	44481558.94211008
2.044294595718384	44999371.31128722
2.0476250648498535	45606225.60968042
2.0509510040283203	45870552.1908281
2.054272413253784	46172381.3052148
2.057589530944824	46517499.77280411
2.0609018802642822	46666345.2648975
2.0642096996307373	46722456.29864789
2.0675129890441895	46979588.66882451
2.0708119869232178	47290110.326688565
2.074106216430664	47491567.67841167
2.0773961544036865	47488417.98432491
2.080681324005127	47345125.75545039
2.0839622020721436	47429431.01695861
2.087238311767578	47715519.85999051
2.090510129928589	48012504.73488381
2.0937774181365967	48262662.24464896
2.0970399379730225	48385504.9541273
2.1002981662750244	48478170.08408822
2.1035518646240234	48609604.824370645
2.1068007946014404	48712793.16954268
2.1100454330444336	48721927.62669031
2.1132853031158447	48739841.93152604
2.116520881652832	48877299.32809637
2.1197516918182373	49065201.865806
2.1229779720306396	49174413.050437
2.12619948387146	49226655.03167532
2.1294167041778564	49331094.479683265
2.132629156112671	49462143.095848285
2.1358368396759033	49556569.41890021
2.139039993286133	49612092.8251957
2.1422386169433594	49669592.35223882
2.145432472229004	49707729.83489035
2.1486217975616455	49724567.533211365
2.151806354522705	49785733.7692949
2.1549863815307617	49839017.86565641
2.1581614017486572	49943089.66796997
2.16133189201355	50092384.424591064
2.1644976139068604	50175823.84211309
2.167658567428589	50238998.49362524
2.1708147525787354	50278224.06928616
2.173966407775879	50302570.567541875
2.1771130561828613	50390114.67413415
2.1802549362182617	50500695.10398847
2.183391809463501	50521461.20238444
2.1865241527557373	50532008.937118225
2.1896514892578125	50627117.76189694
2.1927738189697266	50696453.77889846
2.1958916187286377	50593324.53644011
2.1990041732788086	50273673.00458554
2.2021119594573975	50106610.004328474
2.2052149772644043	50407844.34938426
2.208312749862671	50838610.13040089
2.2114057540893555	51049932.41070276
2.214493751525879	51015800.18611377
2.217576742172241	50513909.05106799
2.2206547260284424	49687895.22076412
2.2237277030944824	49433058.73292876
2.2267956733703613	49564522.48513981
2.2298583984375	49582450.83935134
2.2329163551330566	49655452.456811905
2.235969066619873	49691597.726921044
2.2390167713165283	49995268.34963765
2.2420592308044434	50057374.12997192
2.2450966835021973	49522796.889391884
2.248128890991211	49466030.81505851
2.2511560916900635	49527138.28432584
2.254178285598755	49022209.45477636
2.257194995880127	49233769.36111969
2.260206699371338	50341039.17089767
2.2632133960723877	50794113.99249116
2.266214609146118	50392202.893944316
2.2692108154296875	50076928.09692415
2.2722020149230957	50433850.903078824
2.2751877307891846	50794180.65501321
2.278168201446533	50442668.65838271
2.2811436653137207	49931222.80945313
2.284113883972168	49514688.296437904
2.287078857421875	49069864.18330696
2.290038824081421	48776554.475853406
2.2929933071136475	47842845.859336935
2.295942783355713	47068381.78913891
2.298887014389038	47791398.31523666
2.301826238632202	48164737.69411734
2.304760217666626	47509357.21853643
2.3076889514923096	48085978.35028876
2.310612440109253	49757728.62132942
2.3135311603546143	49601483.19783273
2.3164443969726562	47449539.403535895
2.319352865219116	46050107.13262349
2.322256088256836	46068077.58780437
2.3251543045043945	46534580.37002846
2.328047275543213	47571049.32426517
2.330935478210449	48511118.87738127
2.3338186740875244	48462040.63351092
2.3366971015930176	47379824.4756718
2.3395702838897705	46750041.45708444
2.3424389362335205	47091788.42179746
2.3453025817871094	46414941.905476026
2.348161458969116	45349193.484618545
2.351015567779541	44570581.87099615
2.353865146636963	44974514.482378505
2.3567099571228027	47100841.23566862
2.3595502376556396	48305258.480660126
2.3623859882354736	48765371.81238688
2.3652172088623047	49069018.432061024
2.368043899536133	46967121.95537113
2.370866537094116	43920488.149231076
2.3736846446990967	43901012.51342107
2.3764986991882324	45127996.68402733
2.3793084621429443	45365867.7829733
2.3821144104003906	46140771.530836515
2.384916305541992	47215327.55727956
2.387714147567749	47966554.29414302
2.3905084133148193	47840640.81608783
2.393299102783203	46479569.0966441
2.3960859775543213	46441603.970719784
2.398869514465332	47474754.20856667
2.4016497135162354	46866412.22352014
2.4044265747070312	46173555.86105868
2.407200336456299	46775710.681933805
2.409970998764038	47238533.14974511
2.4127390384674072	47203664.50985518
2.415503978729248	46541771.47154517
2.418266534805298	45567467.29619444
2.4210267066955566	45903460.37346044
2.4237842559814453	46995999.03786593
2.426539897918701	47184702.72655037
2.429293394088745	47075732.026752815
2.4320452213287354	46085027.55545741
2.4347951412200928	42706805.62206986
2.4375438690185547	41760377.33403285
2.440291166305542	44089882.92319625
2.443037271499634	43900024.45662151
2.445782423019409	42964320.09139356
2.4485268592834473	44039520.35721953
2.451270818710327	43186452.314067036
2.454014539718628	40973971.200131826
2.4567582607269287	42095158.50450528
2.4595019817352295	42783447.6100949
2.4622461795806885	42752447.09501299
2.4649908542633057	42794014.96747437
2.4677364826202393	39636844.2158117
2.4704833030700684	37583228.31484634
2.473231554031372	36228475.51154641
2.4759814739227295	36185269.88341239
2.4787333011627197	38585777.39760113
2.481487512588501	38548093.075428784
