#wavelength	surface flux
0.6450077295303345	38842.44942629323
0.6472567915916443	58590.8794532641
0.6494921445846558	70706.69364912019
0.6517150402069092	74211.25018931982
0.6539263725280762	77089.57269336416
0.6561272740364075	79100.79304734373
0.6583186388015747	81857.81254413632
0.6605015397071838	86576.9610142291
0.6626768708229065	91089.62929626853
0.6648455858230591	94743.64233979721
0.6670085787773132	98178.82721487898
0.6691668033599854	100498.83710535898
0.6713210344314575	103016.7549076423
0.6734722256660461	108173.8083407132
0.6756211519241333	113455.93613110091
0.6777685880661011	116860.75633309997
0.6799154281616211	119926.32359803886
0.6820623278617859	122503.64620241671
0.6842101216316223	124241.88448941614
0.6863595843315125	124514.43601742775
0.688511312007904	123150.53933527372
0.6906660795211792	125190.46301190506
0.6928245425224304	132780.59446369356
0.6949873566627502	141620.0245978198
0.6971551775932312	148351.52344646648
0.6993286609649658	154287.53912574027
0.7015084028244019	163620.0263942328
0.7036949396133423	175619.99625403172
0.7058889269828796	186021.4176073516
0.7080909013748169	193732.83231910263
0.710301399230957	200488.70765166354
0.712520956993103	207468.4820831532
0.7147500514984131	214581.62731051544
0.7169892191886902	221921.19020486
0.7192389369010925	229660.8487538252
0.7214996814727783	237684.16610332025
0.723771870136261	246001.99008816024
0.7260559797286987	254531.03826765332
0.7283523678779602	263188.18329679157
0.7306615710258484	271578.2413700187
0.7329838871955872	277277.7108895035
0.7353196740150452	280649.0059041935
0.7376693487167358	285211.0590028667
0.7400332689285278	290044.25115569116
0.7424117922782898	295094.07429665315
0.7448052167892456	302374.39763877116
0.7472138404846191	313476.8181079827
0.7496379613876343	327626.39900815126
0.7520779371261597	341000.50918791053
0.7545340061187744	352791.83845394733
0.7570064663887024	360337.0485327064
0.7594954967498779	354866.6379362555
0.7620013952255249	313421.6022908138
0.7645244002342224	213524.82153808404
0.7670646905899048	113275.71053418567
0.7696225643157959	109350.90418080689
0.7721980810165405	221010.0530846724
0.7747915983200073	364512.73466313595
0.7774031162261963	443184.98819483287
0.7800329327583313	467696.13799166266
0.7826811671257019	503271.0436066631
0.7853479981422424	547157.7066349571
0.7880334854125977	574200.3952905566
0.7907378077507019	589244.2588125586
0.7934610247612	590034.1362490797
0.7962033748626709	602889.6883076889
0.7989648580551147	641154.2883374619
0.801745593547821	675275.3553118333
0.8045456409454346	700553.0627284354
0.8073651194572449	727339.213788959
0.8102040886878967	755539.9494167725
0.8130625486373901	783849.6097135567
0.8159406185150146	812057.9950347233
0.8188382983207703	840366.384156857
0.8217556476593018	868807.126994567
0.8246926665306091	897989.5869498877
0.8276493549346924	928179.9953337988
0.8306257724761963	959193.8399738983
0.8336219191551208	991172.1990394562
0.8366377949714661	1024099.0019490881
0.8396733403205872	1057800.198778404
0.8427285552024841	1092277.3388873516
0.8458034992218018	1127523.7190090672
0.8488980531692505	1163312.8545896395
0.8520121574401855	1197351.9009128825
0.8551458716392517	1230459.4556434888
0.8582990765571594	1264219.4079321283
0.8614717125892639	1297259.496647669
0.8646637797355652	1332562.4045958198
0.8678751587867737	1374225.7066088475
0.8711057901382446	1423617.8399508917
0.8743556141853333	1477770.952353563
0.87762451171875	1532587.9359033548
0.8809124231338501	1587145.9660820945
0.8842192888259888	1641786.8167772768
0.8875449895858765	1696915.3739282622
0.8908893465995789	1751030.6030919661
0.894252359867096	1804629.41564285
0.8976338505744934	1860295.0419117976
0.9010337591171265	1919834.3822486573
0.9044519662857056	1982075.2759557392
0.9078882932662964	2044348.4628686607
0.9113426208496094	2107209.3279965394
0.914814829826355	2170979.315568871
0.9183048605918884	2235786.367220464
0.9218124747276306	2301268.91028638
0.925337553024292	2359419.676842432
0.9288799166679382	2407578.6256008884
0.9324395060539246	2456635.5235015713
0.9360161423683167	2526048.867850631
0.9396095871925354	2627763.313663695
0.943219780921936	2728382.038289044
0.9468464851379395	2802126.1734730974
0.9504896402359009	2875375.563162742
0.9541489481925964	2960566.339730498
0.9578243494033813	3046116.452342924
0.9615156054496765	3134193.2769222734
0.9652225375175476	3234375.815562823
0.9689450263977051	3338188.592669754
0.9726828336715698	3435585.4237807416
0.9764357805252075	3533243.3004327766
0.9802037477493286	3635014.754146273
0.983986496925354	3737884.2545656795
0.9877838492393494	3840836.970542236
0.9915955662727356	3947081.8104072595
0.9954215884208679	4056829.3849249273
0.9992615580558777	4166421.2455654843
1.0031154155731201	4276955.5744013805
1.0069829225540161	4391479.292500932
1.0108637809753418	4509207.734192744
1.0147579908370972	4629285.413528542
1.018665075302124	4751328.013606969
1.022585153579712	4874893.847080719
1.0265177488327026	5000762.214950176
1.0304628610610962	5128837.122941848
1.0344202518463135	5259069.613657933
1.0383895635604858	5392107.711030237
1.0423706769943237	5527434.358240439
1.0463634729385376	5663438.749719543
1.0503677129745483	5800725.169965335
1.0543830394744873	5941096.257865069
1.058409333229065	6086063.016039687
1.0624464750289917	6238382.782508352
1.0664942264556885	6394351.745084608
1.0705522298812866	6549143.470888107
1.0746204853057861	6705007.917417893
1.0786986351013184	6863240.768762772
1.0827864408493042	7022453.112605886
1.086883783340454	7179982.234379095
1.0909905433654785	7332581.450096933
1.0951062440872192	7473248.58803136
1.0992310047149658	7604674.920280155
1.10336434841156	7755041.4112625895
1.1075061559677124	7926557.823419523
1.1116561889648438	8055127.7529089525
1.115814208984375	8121536.063891661
1.1199802160263062	8196877.538051531
1.124153733253479	8367951.589103838
1.1283347606658936	8645877.70768523
1.1325229406356812	8879309.093882594
1.1367181539535522	9063733.578392277
1.1409201622009277	9284210.284441935
1.145128846168518	9457191.177747566
1.1493438482284546	9623964.420881018
1.1535650491714478	9859896.385148698
1.1577922105789185	10072691.006468872
1.1620250940322876	10241533.926466277
1.1662636995315552	10446213.3511447
1.170507550239563	10663310.851924373
1.174756646156311	10883041.063867271
1.1790107488632202	11142643.447113078
1.1832695007324219	11398401.756813211
1.1875330209732056	11636632.667514963
1.191800832748413	11882989.266067993
1.1960728168487549	12117830.56213479
1.2003488540649414	12344022.154299771
1.2046287059783936	12579528.616506943
1.2089121341705322	12812408.843188973
1.2131990194320679	13039539.064157441
1.2174891233444214	13269559.53917061
1.2217823266983032	13504324.549793156
1.2260783910751343	13739892.207242703
1.230377197265625	13975951.646580163
1.2346785068511963	14215160.624928359
1.238982081413269	14455243.770225512
1.2432878017425537	14694592.731806826
1.2475954294204712	14933977.172197415
1.2519049644470215	15172110.83057823
1.256216049194336	15414478.20140993
1.2605286836624146	15662189.409281826
1.2648425102233887	15908171.83944982
1.2691574096679688	16152065.027392827
1.2734732627868652	16397398.895335915
1.2777899503707886	16643918.532846153
1.2821072340011597	16887359.88661913
1.2864248752593994	17128827.785919104
1.2907428741455078	17360405.451721884
1.2950609922409058	17586582.712634098
1.2993791103363037	17844550.80323305
1.303696870803833	18126592.273896586
1.3080145120620728	18391024.889476582
1.3123314380645752	18631542.351023287
1.3166478872299194	18861940.63387069
1.3209635019302368	19075788.612317827
1.3252781629562378	19277906.81081994
1.3295916318893433	19345270.852388497
1.3339040279388428	18941876.617159385
1.3382149934768677	18275374.681748305
1.3425244092941284	17783918.48436091
1.3468321561813354	17415777.528518472
1.3511382341384888	17014968.45897328
1.3554422855377197	16827796.697634988
1.3597444295883179	17132463.48485027
1.3640443086624146	17635148.63309247
1.3683418035507202	18315667.214259993
1.3726370334625244	19213654.275712684
1.3769296407699585	20061381.81825331
1.381219506263733	20491348.48238835
1.3855066299438477	20271152.474385098
1.3897908926010132	19796210.37808105
1.3940720558166504	19634789.80821268
1.3983501195907593	20040911.5505946
1.4026249647140503	20443265.544833817
1.4068963527679443	20747044.59943773
1.4111642837524414	21146978.398064535
1.4154287576675415	20799130.33074548
1.419689416885376	20089324.894108992
1.4239463806152344	20080672.343398143
1.4281994104385376	20773687.592924688
1.4324485063552856	22031026.143009126
1.436693549156189	22851099.097210772
1.440934419631958	23076021.89659938
1.4451709985733032	23579638.12619079
1.449403166770935	24069157.456597473
1.453631043434143	24519040.96341856
1.4578542709350586	25223752.38688546
1.4620729684829712	25664461.11205444
1.4662868976593018	25819447.663677175
1.4704961776733398	26251072.177670237
1.4747005701065063	26767948.8506013
1.4788999557495117	27223223.17361469
1.4830944538116455	27599961.72244537
1.4872838258743286	27819772.194955174
1.491468071937561	28070365.56153528
1.4956470727920532	28417487.583112698
1.4998208284378052	28772110.762951005
1.5039892196655273	29274653.267968446
1.5081522464752197	29818016.973685972
1.5123097896575928	30239399.990935512
1.5164618492126465	30653093.82474398
1.5206083059310913	31052787.854111295
1.5247491598129272	31324778.92941998
1.5288842916488647	31483609.43215019
1.5330137014389038	31786740.178741295
1.5371372699737549	32244960.91918404
1.541254997253418	32630358.002741843
1.545366883277893	32928233.31743857
1.5494728088378906	33227104.352186073
1.5535727739334106	33518459.463719834
1.5576666593551636	33773392.593985274
1.561754584312439	34028143.68667007
1.5658363103866577	34318808.38386203
1.5699119567871094	34595683.36834722
1.5739814043045044	34861603.77030743
1.5780447721481323	35152638.87067305
1.582101821899414	35435035.98823749
1.5861525535583496	35701827.35070035
1.5901970863342285	35965602.338754535
1.5942351818084717	36227034.95524112
1.5982669591903687	36481714.886031784
1.6022924184799194	36729329.4507379
1.606311559677124	36971617.157789856
1.6103241443634033	37210307.11099904
1.6143304109573364	37451993.15768239
1.6183301210403442	37688847.62198404
1.6223233938217163	37876579.51566584
1.6263102293014526	38009223.75608298
1.6302905082702637	38129567.72680471
1.634264349937439	38281622.764423825
1.638231635093689	38620987.46627179
1.6421923637390137	39025429.18917718
1.646146535873413	39301352.73591127
1.6500942707061768	39538153.35074743
1.6540353298187256	39740574.23495483
1.6579699516296387	39934749.07762427
1.661897897720337	40056291.99951915
1.6658192873001099	40026988.2391636
1.6697341203689575	40247174.68416583
1.6736423969268799	40698899.851618774
1.677544116973877	40962355.34881444
1.6814392805099487	41173135.33316821
1.6853278875350952	41448430.00959554
1.6892099380493164	41669941.17366108
1.6930854320526123	41819326.87216292
1.696954369544983	41960717.6431838
1.7008168697357178	42126147.87753075
1.7046726942062378	42324613.78139793
1.708522081375122	42590575.699195206
1.712364912033081	42873974.676851764
1.7162011861801147	43051221.91089059
1.7200311422348022	43148740.57947245
1.723854422569275	43148288.3235603
1.7276713848114014	42983841.67736802
1.731481909751892	42843406.3474821
1.7352858781814575	42820079.95800265
1.7390835285186768	42883697.64785139
1.7428747415542603	43104806.19684655
1.7466596364974976	43540584.58982237
1.7504380941390991	43688599.93330814
1.7542102336883545	43295566.13608797
1.7579760551452637	43134628.7346393
1.7617355585098267	43200869.30511719
1.7654887437820435	42659572.495688155
1.7692357301712036	42017032.68267657
1.7729763984680176	41992741.09418796
1.776710867881775	42107953.63171152
1.7804391384124756	42082923.093868546
1.7841613292694092	41888359.405442216
1.7878772020339966	40860986.83601062
1.7915871143341064	39613385.368080035
1.7952908277511597	39286209.762544885
1.7989884614944458	38677923.67973551
1.8026801347732544	38222896.387304455
1.806365728378296	37986583.370621614
1.8100452423095703	37823082.11056834
1.8137187957763672	39219177.18877108
1.817386507987976	40448838.16457715
1.8210482597351074	41032837.734332316
1.8247040510177612	41654624.75992929
1.828354001045227	41447044.89415088
1.8319982290267944	41983124.83603099
1.8356364965438843	43050097.74658526
1.8392690420150757	42397114.194356754
1.8428958654403687	40940206.58801666
1.8465168476104736	39725541.92107908
1.8501322269439697	39729152.80089102
1.8537418842315674	39619268.35760649
1.8573459386825562	38107188.597683884
1.860944390296936	37233428.691355534
1.864537239074707	37565275.07675981
1.8681244850158691	38190483.43104719
1.871706247329712	38627999.03357883
1.8752825260162354	39990888.40787837
1.8788533210754395	42359722.03353568
1.8824186325073242	43509902.55026317
1.8859784603118896	43974041.39657171
1.8895330429077148	45243243.121024415
1.8930821418762207	46054018.39196346
1.8966259956359863	45938862.92743402
1.9001644849777222	45250031.76156846
1.9036977291107178	45243633.50227178
1.9072256088256836	46011866.26270125
1.9107483625411987	45799306.24728922
1.9142658710479736	45843729.18319813
1.9177782535552979	45613180.44383239
1.9212853908538818	43708634.6751424
1.9247875213623047	43747965.05093473
1.9282845258712769	45613655.87899516
1.9317764043807983	45608081.59800216
1.9352631568908691	44257814.67253263
1.9387450218200684	42575763.184733085
1.942221760749817	41262079.944261275
1.9456936120986938	41090973.60912474
1.9491604566574097	42064065.84377205
1.952622413635254	42543487.961090975
1.956079363822937	41048634.95459835
1.959531545639038	40932709.2171937
1.962978720664978	44166153.49542
1.966421127319336	47084708.48661193
1.9698586463928223	47272200.2517131
1.9732913970947266	46423835.78086237
1.9767193794250488	46614920.41815654
1.9801424741744995	47982869.261711575
1.9835609197616577	49121275.00039992
1.9869745969772339	48520955.374310814
1.990383505821228	47215688.705618456
1.9937876462936401	48196951.15766766
1.9971871376037598	49355689.520749405
2.000581979751587	48925989.19299119
2.003972291946411	49436826.45063163
2.007357597351074	50657046.69920935
2.0107386112213135	51691090.34531537
2.0141148567199707	52177397.213636175
2.017486572265625	52178813.30490584
2.0208535194396973	52873665.60370481
2.0242159366607666	53481694.84282171
2.027573823928833	52774778.92768415
2.0309269428253174	52484196.16075927
2.034275770187378	53486435.24902215
2.0376198291778564	54164191.8953585
2.040959596633911	54238800.09814724
2.044294595718384	54719918.6318606
2.0476250648498535	55375090.51939487
2.0509510040283203	55733187.53061375
2.054272413253784	56069703.17726148
2.057589530944824	56432475.78610451
2.0609018802642822	56586760.6732172
2.0642096996307373	56643737.7396628
2.0675129890441895	56977781.09006253
2.0708119869232178	57374408.72461997
2.074106216430664	57593162.49920826
2.0773961544036865	57581936.17179519
2.080681324005127	57434198.53183658
2.0839622020721436	57530982.45874946
2.087238311767578	57877577.92623423
2.090510129928589	58227192.61803678
2.0937774181365967	58472916.01316405
2.0970399379730225	58590052.41029382
2.1002981662750244	58685450.296848476
2.1035518646240234	58827294.99494652
2.1068007946014404	58962334.41049139
2.1100454330444336	58999385.42206434
2.1132853031158447	59028107.85247363
2.116520881652832	59155289.9412758
2.1197516918182373	59341985.38209297
2.1229779720306396	59469959.65664337
2.12619948387146	59535530.3340089
2.1294167041778564	59651103.1473076
2.132629156112671	59798189.43433211
2.1358368396759033	59907393.83435538
2.139039993286133	59968222.33254395
2.1422386169433594	60023042.90381955
2.145432472229004	60056522.08655508
2.1486217975616455	60081306.4281548
2.151806354522705	60170297.00154289
2.1549863815307617	60245205.48588954
2.1581614017486572	60350700.87080956
2.16133189201355	60503881.7022215
2.1644976139068604	60588730.33649608
2.167658567428589	60649368.074490175
2.1708147525787354	60685906.36954557
2.173966407775879	60704790.65814897
2.1771130561828613	60794368.2428216
2.1802549362182617	60905702.59236879
2.183391809463501	60928858.41591551
2.1865241527557373	60955393.56465592
2.1896514892578125	61072789.69707739
2.1927738189697266	61148422.056137934
2.1958916187286377	61095405.45117967
2.1990041732788086	60959743.47875263
2.2021119594573975	60938167.64379829
2.2052149772644043	61157205.503387176
2.208312749862671	61419293.823980145
2.2114057540893555	61547775.8566617
2.214493751525879	61521992.57598294
2.217576742172241	61187410.337833904
2.2206547260284424	60676877.27949
2.2237277030944824	60600485.92033759
2.2267956733703613	60782495.79440314
2.2298583984375	60857828.58935282
2.2329163551330566	60927167.47593731
2.235969066619873	60938074.62279345
2.2390167713165283	61123440.12992006
2.2420592308044434	61215221.78921508
2.2450966835021973	61010305.935530566
2.248128890991211	61094941.96819369
2.2511560916900635	61162629.28859749
2.254178285598755	60811814.94290448
2.257194995880127	60877905.86825612
2.260206699371338	61444972.36840708
2.2632133960723877	61604126.35485561
2.266214609146118	61389637.46986408
2.2692108154296875	61267824.8026248
2.2722020149230957	61550680.70942681
2.2751877307891846	61888905.186229825
2.278168201446533	61663522.843016855
2.2811436653137207	61359496.63894232
2.284113883972168	61260085.76942234
2.287078857421875	61077622.7329363
2.290038824081421	60664404.6261946
2.2929933071136475	58937339.753245614
2.295942783355713	57334285.58068396
2.298887014389038	57775978.80992067
2.301826238632202	57740927.82840807
2.304760217666626	56409600.94454631
2.3076889514923096	56964040.70021264
2.310612440109253	59175238.61551835
2.3135311603546143	59540041.887022704
2.3164443969726562	58391814.76491641
2.319352865219116	57435316.14159968
2.322256088256836	56130890.33263482
2.3251543045043945	55321273.21831601
2.328047275543213	56382412.07646638
2.330935478210449	57825868.88075735
2.3338186740875244	58172967.87981708
2.3366971015930176	57573414.35471123
2.3395702838897705	57636579.842289045
2.3424389362335205	58208940.97178456
2.3453025817871094	57358133.240433946
2.348161458969116	56500560.51453612
2.351015567779541	55679942.04363688
2.353865146636963	55399715.23708429
2.3567099571228027	56860887.143573776
2.3595502376556396	57575615.2627889
2.3623859882354736	57700604.68736749
2.3652172088623047	57913243.802046016
2.368043899536133	56759049.39889243
2.370866537094116	55617113.40642791
2.3736846446990967	56266579.56488275
2.3764986991882324	56722488.32307871
2.3793084621429443	55995218.40641006
2.3821144104003906	56186450.07558137
2.384916305541992	57207106.90675195
2.387714147567749	58008100.62608025
2.3905084133148193	57823031.27290357
2.393299102783203	56292769.92402179
2.3960859775543213	56342911.02103922
2.398869514465332	57528065.25929725
2.4016497135162354	56964072.62265209
2.4044265747070312	56579529.25274698
2.407200336456299	57226901.30052992
2.409970998764038	57507244.464788735
2.4127390384674072	57392737.07067187
2.415503978729248	56870798.615914375
2.418266534805298	56040379.076876834
2.4210267066955566	55873589.296400495
2.4237842559814453	56479040.25742426
2.426539897918701	56769015.15884367
2.429293394088745	56420411.77357811
2.4320452213287354	54801763.62673115
2.4347951412200928	51438837.785348065
2.4375438690185547	50819826.650074475
2.440291166305542	53039569.769220956
2.443037271499634	52590774.78893644
2.445782423019409	51712326.84206371
2.4485268592834473	53080306.52679443
2.451270818710327	52014219.88496842
2.454014539718628	49170662.12026054
2.4567582607269287	50396975.36213183
2.4595019817352295	51103133.0009963
2.4622461795806885	50941989.15789818
2.4649908542633057	51026554.07235399
2.4677364826202393	47421149.84635756
2.4704833030700684	45117746.41929519
2.473231554031372	43488746.5761124
2.4759814739227295	43295209.1648504
2.4787333011627197	46058054.153550126
2.481487512588501	46100580.53456391
2.4842441082000732	46519129.7539157
2.4870035648345947	46251205.60118052
