#wavelength	surface flux
0.6450077295303345	21506.975500032706
0.6472567915916443	32465.937613185357
0.6494921445846558	39228.14927176749
0.6517150402069092	41191.65534477735
0.6539263725280762	42922.70600175322
0.6561272740364075	44624.249592751956
0.6583186388015747	46493.57997908009
0.6605015397071838	48685.12356319693
0.6626768708229065	50889.5797740108
0.6648455858230591	53003.75899845056
0.6670085787773132	55028.082747303175
0.6691668033599854	56352.05862009732
0.6713210344314575	57797.28292266839
0.6734722256660461	60913.99012644968
0.6756211519241333	64210.57819443301
0.6777685880661011	66564.09417300219
0.6799154281616211	68793.41407184702
0.6820623278617859	70788.7608829583
0.6842101216316223	72423.84574791821
0.6863595843315125	73382.11495801981
0.688511312007904	73422.09210692775
0.6906660795211792	74771.53920408522
0.6928245425224304	78752.79667010343
0.6949873566627502	83361.11531614997
0.6971551775932312	86927.39894354033
0.6993286609649658	90503.44208317778
0.7015084028244019	96044.73429116297
0.7036949396133423	102414.57679623782
0.7058889269828796	107680.20820743135
0.7080909013748169	112010.87720209888
0.710301399230957	116107.7485207506
0.712520956993103	120320.31875680736
0.7147500514984131	124593.94894951292
0.7169892191886902	129020.26857672467
0.7192389369010925	133763.81205048988
0.7214996814727783	138683.46503257044
0.723771870136261	143710.35822801938
0.7260559797286987	148897.59652576142
0.7283523678779602	154221.6651641413
0.7306615710258484	159475.7481847642
0.7329838871955872	163495.16289004034
0.7353196740150452	166425.14235499897
0.7376693487167358	170042.78501565717
0.7400332689285278	173936.5431943924
0.7424117922782898	177998.49959014275
0.7448052167892456	183310.7768848279
0.7472138404846191	190828.887316263
0.7496379613876343	200168.70026679648
0.7520779371261597	209512.02219787668
0.7545340061187744	218900.43888845158
0.7570064663887024	227962.37393556922
0.7594954967498779	234875.50564960262
0.7620013952255249	230811.1920897811
0.7645244002342224	193565.6507795307
0.7670646905899048	144027.49288469704
0.7696225643157959	145258.56533891786
0.7721980810165405	206769.2860270345
0.7747915983200073	271298.068490409
0.7774031162261963	299599.86737191066
0.7800329327583313	308626.3160442574
0.7826811671257019	323008.2507553742
0.7853479981422424	340835.22005732235
0.7880334854125977	354343.6819480581
0.7907378077507019	364331.5232429633
0.7934610247612	369357.2603290046
0.7962033748626709	379240.871757624
0.7989648580551147	398580.6169440216
0.801745593547821	416703.97637598246
0.8045456409454346	432363.7613872164
0.8073651194572449	449024.9439733395
0.8102040886878967	466418.99688709155
0.8130625486373901	484104.3356511329
0.8159406185150146	502026.85844167194
0.8188382983207703	520156.11690243427
0.8217556476593018	538435.38211797
0.8246926665306091	557240.1307221364
0.8276493549346924	576826.5188219235
0.8306257724761963	597075.5656401581
0.8336219191551208	617965.9344634505
0.8366377949714661	639450.1963612037
0.8396733403205872	661528.7340915074
0.8427285552024841	684277.6762746604
0.8458034992218018	707645.8427720541
0.8488980531692505	731537.2318760519
0.8520121574401855	754744.25144022
0.8551458716392517	777666.9005881434
0.8582990765571594	801409.0594436704
0.8614717125892639	825529.8006471625
0.8646637797355652	850756.8765220473
0.8678751587867737	878895.7509524508
0.8711057901382446	911254.5465925044
0.8743556141853333	946278.0829482942
0.87762451171875	982003.6407189284
0.8809124231338501	1017762.2353216822
0.8842192888259888	1053443.9011681934
0.8875449895858765	1089650.8460047962
0.8908893465995789	1125507.6497594404
0.894252359867096	1161329.3253229077
0.8976338505744934	1198852.6630284295
0.9010337591171265	1239586.0328392475
0.9044519662857056	1282697.3290561636
0.9078882932662964	1325678.6794442413
0.9113426208496094	1368822.6616776907
0.914814829826355	1412539.9223389076
0.9183048605918884	1457054.4117767191
0.9218124747276306	1501958.4180432311
0.925337553024292	1540524.213153068
0.9288799166679382	1571128.7364608438
0.9324395060539246	1601604.4450495667
0.9360161423683167	1647191.3453953601
0.9396095871925354	1721681.9345125137
0.943219780921936	1796810.7048148625
0.9468464851379395	1847136.8899614988
0.9504896402359009	1896880.4741479359
0.9541489481925964	1957389.4998485774
0.9578243494033813	2017378.422974942
0.9615156054496765	2079478.2916661352
0.9652225375175476	2152936.047793077
0.9689450263977051	2229343.8403687594
0.9726828336715698	2298729.218770487
0.9764357805252075	2368112.5697409105
0.9802037477493286	2441340.3183258926
0.983986496925354	2514774.5816729353
0.9877838492393494	2588042.7827743446
0.9915955662727356	2665108.0426323037
0.9954215884208679	2745099.488839287
0.9992615580558777	2824443.906694223
1.0031154155731201	2904645.4691523085
1.0069829225540161	2987779.910855594
1.0108637809753418	3073147.682641492
1.0147579908370972	3160382.58759209
1.018665075302124	3249413.3378262115
1.022585153579712	3340084.6810713755
1.0265177488327026	3432485.6076042578
1.0304628610610962	3526356.420017445
1.0344202518463135	3622227.4375550584
1.0383895635604858	3720235.47769663
1.0423706769943237	3819699.227322509
1.0463634729385376	3920046.5774228587
1.0503677129745483	4022025.087784951
1.0543830394744873	4126903.938719753
1.058409333229065	4235235.259666781
1.0624464750289917	4349119.224048607
1.0664942264556885	4466066.883650424
1.0705522298812866	4581846.257513428
1.0746204853057861	4698066.209382452
1.0786986351013184	4816457.517342202
1.0827864408493042	4936878.010256397
1.086883783340454	5056428.159280486
1.0909905433654785	5170538.907744752
1.0951062440872192	5272321.996694697
1.0992310047149658	5366015.864253154
1.10336434841156	5484089.38637805
1.1075061559677124	5628691.895554751
1.1116561889648438	5726276.900388828
1.115814208984375	5754021.033664545
1.1199802160263062	5791138.233396787
1.124153733253479	5918749.798174602
1.1283347606658936	6143169.275641869
1.1325229406356812	6332890.81170845
1.1367181539535522	6473198.930862712
1.1409201622009277	6637499.2450955035
1.145128846168518	6764047.740042326
1.1493438482284546	6899121.437076453
1.1535650491714478	7104310.581455759
1.1577922105789185	7275600.435265638
1.1620250940322876	7391116.250125776
1.1662636995315552	7544404.183874027
1.170507550239563	7716773.27137691
1.174756646156311	7887093.09535016
1.1790107488632202	8094243.8140381845
1.1832695007324219	8300800.292603662
1.1875330209732056	8495145.8765551
1.191800832748413	8699025.182829702
1.1960728168487549	8885160.682579644
1.2003488540649414	9061451.802539483
1.2046287059783936	9251208.314677581
1.2089121341705322	9437860.78075303
1.2131990194320679	9617381.474376094
1.2174891233444214	9801103.142729802
1.2217823266983032	9990890.502985986
1.2260783910751343	10181624.824074611
1.230377197265625	10372286.34862827
1.2346785068511963	10565945.374040937
1.238982081413269	10760732.245130204
1.2432878017425537	10954629.339507105
1.2475954294204712	11149070.794217013
1.2519049644470215	11343123.107010335
1.256216049194336	11540823.053112142
1.2605286836624146	11743628.92222665
1.2648425102233887	11944916.288271379
1.2691574096679688	12142988.156238895
1.2734732627868652	12342923.267406013
1.2777899503707886	12545254.241543887
1.2821072340011597	12744663.273468526
1.2864248752593994	12943265.829829551
1.2907428741455078	13130551.91937276
1.2950609922409058	13309421.708558118
1.2993791103363037	13523233.85051077
1.303696870803833	13764061.389665758
1.3080145120620728	13986306.890551627
1.3123314380645752	14187389.310974233
1.3166478872299194	14376942.205910165
1.3209635019302368	14541779.38225221
1.3252781629562378	14705861.582132705
1.3295916318893433	14776223.244615033
1.3339040279388428	14461091.703078056
1.3382149934768677	13981944.328670014
1.3425244092941284	13695215.512354812
1.3468321561813354	13502410.813876428
1.3511382341384888	13191948.559264991
1.3554422855377197	13017525.971348494
1.3597444295883179	13314501.515631674
1.3640443086624146	13690472.939723756
1.3683418035507202	14080095.065972334
1.3726370334625244	14677452.870052403
1.3769296407699585	15399333.68058303
1.381219506263733	15882049.06909646
1.3855066299438477	15741141.787568893
1.3897908926010132	15379359.31061111
1.3940720558166504	15328453.470575774
1.3983501195907593	15644517.956759721
1.4026249647140503	15846090.835466063
1.4068963527679443	16033415.92847624
1.4111642837524414	16434018.6409155
1.4154287576675415	16151956.01407388
1.419689416885376	15480328.014843771
1.4239463806152344	15421527.47411157
1.4281994104385376	16035720.408133628
1.4324485063552856	17212276.875779588
1.436693549156189	17934438.73123218
1.440934419631958	18051704.58053751
1.4451709985733032	18506759.471760143
1.449403166770935	18965254.971664783
1.453631043434143	19252338.71727893
1.4578542709350586	19783109.781856522
1.4620729684829712	20130935.565430578
1.4662868976593018	20194588.23340425
1.4704961776733398	20553947.16844713
1.4747005701065063	21045299.390385456
1.4788999557495117	21492017.32339434
1.4830944538116455	21808796.15380665
1.4872838258743286	21918310.45546665
1.491468071937561	22116058.565961536
1.4956470727920532	22441499.470821157
1.4998208284378052	22766026.028231125
1.5039892196655273	23259138.504404444
1.5081522464752197	23760835.461715624
1.5123097896575928	24118878.562000938
1.5164618492126465	24497063.28903336
1.5206083059310913	24858969.1795055
1.5247491598129272	25068623.829674713
1.5288842916488647	25155252.42349029
1.5330137014389038	25421168.568715952
1.5371372699737549	25885925.61526193
1.541254997253418	26275722.232432712
1.545366883277893	26548598.68087283
1.5494728088378906	26809812.80119545
1.5535727739334106	27064487.22840222
1.5576666593551636	27269083.45917257
1.561754584312439	27477362.881829344
1.5658363103866577	27755597.21808786
1.5699119567871094	28019706.286537915
1.5739814043045044	28255297.981040314
1.5780447721481323	28521697.063929826
1.582101821899414	28789191.222108554
1.5861525535583496	29044229.929058995
1.5901970863342285	29286806.926808514
1.5942351818084717	29522972.640708115
1.5982669591903687	29756060.969081834
1.6022924184799194	29979075.61742645
1.606311559677124	30192178.091368876
1.6103241443634033	30408537.661821183
1.6143304109573364	30639365.212261762
1.6183301210403442	30870232.602679335
1.6223233938217163	31084909.731631078
1.6263102293014526	31288020.665302917
1.6302905082702637	31485492.446491268
1.634264349937439	31687220.627400074
1.638231635093689	31908876.33330237
1.6421923637390137	32120832.83709763
1.646146535873413	32339646.96023983
1.6500942707061768	32586234.4548299
1.6540353298187256	32806104.24816859
1.6579699516296387	32994359.61535518
1.661897897720337	33181220.309285086
1.6658192873001099	33384366.27063532
1.6697341203689575	33592944.56191125
1.6736423969268799	33779527.37096644
1.677544116973877	33945412.8223337
1.6814392805099487	34140164.78019275
1.6853278875350952	34383174.5271819
1.6892099380493164	34620077.175574616
1.6930854320526123	34799638.62186418
1.696954369544983	34955172.454930104
1.7008168697357178	35142586.17510434
1.7046726942062378	35322110.69256118
1.708522081375122	35505952.21980265
1.712364912033081	35700155.11935693
1.7162011861801147	35828490.005727895
1.7200311422348022	35905740.43995571
1.723854422569275	35888842.54402809
1.7276713848114014	35672467.46969574
1.731481909751892	35448663.93107704
1.7352858781814575	35401137.23987071
1.7390835285186768	35532299.73574803
1.7428747415542603	35844108.45624674
1.7466596364974976	36425979.65026327
1.7504380941390991	36720627.46041884
1.7542102336883545	36403135.86152415
1.7579760551452637	36372469.85614587
1.7617355585098267	36475535.50505003
1.7654887437820435	35898719.65482471
1.7692357301712036	35336478.832416445
1.7729763984680176	35459158.526288986
1.776710867881775	35725318.06867598
1.7804391384124756	35827429.082546175
1.7841613292694092	35912253.715739004
1.7878772020339966	35103726.65048298
1.7915871143341064	33770126.74487738
1.7952908277511597	33418191.648219783
1.7989884614944458	33082597.444325443
1.8026801347732544	32904143.88234789
1.806365728378296	32647669.304814436
1.8100452423095703	32436207.17058379
1.8137187957763672	33759803.397796676
1.817386507987976	34893057.12230856
1.8210482597351074	35521918.971121535
1.8247040510177612	36035890.51056459
1.828354001045227	35750119.72767047
1.8319982290267944	36369598.86442822
1.8356364965438843	37670376.99115953
1.8392690420150757	37208023.939628035
1.8428958654403687	35509302.31857357
1.8465168476104736	34249325.44039215
1.8501322269439697	34686535.26652246
1.8537418842315674	35016862.20089997
1.8573459386825562	33763814.262170926
1.860944390296936	32984215.52485684
1.864537239074707	33316196.906786703
1.8681244850158691	33770924.93926849
1.871706247329712	33855559.24570977
1.8752825260162354	34629116.531168275
1.8788533210754395	36357076.692332745
1.8824186325073242	37162199.39932583
1.8859784603118896	37502963.14826814
1.8895330429077148	38765875.38200506
1.8930821418762207	39546233.217656106
1.8966259956359863	39364411.86193957
1.9001644849777222	38720860.969480865
1.9036977291107178	38882267.93164949
1.9072256088256836	39740112.90058675
1.9107483625411987	39626030.94138017
1.9142658710479736	39881325.08526424
1.9177782535552979	39770882.01018689
1.9212853908538818	38072875.84719059
1.9247875213623047	38119934.588165924
1.9282845258712769	39855473.860135004
1.9317764043807983	40150948.69993495
1.9352631568908691	39339464.257632405
1.9387450218200684	37934107.82156233
1.942221760749817	36122998.062615566
1.9456936120986938	35126139.58787961
1.9491604566574097	35878677.706435576
1.952622413635254	36916122.315106615
1.956079363822937	35983044.835922405
1.959531545639038	35628711.2249784
1.962978720664978	38456113.03912166
1.966421127319336	41298948.37918153
1.9698586463928223	41729170.44275204
1.9732913970947266	41182207.18599512
1.9767193794250488	41017756.62948771
1.9801424741744995	41937321.95072188
1.9835609197616577	42767716.36054863
1.9869745969772339	42069094.174421266
1.990383505821228	41105142.754042275
1.9937876462936401	41948446.23643842
1.9971871376037598	42654602.77936043
2.000581979751587	41760527.5705597
2.003972291946411	41916890.95412032
2.007357597351074	43475000.98779819
2.0107386112213135	44833125.277242534
2.0141148567199707	45028529.85511226
2.017486572265625	44938214.16355454
2.0208535194396973	45684967.398306206
2.0242159366607666	45848567.30465737
2.027573823928833	44763439.26423082
2.0309269428253174	44417931.00221016
2.034275770187378	45367491.35705177
2.0376198291778564	45999862.31040066
2.040959596633911	46058745.79655718
2.044294595718384	46569464.14461357
2.0476250648498535	47248900.03473621
2.0509510040283203	47589452.71255315
2.054272413253784	47931591.61905771
2.057589530944824	48264135.186171055
2.0609018802642822	48396032.988598995
2.0642096996307373	48512137.67834398
2.0675129890441895	48851084.508223504
2.0708119869232178	49199831.99048094
2.074106216430664	49422924.547282316
2.0773961544036865	49389859.01740762
2.080681324005127	49149234.75310877
2.0839622020721436	49203923.473723136
2.087238311767578	49547172.51336974
2.090510129928589	49886450.21786563
2.0937774181365967	50153298.24841369
2.0970399379730225	50272377.941087775
2.1002981662750244	50357906.59365744
2.1035518646240234	50499817.93654903
2.1068007946014404	50611425.536582
2.1100454330444336	50611644.247024655
2.1132853031158447	50621681.35029183
2.116520881652832	50755769.57041633
2.1197516918182373	50941981.5118291
2.1229779720306396	51053555.64252553
2.12619948387146	51108393.49963578
2.1294167041778564	51211631.875175014
2.132629156112671	51343325.32294844
2.1358368396759033	51440347.127330124
2.139039993286133	51492798.240475245
2.1422386169433594	51541288.93754958
2.145432472229004	51572562.67347102
2.1486217975616455	51601605.113541774
2.151806354522705	51692850.002837576
2.1549863815307617	51768458.256585844
2.1581614017486572	51860637.584556684
2.16133189201355	51992852.42854435
2.1644976139068604	52061506.55257023
2.167658567428589	52107188.55096128
2.1708147525787354	52137934.1955741
2.173966407775879	52152848.735072084
2.1771130561828613	52228958.07517102
2.1802549362182617	52323343.077472806
2.183391809463501	52342757.57670911
2.1865241527557373	52367996.77982819
2.1896514892578125	52471151.33682133
2.1927738189697266	52537527.351272166
2.1958916187286377	52538991.76568535
2.1990041732788086	52541578.070904896
2.2021119594573975	52599199.249686405
2.2052149772644043	52728145.8775733
2.208312749862671	52838277.86599292
2.2114057540893555	52884068.32082126
2.214493751525879	52864354.95613471
2.217576742172241	52665165.365942255
2.2206547260284424	52405166.4369278
2.2237277030944824	52473900.5738766
2.2267956733703613	52717297.890392184
2.2298583984375	52864918.61878918
2.2329163551330566	52930611.59572658
2.235969066619873	52934076.34540901
2.2390167713165283	53026736.12881973
2.2420592308044434	53133582.09577182
2.2450966835021973	53187013.03545924
2.248128890991211	53351575.164709136
2.2511560916900635	53429228.9445398
2.254178285598755	53235493.84911163
2.257194995880127	53122394.54495205
2.260206699371338	53186708.214377895
2.2632133960723877	53158171.24689153
2.266214609146118	53116897.74304093
2.2692108154296875	53049390.32109167
2.2722020149230957	53167876.35786298
2.2751877307891846	53491118.38277881
2.278168201446533	53422364.81335569
2.2811436653137207	53345470.106940195
2.284113883972168	53560101.50194587
2.287078857421875	53615403.29600947
2.290038824081421	53170256.89401738
2.2929933071136475	51150670.147734195
2.295942783355713	49458385.72508765
2.298887014389038	50216148.7245198
2.301826238632202	50318601.854969606
2.304760217666626	48975108.620518826
2.3076889514923096	49807985.01644924
2.310612440109253	52172963.98530081
2.3135311603546143	52464832.58472909
2.3164443969726562	51913860.312782474
2.319352865219116	51434926.62704954
2.322256088256836	49327909.459504776
2.3251543045043945	47645595.4129434
2.328047275543213	48496279.47580104
2.330935478210449	49944566.498020835
2.3338186740875244	50583374.000974
2.3366971015930176	50612952.52272229
2.3395702838897705	51045402.523785226
2.3424389362335205	51642129.60265315
2.3453025817871094	51064109.07216842
2.348161458969116	50711862.67798395
2.351015567779541	50054491.240699224
2.353865146636963	49216856.03884636
2.3567099571228027	49844900.64928657
2.3595502376556396	50038247.52423479
2.3623859882354736	49688847.9681538
2.3652172088623047	49532703.39329083
2.368043899536133	49262445.90372119
2.370866537094116	49742972.3088886
2.3736846446990967	50356811.71658932
2.3764986991882324	49540865.20840564
2.3793084621429443	48226684.49022375
2.3821144104003906	48456281.39184342
2.384916305541992	49410539.57383192
2.387714147567749	49974930.29824696
2.3905084133148193	49431034.38624037
2.393299102783203	47741834.42812318
2.3960859775543213	48462055.40177327
2.398869514465332	50141803.41503689
2.4016497135162354	49450395.114481494
2.4044265747070312	49549512.464028955
2.407200336456299	50791516.84389452
2.409970998764038	50839341.7229809
2.4127390384674072	50206237.96418823
2.415503978729248	50163190.742953785
2.418266534805298	50549015.47493329
2.4210267066955566	50268644.86154244
2.4237842559814453	50003481.81239008
2.426539897918701	50078122.456292614
2.429293394088745	49264432.211089626
2.4320452213287354	47268895.66360635
2.4347951412200928	44830200.5599936
2.4375438690185547	45081160.655870065
2.440291166305542	47210483.76007991
2.443037271499634	46661229.74027266
2.445782423019409	46180302.62439498
2.4485268592834473	47930420.885124564
2.451270818710327	47692903.53021715
2.454014539718628	45659597.4224639
2.4567582607269287	45785100.640650325
2.4595019817352295	45963754.39216859
2.4622461795806885	45960559.31289545
2.4649908542633057	45771373.35489686
2.4677364826202393	43323497.716047645
2.4704833030700684	42003298.24434156
2.473231554031372	40341706.83797183
2.4759814739227295	40231034.60764434
2.4787333011627197	43025270.93256895
2.481487512588501	42810044.91884934
2.4842441082000732	42365481.299710706
