#wavelength	surface flux
0.6450077295303345	8760.781839993195
0.6472567915916443	13289.908585698233
0.6494921445846558	16191.228913305664
0.6517150402069092	17152.563517442297
0.6539263725280762	18022.762742547966
0.6561272740364075	18898.82026190802
0.6583186388015747	19845.34181965072
0.6605015397071838	20912.79466783706
0.6626768708229065	22003.118507326657
0.6648455858230591	23086.972404975433
0.6670085787773132	24174.06732854657
0.6691668033599854	25118.958384466107
0.6713210344314575	26123.961468205995
0.6734722256660461	27559.64092501319
0.6756211519241333	29072.818488900768
0.6777685880661011	30406.03303873321
0.6799154281616211	31754.080603560164
0.6820623278617859	33121.977786791416
0.6842101216316223	34494.39464299329
0.6863595843315125	35813.32144381819
0.688511312007904	37031.84163998984
0.6906660795211792	38440.13410755479
0.6928245425224304	40239.826917492
0.6949873566627502	42184.15501714998
0.6971551775932312	43945.0775081812
0.6993286609649658	45812.02609078413
0.7015084028244019	48288.96747618049
0.7036949396133423	50930.92207195509
0.7058889269828796	53318.46517101678
0.7080909013748169	55620.16616672508
0.710301399230957	57968.942468624366
0.712520956993103	60418.20393770519
0.7147500514984131	62893.52161070379
0.7169892191886902	65443.36778145761
0.7192389369010925	68206.32393709941
0.7214996814727783	71119.12759089765
0.723771870136261	74120.95942445046
0.7260559797286987	77210.829834725
0.7283523678779602	80360.61893138144
0.7306615710258484	83574.61555340995
0.7329838871955872	86691.66334314327
0.7353196740150452	89726.69950479512
0.7376693487167358	92979.97503139118
0.7400332689285278	96355.59607350861
0.7424117922782898	99804.02657337823
0.7448052167892456	103499.12886859736
0.7472138404846191	107573.3761690605
0.7496379613876343	111860.7102564644
0.7520779371261597	115833.9778898664
0.7545340061187744	119118.26032501471
0.7570064663887024	120723.417263262
0.7594954967498779	117553.47449267295
0.7620013952255249	101341.28849042268
0.7645244002342224	66684.34129074245
0.7670646905899048	34378.46545356314
0.7696225643157959	33446.11343125307
0.7721980810165405	70486.98794707729
0.7747915983200073	121304.66152802593
0.7774031162261963	151769.94438288384
0.7800329327583313	162646.75144263494
0.7826811671257019	177573.96045399847
0.7853479981422424	195783.40526127207
0.7880334854125977	207639.9042947843
0.7907378077507019	215133.92718183785
0.7934610247612	217353.11965727943
0.7962033748626709	224247.0216567983
0.7989648580551147	241164.94734297317
0.801745593547821	256308.92376936867
0.8045456409454346	267478.09719303396
0.8073651194572449	278737.0216653651
0.8102040886878967	290182.7864174355
0.8130625486373901	302020.40455882554
0.8159406185150146	314562.4817964918
0.8188382983207703	327592.6878507877
0.8217556476593018	340766.9193493259
0.8246926665306091	354459.21141879534
0.8276493549346924	369009.38081371493
0.8306257724761963	384098.74505756603
0.8336219191551208	399667.99856828817
0.8366377949714661	415719.250908549
0.8396733403205872	432256.5590796738
0.8427285552024841	449431.93092839833
0.8458034992218018	467153.87655751035
0.8488980531692505	485560.5055129455
0.8520121574401855	504456.6583993304
0.8551458716392517	523719.24447347136
0.8582990765571594	543108.7061693958
0.8614717125892639	561804.575567761
0.8646637797355652	581750.5657362321
0.8678751587867737	604906.8383675538
0.8711057901382446	629788.2790911315
0.8743556141853333	655596.9284935866
0.87762451171875	682322.3563184463
0.8809124231338501	709342.5955562037
0.8842192888259888	736897.175623217
0.8875449895858765	765070.1698922758
0.8908893465995789	792771.0812550774
0.894252359867096	820276.4200957546
0.8976338505744934	849273.6983664401
0.9010337591171265	882671.500207439
0.9044519662857056	919338.3496533544
0.9078882932662964	954908.6616718684
0.9113426208496094	989678.2414157564
0.914814829826355	1024759.1295937048
0.9183048605918884	1061092.2952093794
0.9218124747276306	1097757.603884563
0.925337553024292	1124239.4223358275
0.9288799166679382	1136246.9549507508
0.9324395060539246	1145852.8963653983
0.9360161423683167	1180514.994689423
0.9396095871925354	1258167.7001711554
0.943219780921936	1333339.2536783197
0.9468464851379395	1370788.7842072865
0.9504896402359009	1407231.4250590135
0.9541489481925964	1460574.179589402
0.9578243494033813	1513392.5351176446
0.9615156054496765	1567429.3746447163
0.9652225375175476	1635663.3638482608
0.9689450263977051	1707380.0508961007
0.9726828336715698	1769088.6117136506
0.9764357805252075	1829752.0973154292
0.9802037477493286	1895757.2688231925
0.983986496925354	1962722.8624265904
0.9877838492393494	2028885.2139373962
0.9915955662727356	2098994.481631313
0.9954215884208679	2172360.993268201
0.9992615580558777	2244229.0403346093
1.0031154155731201	2316169.1069582887
1.0069829225540161	2390908.2555499696
1.0108637809753418	2467805.238410806
1.0147579908370972	2546267.216402723
1.018665075302124	2626423.4853420355
1.022585153579712	2707970.3398448643
1.0265177488327026	2791145.89004584
1.0304628610610962	2876081.188357191
1.0344202518463135	2962923.921754776
1.0383895635604858	3051872.3178420123
1.0423706769943237	3142777.0445174486
1.0463634729385376	3235065.30751628
1.0503677129745483	3328843.932254586
1.0543830394744873	3425043.2301362995
1.058409333229065	3524232.2452359595
1.0624464750289917	3628304.9578681504
1.0664942264556885	3735148.7296870113
1.0705522298812866	3841433.4701673486
1.0746204853057861	3948610.8466888075
1.0786986351013184	4057989.4338275203
1.0827864408493042	4169230.2404280407
1.086883783340454	4278204.479826602
1.0909905433654785	4378339.348841672
1.0951062440872192	4458362.37471489
1.0992310047149658	4520359.371716799
1.10336434841156	4606344.1416605245
1.1075061559677124	4727098.715434075
1.1116561889648438	4791313.929083055
1.115814208984375	4756900.815798415
1.1199802160263062	4731918.543069597
1.124153733253479	4847287.729146881
1.1283347606658936	5108029.117330288
1.1325229406356812	5305433.999250557
1.1367181539535522	5439866.799360798
1.1409201622009277	5621137.7783151455
1.145128846168518	5722677.740779449
1.1493438482284546	5817098.925568382
1.1535650491714478	6017357.418930397
1.1577922105789185	6191460.953038877
1.1620250940322876	6308814.378984543
1.1662636995315552	6470213.346225732
1.170507550239563	6648151.326773153
1.174756646156311	6844175.09535109
1.1790107488632202	7089447.416161408
1.1832695007324219	7307742.306646716
1.1875330209732056	7505502.357247195
1.191800832748413	7721483.655873723
1.1960728168487549	7913772.622226773
1.2003488540649414	8094065.604832871
1.2046287059783936	8292955.740172017
1.2089121341705322	8483941.47297335
1.2131990194320679	8661168.735676473
1.2174891233444214	8845285.788851155
1.2217823266983032	9037119.598325228
1.2260783910751343	9227437.56888894
1.230377197265625	9418452.324550297
1.2346785068511963	9616307.794012722
1.238982081413269	9816462.563327368
1.2432878017425537	10012904.167400328
1.2475954294204712	10206731.291783318
1.2519049644470215	10398946.284160268
1.256216049194336	10598469.999326129
1.2605286836624146	10804562.000491317
1.2648425102233887	11006032.782574972
1.2691574096679688	11202305.473729083
1.2734732627868652	11399006.585840309
1.2777899503707886	11597609.839099813
1.2821072340011597	11792166.935511904
1.2864248752593994	11986811.72130728
1.2907428741455078	12161320.368989872
1.2950609922409058	12319993.379919356
1.2993791103363037	12536198.759832783
1.303696870803833	12797462.970906127
1.3080145120620728	13030989.835568912
1.3123314380645752	13220089.123258034
1.3166478872299194	13383368.805550292
1.3209635019302368	13514586.45120029
1.3252781629562378	13633241.579326749
1.3295916318893433	13556628.10400494
1.3339040279388428	12796082.055367116
1.3382149934768677	11715871.895105125
1.3425244092941284	11146556.226584548
1.3468321561813354	10811942.388722392
1.3511382341384888	10223211.896195047
1.3554422855377197	9828844.435111351
1.3597444295883179	9892029.341697693
1.3640443086624146	10133128.236382758
1.3683418035507202	10714118.416452996
1.3726370334625244	11552869.902477073
1.3769296407699585	12398927.795989074
1.381219506263733	12908161.152915193
1.3855066299438477	12787470.065551873
1.3897908926010132	12414231.042281039
1.3940720558166504	12145982.010585088
1.3983501195907593	12230351.763338923
1.4026249647140503	12390394.951933501
1.4068963527679443	12589858.612795034
1.4111642837524414	13031537.693046303
1.4154287576675415	12790489.904666612
1.419689416885376	11942057.27404575
1.4239463806152344	11658570.669184852
1.4281994104385376	12285828.475114446
1.4324485063552856	13530265.490247568
1.436693549156189	14230839.735764712
1.440934419631958	14442469.722570708
1.4451709985733032	15027271.069044344
1.449403166770935	15629551.927470405
1.453631043434143	16313314.178031433
1.4578542709350586	17265465.468911525
1.4620729684829712	17580494.88118732
1.4662868976593018	17452400.37720589
1.4704961776733398	17878884.364242878
1.4747005701065063	18508142.786212653
1.4788999557495117	19109011.54285927
1.4830944538116455	19605582.82408528
1.4872838258743286	19827674.509334557
1.491468071937561	20074601.016743854
1.4956470727920532	20448143.933982547
1.4998208284378052	20828535.812131267
1.5039892196655273	21484592.971604954
1.5081522464752197	22240985.044874027
1.5123097896575928	22791787.653412916
1.5164618492126465	23324854.137596443
1.5206083059310913	23840293.854216877
1.5247491598129272	24132806.377771247
1.5288842916488647	24217261.892972145
1.5330137014389038	24568418.335493796
1.5371372699737549	25215068.386927526
1.541254997253418	25719103.461246338
1.545366883277893	26048862.826878488
1.5494728088378906	26373183.993434753
1.5535727739334106	26687192.40326929
1.5576666593551636	26953261.18148087
1.561754584312439	27219880.790658105
1.5658363103866577	27540849.12000731
1.5699119567871094	27840430.256584957
1.5739814043045044	28122187.077919386
1.5780447721481323	28448955.05176476
1.582101821899414	28759393.835335072
1.5861525535583496	29039140.459108844
1.5901970863342285	29314198.61861826
1.5942351818084717	29586892.640484624
1.5982669591903687	29848880.225953255
1.6022924184799194	30097848.088983882
1.606311559677124	30339513.064910147
1.6103241443634033	30575656.12690092
1.6143304109573364	30823020.434744097
1.6183301210403442	31044842.141028274
1.6223233938217163	31075872.428293195
1.6263102293014526	30927173.52519874
1.6302905082702637	30792952.51732118
1.634264349937439	30842349.18764484
1.638231635093689	31470093.040063802
1.6421923637390137	32230893.10644355
1.646146535873413	32557228.554695055
1.6500942707061768	32768554.043548137
1.6540353298187256	32895514.181115597
1.6579699516296387	33014163.31581214
1.661897897720337	32866611.94646703
1.6658192873001099	32104100.122390307
1.6697341203689575	32312102.87336384
1.6736423969268799	33493313.192676913
1.677544116973877	33922771.846141264
1.6814392805099487	34081244.97590727
1.6853278875350952	34471901.17598958
1.6892099380493164	34662090.93383027
1.6930854320526123	34643800.209360465
1.696954369544983	34632299.80617756
1.7008168697357178	34637830.607526585
1.7046726942062378	34803015.68091041
1.708522081375122	35323712.866715185
1.712364912033081	35927644.48936993
1.7162011861801147	36196191.1089099
1.7200311422348022	36182087.30027984
1.723854422569275	35848685.67362342
1.7276713848114014	35176704.710240774
1.731481909751892	34698916.37302119
1.7352858781814575	34598678.75451224
1.7390835285186768	34667341.89064956
1.7428747415542603	34884877.47199045
1.7466596364974976	35392547.23566657
1.7504380941390991	35484666.38805708
1.7542102336883545	34718077.2493137
1.7579760551452637	34216434.31495027
1.7617355585098267	34182422.77267698
1.7654887437820435	33556182.95959132
1.7692357301712036	32687587.261101056
1.7729763984680176	32493985.00651807
1.776710867881775	32358806.686253775
1.7804391384124756	31820704.758767325
1.7841613292694092	31251313.77249537
1.7878772020339966	30257584.280083768
1.7915871143341064	28977029.049681846
1.7952908277511597	28599298.833069537
1.7989884614944458	28257425.055600908
1.8026801347732544	27827199.839543704
1.806365728378296	27195824.908481713
1.8100452423095703	26647878.60402316
1.8137187957763672	28285205.29821581
1.817386507987976	29654922.34570134
1.8210482597351074	29771848.079666924
1.8247040510177612	30594769.175666366
1.828354001045227	30649854.014153026
1.8319982290267944	30677448.25429295
1.8356364965438843	31135379.588285502
1.8392690420150757	30127491.127344318
1.8428958654403687	28591316.00010797
1.8465168476104736	26967136.236373674
1.8501322269439697	26877439.88595152
1.8537418842315674	27319357.108606577
1.8573459386825562	25889669.74435408
1.860944390296936	24708395.618439145
1.864537239074707	24740150.945361104
1.8681244850158691	25408808.127854183
1.871706247329712	26194573.876251847
1.8752825260162354	27768123.715123244
1.8788533210754395	30145289.138116643
1.8824186325073242	31623046.364883587
1.8859784603118896	32626775.920787346
1.8895330429077148	33966319.947471954
1.8930821418762207	34742213.37740252
1.8966259956359863	34797559.427574605
1.9001644849777222	34416140.18847079
1.9036977291107178	34783033.68632597
1.9072256088256836	35846872.013547435
1.9107483625411987	35461508.37537685
1.9142658710479736	35008258.804502435
1.9177782535552979	35194958.552821964
1.9212853908538818	33815840.53098166
1.9247875213623047	33505111.124706715
1.9282845258712769	34581032.06762001
1.9317764043807983	33718568.46179207
1.9352631568908691	31992268.43634923
1.9387450218200684	29868085.151461627
1.942221760749817	28708742.879501823
1.9456936120986938	29403902.484766677
1.9491604566574097	30494273.99758954
1.952622413635254	30427588.971949853
1.956079363822937	28389931.906661406
1.959531545639038	28067551.837774005
1.962978720664978	31506729.85936642
1.966421127319336	34891087.91851398
1.9698586463928223	35217916.43120178
1.9732913970947266	34550617.64484133
1.9767193794250488	35046566.29301551
1.9801424741744995	36424729.145156555
1.9835609197616577	37911476.804286905
1.9869745969772339	37745751.80253602
1.990383505821228	36360050.89388168
1.9937876462936401	37259298.210496016
1.9971871376037598	38344602.09743708
2.000581979751587	37866481.58528573
2.003972291946411	38797519.49091207
2.007357597351074	40621127.425415725
2.0107386112213135	42138938.35441888
2.0141148567199707	42742597.09799319
2.017486572265625	42655346.95232782
2.0208535194396973	43890678.036686085
2.0242159366607666	45071348.379465856
2.027573823928833	44100624.875259414
2.0309269428253174	43811021.30606808
2.034275770187378	45350549.050603844
2.0376198291778564	46270053.854036406
2.040959596633911	46435383.73274056
2.044294595718384	47342768.72851584
2.0476250648498535	48400931.37793956
2.0509510040283203	48898731.52833675
2.054272413253784	49455882.843846634
2.057589530944824	50200696.95715601
2.0609018802642822	50526580.50401981
2.0642096996307373	50492090.46919675
2.0675129890441895	50950638.707926735
2.0708119869232178	51604312.81549202
2.074106216430664	51956625.17814322
2.0773961544036865	51938879.491056725
2.080681324005127	51756075.88569968
2.0839622020721436	51927649.14332334
2.087238311767578	52383293.84986962
2.090510129928589	52955882.5239891
2.0937774181365967	53438165.84094704
2.0970399379730225	53588828.31380096
2.1002981662750244	53694656.57367223
2.1035518646240234	53933536.01024573
2.1068007946014404	54163817.47116067
2.1100454330444336	54175482.0037652
2.1132853031158447	54133900.844326474
2.116520881652832	54270201.228695035
2.1197516918182373	54578067.67471729
2.1229779720306396	54818248.68875726
2.12619948387146	54875569.522410594
2.1294167041778564	54992892.19753114
2.132629156112671	55227890.09704934
2.1358368396759033	55402020.52349029
2.139039993286133	55445681.0187191
2.1422386169433594	55482109.08792271
2.145432472229004	55475951.43774491
2.1486217975616455	55420382.71757243
2.151806354522705	55498511.41785723
2.1549863815307617	55587970.70055215
2.1581614017486572	55747961.39669053
2.16133189201355	55996031.53261359
2.1644976139068604	56130773.4053697
2.167658567428589	56228103.44880792
2.1708147525787354	56253728.0880621
2.173966407775879	56221786.71525191
2.1771130561828613	56331361.674194075
2.1802549362182617	56511216.07050076
2.183391809463501	56503784.86343988
2.1865241527557373	56475831.91673223
2.1896514892578125	56651012.69747442
2.1927738189697266	56757075.5520345
2.1958916187286377	56336098.177059114
2.1990041732788086	55328471.99295874
2.2021119594573975	54826594.02380902
2.2052149772644043	55592018.05413947
2.208312749862671	56686440.654068455
2.2114057540893555	57178244.02686527
2.214493751525879	57014007.84138998
2.217576742172241	55775025.018478006
2.2206547260284424	53826561.27011621
2.2237277030944824	53145341.92661315
2.2267956733703613	53336988.08715511
2.2298583984375	53331849.29369273
2.2329163551330566	53539866.274536625
2.235969066619873	53682194.19682699
2.2390167713165283	54175874.300930426
2.2420592308044434	54042345.72580428
2.2450966835021973	52763816.643108994
2.248128890991211	52576285.10824936
2.2511560916900635	52778566.69568246
2.254178285598755	52051294.958108634
2.257194995880127	52649913.70472004
2.260206699371338	54754640.599705435
2.2632133960723877	55454874.37644639
2.266214609146118	54341889.45246369
2.2692108154296875	53577446.23144904
2.2722020149230957	54353496.783103526
2.2751877307891846	55097354.873388596
2.278168201446533	54442698.496620275
2.2811436653137207	53340896.68564484
2.284113883972168	52425571.1702065
2.287078857421875	51641301.60939677
2.290038824081421	50746374.91136729
2.2929933071136475	48043815.54205072
2.295942783355713	45754960.12019666
2.298887014389038	47028189.87933033
2.301826238632202	48354290.96645686
2.304760217666626	47794351.42474776
2.3076889514923096	48599088.35054024
2.310612440109253	51141469.391502365
2.3135311603546143	51313672.24583955
2.3164443969726562	47448689.33611784
2.319352865219116	44432384.28458656
2.322256088256836	44643605.598937474
2.3251543045043945	45908778.260277316
2.328047275543213	47828479.419973284
2.330935478210449	48974386.68949924
2.3338186740875244	48190275.01826431
2.3366971015930176	46212234.30061662
2.3395702838897705	45266309.26251888
2.3424389362335205	45726881.44800747
2.3453025817871094	44823586.8944384
2.348161458969116	43500671.73826376
2.351015567779541	42197277.33843715
2.353865146636963	42571421.36844552
2.3567099571228027	46006413.88077606
2.3595502376556396	47930403.19306309
2.3623859882354736	48293248.03757774
2.3652172088623047	48646639.76547228
2.368043899536133	45655519.379565746
2.370866537094116	40846344.309906684
2.3736846446990967	40361733.31738724
2.3764986991882324	42424261.26225104
2.3793084621429443	44043527.722450905
2.3821144104003906	45617231.50425686
2.384916305541992	46130479.41324286
2.387714147567749	47079290.6914581
2.3905084133148193	47880177.75832694
2.393299102783203	45763600.14023587
2.3960859775543213	44506828.84222401
2.398869514465332	45355882.700548016
2.4016497135162354	44398938.966452114
2.4044265747070312	43342170.788388945
2.407200336456299	44301130.57913636
2.409970998764038	45345828.990979046
2.4127390384674072	45876343.191610314
2.415503978729248	44862545.84356387
2.418266534805298	42327316.48550709
2.4210267066955566	41918450.62231075
2.4237842559814453	42979344.98717724
2.426539897918701	42922408.30672991
2.429293394088745	43347885.724965364
2.4320452213287354	42583168.6661554
2.4347951412200928	37901632.090590246
2.4375438690185547	36729058.67751316
2.440291166305542	40085244.55233839
2.443037271499634	39524222.1400468
2.445782423019409	38123468.50203087
2.4485268592834473	39772146.74763586
2.451270818710327	38464907.2410393
2.454014539718628	35666118.75608153
2.4567582607269287	37962501.28246045
2.4595019817352295	39151046.33283954
2.4622461795806885	39209381.459125385
2.4649908542633057	39760438.79484822
2.4677364826202393	35420838.84975217
2.4704833030700684	31615370.899771366
2.473231554031372	29808204.254339524
2.4759814739227295	30214505.184012208
2.4787333011627197	32610346.80050387
2.481487512588501	32324089.355393756
