#wavelength	surface flux
0.6450077295303345	308.50992667573706
0.6472567915916443	485.208538709909
0.6494921445846558	636.523406557229
0.6517150402069092	734.1306753592373
0.6539263725280762	833.3964213653541
0.6561272740364075	938.7529207681376
0.6583186388015747	1054.7865716629915
0.6605015397071838	1187.434505190689
0.6626768708229065	1331.3830245869533
0.6648455858230591	1483.8806601128317
0.6670085787773132	1624.9760665731435
0.6691668033599854	1694.3516289023714
0.6713210344314575	1789.1592591723497
0.6734722256660461	2042.6422997953619
0.6756211519241333	2302.95705561825
0.6777685880661011	2476.356503501566
0.6799154281616211	2627.3403305485263
0.6820623278617859	2765.847738548675
0.6842101216316223	2888.035783655074
0.6863595843315125	2984.837127441409
0.688511312007904	3026.075771580926
0.6906660795211792	2925.9247280109407
0.6928245425224304	2745.071600390582
0.6949873566627502	2753.5374283256765
0.6971551775932312	2905.7817326428567
0.6993286609649658	2922.2896377695015
0.7015084028244019	2822.803031524174
0.7036949396133423	2745.223157192765
0.7058889269828796	2697.1274210034135
0.7080909013748169	2646.9034162423504
0.710301399230957	2578.235233694313
0.712520956993103	2470.5875955070155
0.7147500514984131	2238.1135754209813
0.7169892191886902	1888.4641734897732
0.7192389369010925	1691.8186022672621
0.7214996814727783	1680.5993968569494
0.723771870136261	1619.1643644654014
0.7260559797286987	1515.959578222007
0.7283523678779602	1440.983321773272
0.7306615710258484	1372.0508423310819
0.7329838871955872	1359.6706645944284
0.7353196740150452	1368.216402069765
0.7376693487167358	1326.3626061408524
0.7400332689285278	1279.4924332203398
0.7424117922782898	1242.210144546981
0.7448052167892456	1200.574554983737
0.7472138404846191	1146.4246137112013
0.7496379613876343	1074.4214684304623
0.7520779371261597	985.5865422888677
0.7545340061187744	880.5469870402452
0.7570064663887024	758.7596235078039
0.7594954967498779	618.6402866477847
0.7620013952255249	456.4385039125292
0.7645244002342224	281.64142520530163
0.7670646905899048	163.49080887863633
0.7696225643157959	180.25665346113678
0.7721980810165405	356.6414810006393
0.7747915983200073	633.9319075170081
0.7774031162261963	883.7534716730316
0.7800329327583313	1120.0588505138674
0.7826811671257019	1498.944267072082
0.7853479981422424	1956.041991197499
0.7880334854125977	2385.000980383562
0.7907378077507019	2754.722382346715
0.7934610247612	2965.082149253855
0.7962033748626709	3417.160291100307
0.7989648580551147	4313.328121725106
0.801745593547821	5177.46783614497
0.8045456409454346	5878.519933264746
0.8073651194572449	6358.030077305766
0.8102040886878967	6417.923762081912
0.8130625486373901	6411.840632905958
0.8159406185150146	7195.905834417228
0.8188382983207703	8764.806687489427
0.8217556476593018	10063.352467699562
0.8246926665306091	11487.75863505891
0.8276493549346924	13440.187670153964
0.8306257724761963	15175.291738871882
0.8336219191551208	17021.339015960224
0.8366377949714661	19513.08686761942
0.8396733403205872	22755.556767665174
0.8427285552024841	26737.640188802074
0.8458034992218018	31226.895924843833
0.8488980531692505	34992.9279047421
0.8520121574401855	38569.7242798298
0.8551458716392517	45709.36681566911
0.8582990765571594	54754.74803359011
0.8614717125892639	62274.49534114867
0.8646637797355652	69174.13290164937
0.8678751587867737	76013.78272374914
0.8711057901382446	82948.03866700151
0.8743556141853333	89653.73350887008
0.87762451171875	95665.59349728235
0.8809124231338501	102949.33141409437
0.8842192888259888	113003.37862343439
0.8875449895858765	117363.77589847014
0.8908893465995789	102440.50988693634
0.894252359867096	80545.7278747132
0.8976338505744934	83862.05872767195
0.9010337591171265	116150.57528449886
0.9044519662857056	152180.22315172217
0.9078882932662964	166133.1022066574
0.9113426208496094	160151.7004172772
0.914814829826355	150852.6482111447
0.9183048605918884	155096.02715776043
0.9218124747276306	162577.32705905705
0.925337553024292	124006.51677754587
0.9288799166679382	55458.38003778151
0.9324395060539246	20610.4593360939
0.9360161423683167	24481.69631575645
0.9396095871925354	40065.40002205954
0.943219780921936	47855.38826727373
0.9468464851379395	45398.0468111343
0.9504896402359009	42140.48650179488
0.9541489481925964	39365.90443030086
0.9578243494033813	37588.32703139284
0.9615156054496765	44566.78103209718
0.9652225375175476	72092.2370560683
0.9689450263977051	110905.76226888318
0.9726828336715698	130896.81157821423
0.9764357805252075	138832.61524471108
0.9802037477493286	156829.20715686586
0.983986496925354	184955.0333918281
0.9877838492393494	230291.60515612073
0.9915955662727356	299641.4806820483
0.9954215884208679	384668.73519669974
0.9992615580558777	456783.6601831565
1.0031154155731201	524508.4259794756
1.0069829225540161	603733.3329641883
1.0108637809753418	655339.9234000456
1.0147579908370972	662954.3755604464
1.018665075302124	652919.6577140037
1.022585153579712	690762.9864272024
1.0265177488327026	798753.9800860301
1.0304628610610962	870518.5235315826
1.0344202518463135	890195.1867654445
1.0383895635604858	993053.1433681231
1.0423706769943237	1167142.8831247773
1.0463634729385376	1308141.5576732715
1.0503677129745483	1433554.9636506613
1.0543830394744873	1580785.1003140418
1.058409333229065	1694692.627359412
1.0624464750289917	1743848.9613579956
1.0664942264556885	1732425.20414639
1.0705522298812866	1679748.5520033361
1.0746204853057861	1656694.945423492
1.0786986351013184	1643313.3592402637
1.0827864408493042	1560327.09650087
1.086883783340454	1321398.4043686804
1.0909905433654785	921995.8147004127
1.0951062440872192	540227.2627756787
1.0992310047149658	301726.678313927
1.10336434841156	165993.88527497978
1.1075061559677124	86108.0874467969
1.1116561889648438	42703.16106976705
1.115814208984375	21025.533293677192
1.1199802160263062	14637.405823388903
1.124153733253479	14203.078800883346
1.1283347606658936	15698.978853960647
1.1325229406356812	15379.572854727674
1.1367181539535522	21352.66781685783
1.1409201622009277	32609.60488943886
1.145128846168518	31166.913835664367
1.1493438482284546	20596.868077186427
1.1535650491714478	12667.74971244392
1.1577922105789185	9658.000253829661
1.1620250940322876	9506.046223249623
1.1662636995315552	12648.795096610529
1.170507550239563	25038.45976395168
1.174756646156311	47065.680867844356
1.1790107488632202	79574.95312003187
1.1832695007324219	119616.59265086171
1.1875330209732056	156848.22834507818
1.191800832748413	205792.3842211731
1.1960728168487549	275971.40765535797
1.2003488540649414	351051.44731222733
1.2046287059783936	435727.6202672053
1.2089121341705322	511621.8172759133
1.2131990194320679	570990.6460579751
1.2174891233444214	642960.5055969355
1.2217823266983032	746733.1616966118
1.2260783910751343	913561.6636311156
1.230377197265625	1130901.4316150649
1.2346785068511963	1357454.1453948156
1.238982081413269	1611761.2007909745
1.2432878017425537	1901795.2433893303
1.2475954294204712	2164691.100097434
1.2519049644470215	2350246.3209375245
1.256216049194336	2548379.2282082755
1.2605286836624146	2771648.0655405154
1.2648425102233887	2831901.996134949
1.2691574096679688	2644691.6941897958
1.2734732627868652	2273298.4014695506
1.2777899503707886	1854520.5023189054
1.2821072340011597	1455624.1216335276
1.2864248752593994	1098046.684830244
1.2907428741455078	875371.051436021
1.2950609922409058	795522.8264089761
1.2993791103363037	739257.5837707975
1.303696870803833	632226.9853137421
1.3080145120620728	519306.51905605505
1.3123314380645752	409263.34685656516
1.3166478872299194	339178.2309462867
1.3209635019302368	335118.41958228895
1.3252781629562378	295155.3950159046
1.3295916318893433	178669.77448130527
1.3339040279388428	66804.27488310405
1.3382149934768677	18778.12790937516
1.3425244092941284	6733.374357086696
1.3468321561813354	2142.12273685662
1.3511382341384888	841.5025791635982
1.3554422855377197	343.3795630891081
1.3597444295883179	187.82282053778306
1.3640443086624146	254.69372550299752
1.3683418035507202	359.6898046362283
1.3726370334625244	641.546866307899
1.3769296407699585	1018.6883830891147
1.381219506263733	896.2575775022324
1.3855066299438477	589.9352492693301
1.3897908926010132	625.2223169146132
1.3940720558166504	725.5230510084189
1.3983501195907593	777.5740429973965
1.4026249647140503	845.8605611678278
1.4068963527679443	905.2990733193762
1.4111642837524414	1096.8002509004643
1.4154287576675415	1375.2148752139901
1.419689416885376	1474.305134064492
1.4239463806152344	2037.5634868958828
1.4281994104385376	3896.4272946801493
1.4324485063552856	5332.299119460595
1.436693549156189	5519.642497936415
1.440934419631958	6631.2487040708775
1.4451709985733032	9924.325431535057
1.449403166770935	15665.162970846302
1.453631043434143	21080.56990410357
1.4578542709350586	23097.9238695081
1.4620729684829712	20273.470864575214
1.4662868976593018	14132.012018579082
1.4704961776733398	8183.438333634588
1.4747005701065063	4828.278773387481
1.4788999557495117	4884.069180099586
1.4830944538116455	5985.031022970764
1.4872838258743286	6299.976775204835
1.491468071937561	5995.447009319085
1.4956470727920532	6988.713194279886
1.4998208284378052	9802.09130235403
1.5039892196655273	11013.227146021567
1.5081522464752197	8903.05022066977
1.5123097896575928	5825.230922822278
1.5164618492126465	6108.960596298312
1.5206083059310913	11392.052449530147
1.5247491598129272	17496.414012391204
1.5288842916488647	23443.374409974593
1.5330137014389038	30508.349198021762
1.5371372699737549	36475.616957439786
1.541254997253418	43317.62547213042
1.545366883277893	51892.58892054593
1.5494728088378906	62742.70942103413
1.5535727739334106	85802.7791983238
1.5576666593551636	127491.63436296635
1.561754584312439	194134.03546802068
1.5658363103866577	283686.1136797704
1.5699119567871094	354952.30042656214
1.5739814043045044	397959.8958884208
1.5780447721481323	454672.0897874403
1.582101821899414	520022.82935453695
1.5861525535583496	557339.5983321297
1.5901970863342285	553467.30250695
1.5942351818084717	518490.87972163083
1.5982669591903687	460829.34880290384
1.6022924184799194	377480.548486086
1.606311559677124	290194.86516409763
1.6103241443634033	221326.53385159088
1.6143304109573364	152623.62505693373
1.6183301210403442	90414.06313836337
1.6223233938217163	63464.62928966576
1.6263102293014526	60213.30026893761
1.6302905082702637	63710.73339340157
1.634264349937439	75493.78169815167
1.638231635093689	93809.63563251683
1.6421923637390137	96589.32009780624
1.646146535873413	74914.2125924791
1.6500942707061768	69896.11378161989
1.6540353298187256	79410.89682581039
1.6579699516296387	80202.20703788924
1.661897897720337	80973.33812558634
1.6658192873001099	52412.5508736578
1.6697341203689575	17833.865675683664
1.6736423969268799	17526.928801757218
1.677544116973877	22939.082093528523
1.6814392805099487	20055.09037447897
1.6853278875350952	17515.2512636065
1.6892099380493164	14629.087473001244
1.6930854320526123	9861.240522203781
1.696954369544983	6438.818498731992
1.7008168697357178	4625.840666497199
1.7046726942062378	4886.019740463522
1.708522081375122	8679.881630737837
1.712364912033081	14800.4684801192
1.7162011861801147	23927.80238436854
1.7200311422348022	31128.356715067497
1.723854422569275	28165.921197796633
1.7276713848114014	23913.909445818088
1.731481909751892	24791.27536233299
1.7352858781814575	29405.03245573451
1.7390835285186768	40307.89867906356
1.7428747415542603	53455.68548687013
1.7466596364974976	62671.77940013604
1.7504380941390991	63798.56418952187
1.7542102336883545	52626.0999246809
1.7579760551452637	38422.40038855732
1.7617355585098267	32300.885162706483
1.7654887437820435	31436.882326263818
1.7692357301712036	29064.9712389838
1.7729763984680176	24905.255833427495
1.776710867881775	27559.924115113543
1.7804391384124756	33869.9936259648
1.7841613292694092	30840.767440636497
1.7878772020339966	23421.3288931831
1.7915871143341064	16937.9810058202
1.7952908277511597	14448.760253506684
1.7989884614944458	16860.663087838137
1.8026801347732544	13711.954235095027
1.806365728378296	9998.561901634373
1.8100452423095703	10138.935889377477
1.8137187957763672	9279.284239473216
1.817386507987976	7911.612671671047
1.8210482597351074	10449.506089382647
1.8247040510177612	13984.779348291895
1.828354001045227	9812.99580168504
1.8319982290267944	4327.525193066542
1.8356364965438843	2885.3109193574896
1.8392690420150757	3412.197616270566
1.8428958654403687	7353.559720569249
1.8465168476104736	9867.887736299435
1.8501322269439697	9346.905328200624
1.8537418842315674	8876.841655417695
1.8573459386825562	7315.863344464631
1.860944390296936	5481.143798035465
1.864537239074707	4027.928294005592
1.8681244850158691	2421.4482075342657
1.871706247329712	1813.794512697894
1.8752825260162354	4717.257970788261
1.8788533210754395	11969.034838758207
1.8824186325073242	16899.75738968878
1.8859784603118896	15735.737428903873
1.8895330429077148	13561.660894148787
1.8930821418762207	15368.417613595366
1.8966259956359863	16671.73477041185
1.9001644849777222	10806.056579406959
1.9036977291107178	5557.294113515266
1.9072256088256836	5492.796200284315
1.9107483625411987	5059.47323761571
1.9142658710479736	3760.5760533101943
1.9177782535552979	3689.088784988869
1.9212853908538818	3841.0651704801853
1.9247875213623047	3331.978488213136
1.9282845258712769	2608.89489623095
1.9317764043807983	2130.4147434899564
1.9352631568908691	1942.7410070921007
1.9387450218200684	1804.3027589768371
1.942221760749817	2179.676634167387
1.9456936120986938	2800.4794169348434
1.9491604566574097	2778.9035475109167
1.952622413635254	2588.422696987721
1.956079363822937	3523.4275141062403
1.959531545639038	5320.360646767025
1.962978720664978	6134.125746820232
1.966421127319336	6143.942527466938
1.9698586463928223	5882.801879467674
1.9732913970947266	6192.598265530445
1.9767193794250488	8042.760742242211
1.9801424741744995	8035.559696697551
1.9835609197616577	7159.433125260432
1.9869745969772339	8903.624567212315
1.990383505821228	11335.927157779377
1.9937876462936401	15392.977739122254
1.9971871376037598	21438.31851424881
2.000581979751587	24078.353178608933
2.003972291946411	22448.644960453195
2.007357597351074	22767.538603713314
2.0107386112213135	23404.804786458586
2.0141148567199707	20344.00419264027
2.017486572265625	16190.549018169015
2.0208535194396973	15558.839645396361
2.0242159366607666	20029.850987437716
2.027573823928833	24461.255863454953
2.0309269428253174	28469.613591661448
2.034275770187378	33062.92148425923
2.0376198291778564	34903.046219308286
2.040959596633911	36409.621670210545
2.044294595718384	43107.12808615672
2.0476250648498535	51091.284538779204
2.0509510040283203	56665.04520144026
2.054272413253784	63242.38842199978
2.057589530944824	71676.56627501445
2.0609018802642822	79837.2199636435
2.0642096996307373	87766.3344673038
2.0675129890441895	95785.42196718132
2.0708119869232178	103538.63249805826
2.074106216430664	112089.99026383329
2.0773961544036865	118788.95969946233
2.080681324005127	123641.10054862655
2.0839622020721436	130601.02087808594
2.087238311767578	137537.9074248967
2.090510129928589	144324.15286137606
2.0937774181365967	147280.09300856566
2.0970399379730225	145579.49278904044
2.1002981662750244	143969.8783059492
2.1035518646240234	144631.17950335002
2.1068007946014404	144344.85597327884
2.1100454330444336	140054.8982036734
2.1132853031158447	136425.86285597857
2.116520881652832	130575.88621755039
2.1197516918182373	123830.508116603
2.1229779720306396	119237.2541773027
2.12619948387146	114782.57377497689
2.1294167041778564	111385.39690318261
2.132629156112671	108703.99483064734
2.1358368396759033	106184.19491027319
2.139039993286133	99689.94609679049
2.1422386169433594	85826.66464515244
2.145432472229004	72527.0256254829
2.1486217975616455	67344.836743933
2.151806354522705	64439.52982559949
2.1549863815307617	58239.158883914184
2.1581614017486572	51587.69882964337
2.16133189201355	43710.32261400668
2.1644976139068604	36776.271057677324
2.167658567428589	32122.65818929092
2.1708147525787354	29567.1038115605
2.173966407775879	30426.397338945902
2.1771130561828613	29631.73912843859
2.1802549362182617	26526.223165377236
2.183391809463501	23813.46302783708
2.1865241527557373	21859.183034239133
2.1896514892578125	17983.46998766932
2.1927738189697266	11476.978238598556
2.1958916187286377	5936.820071058883
2.1990041732788086	2581.9344250639065
2.2021119594573975	1146.6350732029348
2.2052149772644043	1488.6804209574332
2.208312749862671	2700.5224877304076
2.2114057540893555	3714.6895988128967
2.214493751525879	4245.817985569628
2.217576742172241	4514.4303250223165
2.2206547260284424	4171.524097549586
2.2237277030944824	3610.1713112067646
2.2267956733703613	3062.537096357596
2.2298583984375	2322.873078447395
2.2329163551330566	2049.8239876533817
2.235969066619873	2027.9299788237772
2.2390167713165283	1619.9048932369226
2.2420592308044434	1369.6939409199615
2.2450966835021973	1291.057265770779
2.248128890991211	988.5964381367967
2.2511560916900635	770.6464061064006
2.254178285598755	676.2516875228034
2.257194995880127	595.1244510677296
2.260206699371338	590.0349187139624
2.2632133960723877	591.5220563361206
2.266214609146118	614.6085574576946
2.2692108154296875	722.900263161385
2.2722020149230957	857.0366144110733
2.2751877307891846	823.1023743472562
2.278168201446533	738.1323413105646
2.2811436653137207	736.6388429174565
2.284113883972168	632.3087891140559
2.287078857421875	535.2151067003244
2.290038824081421	501.13497755269657
2.2929933071136475	447.0504045609389
2.295942783355713	428.75111320631504
2.298887014389038	505.02318852272606
2.301826238632202	626.3059025536305
2.304760217666626	872.971408622731
2.3076889514923096	1786.8250812242072
2.310612440109253	3553.9516912326017
2.3135311603546143	4139.375444724853
2.3164443969726562	2259.257441774361
2.319352865219116	517.6602678465158
2.322256088256836	295.01750494888654
2.3251543045043945	457.94647379821527
2.328047275543213	540.4680724701699
2.330935478210449	614.6419041977575
2.3338186740875244	719.3879333611541
2.3366971015930176	741.5849680952069
2.3395702838897705	736.0139531046877
2.3424389362335205	778.208147720202
2.3453025817871094	698.0443718306824
2.348161458969116	620.1032254223111
2.351015567779541	724.0882507273083
2.353865146636963	884.4226394563293
2.3567099571228027	1131.738630151518
2.3595502376556396	1707.70387693836
2.3623859882354736	2337.5654533667007
2.3652172088623047	2299.5898871816303
2.368043899536133	1562.2314079457049
2.370866537094116	772.5720133149345
2.3736846446990967	572.2322868652782
2.3764986991882324	955.1158932208849
2.3793084621429443	1270.5532163796913
2.3821144104003906	1226.570981366906
2.384916305541992	1372.7814009265999
2.387714147567749	1898.4140180605789
2.3905084133148193	2152.7886540393692
2.393299102783203	1974.1465442075116
2.3960859775543213	1914.801908492256
2.398869514465332	2412.1133655665963
2.4016497135162354	3216.902611553615
2.4044265747070312	3784.971736961645
2.407200336456299	4103.055164344368
2.409970998764038	5539.919592662497
2.4127390384674072	7277.220412138917
2.415503978729248	6427.897823373276
2.418266534805298	4583.16399963718
2.4210267066955566	4068.436964559105
2.4237842559814453	3722.0265387583972
2.426539897918701	3859.519206064648
2.429293394088745	5584.216726688696
2.4320452213287354	6720.896489930519
2.4347951412200928	5966.214329831657
2.4375438690185547	7077.8806648677255
2.440291166305542	10041.83020107757
2.443037271499634	10573.164716899913
2.445782423019409	9640.332109960862
2.4485268592834473	9684.748267245475
2.451270818710327	10548.45253248674
2.454014539718628	12122.444253228585
2.4567582607269287	14320.544938808287
2.4595019817352295	16843.667110672814
2.4622461795806885	20319.60510829593
2.4649908542633057	24312.79935007237
2.4677364826202393	23491.121947254283
2.4704833030700684	19552.00206600379
2.473231554031372	18631.256915570957
2.4759814739227295	20611.56326246586
2.4787333011627197	21529.01402189763
2.481487512588501	21691.070899124195
