#wavelength	surface flux
0.6450077295303345	492.58445240097575
0.6472567915916443	768.6963956804616
0.6494921445846558	990.8719670049475
0.6517150402069092	1120.115258769132
0.6539263725280762	1248.5972494365938
0.6561272740364075	1382.9761747730045
0.6583186388015747	1526.5912808660023
0.6605015397071838	1684.8903255796642
0.6626768708229065	1852.8201864122868
0.6648455858230591	2026.2612570331555
0.6670085787773132	2182.9257810246754
0.6691668033599854	2258.993280820911
0.6713210344314575	2359.814865883078
0.6734722256660461	2627.4145014703963
0.6756211519241333	2899.647145732713
0.6777685880661011	3077.1988888131586
0.6799154281616211	3229.1496888040224
0.6820623278617859	3367.1675866777287
0.6842101216316223	3488.812369779007
0.6863595843315125	3587.6014248008737
0.688511312007904	3641.2618572591227
0.6906660795211792	3583.1499917420065
0.6928245425224304	3455.6694059481624
0.6949873566627502	3472.626778191907
0.6971551775932312	3606.9014964748817
0.6993286609649658	3634.821954003087
0.7015084028244019	3566.4564959820736
0.7036949396133423	3511.87484481064
0.7058889269828796	3478.981826193089
0.7080909013748169	3443.136871794233
0.710301399230957	3390.496942746698
0.712520956993103	3299.638242737086
0.7147500514984131	3076.566441177406
0.7169892191886902	2715.573367509651
0.7192389369010925	2511.8243851294587
0.7214996814727783	2517.6218616918504
0.723771870136261	2455.1174280504615
0.7260559797286987	2326.348248465003
0.7283523678779602	2224.032651162059
0.7306615710258484	2134.0341036144164
0.7329838871955872	2108.7286150926284
0.7353196740150452	2099.9894774913973
0.7376693487167358	2034.1738958381993
0.7400332689285278	1959.547026535495
0.7424117922782898	1890.2171646610923
0.7448052167892456	1809.881124476362
0.7472138404846191	1711.1653354089217
0.7496379613876343	1591.92143333734
0.7520779371261597	1452.6619590344224
0.7545340061187744	1294.2069015060035
0.7570064663887024	1116.3743838530586
0.7594954967498779	914.3645211394672
0.7620013952255249	677.6023020886241
0.7645244002342224	419.58259482962546
0.7670646905899048	245.73964356683618
0.7696225643157959	270.45235586664796
0.7721980810165405	526.697822443864
0.7747915983200073	921.3170259011904
0.7774031162261963	1249.4151744825638
0.7800329327583313	1546.6370856802184
0.7826811671257019	2090.5178497706884
0.7853479981422424	2774.774108688774
0.7880334854125977	3392.7729661779663
0.7907378077507019	3884.7784806992263
0.7934610247612	4130.9407970814445
0.7962033748626709	4751.284697193811
0.7989648580551147	6034.067274895181
0.801745593547821	7255.202080314635
0.8045456409454346	8234.495763136845
0.8073651194572449	9003.284170323932
0.8102040886878967	9309.962496514841
0.8130625486373901	9400.383864799063
0.8159406185150146	10274.95521855679
0.8188382983207703	12179.578332174318
0.8217556476593018	13896.011722851836
0.8246926665306091	15691.773323104564
0.8276493549346924	18004.44140684994
0.8306257724761963	20015.541792240747
0.8336219191551208	22237.81995256889
0.8366377949714661	25302.252894637903
0.8396733403205872	29074.31489948821
0.8427285552024841	33378.51504478911
0.8458034992218018	38016.02571172369
0.8488980531692505	42178.565018415036
0.8520121574401855	46223.71467864425
0.8551458716392517	52587.99753809259
0.8582990765571594	60232.46257721518
0.8614717125892639	66971.533441408
0.8646637797355652	73378.2126568402
0.8678751587867737	79842.01216078554
0.8711057901382446	86467.08270638763
0.8743556141853333	92981.56928348418
0.87762451171875	99135.46595284854
0.8809124231338501	106268.07490840953
0.8842192888259888	115205.23933716516
0.8875449895858765	120657.82501589415
0.8908893465995789	112441.02272606257
0.894252359867096	95855.22577907468
0.8976338505744934	96079.07638714573
0.9010337591171265	121619.14803441452
0.9044519662857056	152063.9269498487
0.9078882932662964	164177.75367855697
0.9113426208496094	162397.76748294823
0.914814829826355	161485.21546693408
0.9183048605918884	170248.51310787737
0.9218124747276306	179198.3046184258
0.925337553024292	144483.78501576968
0.9288799166679382	71189.47805676667
0.9324395060539246	27853.487731226647
0.9360161423683167	37264.42082504125
0.9396095871925354	66105.92476886352
0.943219780921936	73804.60658810457
0.9468464851379395	60884.55759302512
0.9504896402359009	54906.38287585622
0.9541489481925964	53610.59147730197
0.9578243494033813	52992.01134071265
0.9615156054496765	63846.42349883267
0.9652225375175476	102583.428705903
0.9689450263977051	161572.94953518308
0.9726828336715698	200318.90666419317
0.9764357805252075	219970.2987654225
0.9802037477493286	251590.5350803926
0.983986496925354	301535.7045529396
0.9877838492393494	371352.6672941357
0.9915955662727356	458255.5393118842
0.9954215884208679	550347.3285080448
0.9992615580558777	622891.3075518572
1.0031154155731201	675663.4146254815
1.0069829225540161	717878.9985895985
1.0108637809753418	722682.2072888913
1.0147579908370972	678775.8312815046
1.018665075302124	619530.8720159925
1.022585153579712	615633.7211672893
1.0265177488327026	684918.4491931199
1.0304628610610962	725872.7018227617
1.0344202518463135	709230.9767570625
1.0383895635604858	745862.8298524771
1.0423706769943237	840485.0941450924
1.0463634729385376	919628.9677875935
1.0503677129745483	987496.3325148706
1.0543830394744873	1061516.1279151402
1.058409333229065	1119720.0050173225
1.0624464750289917	1143468.7275370038
1.0664942264556885	1134342.282636308
1.0705522298812866	1105043.5743776516
1.0746204853057861	1084253.1812665516
1.0786986351013184	1070242.6135453156
1.0827864408493042	1036965.5982410262
1.086883783340454	951132.7499397104
1.0909905433654785	786557.2095002854
1.0951062440872192	574347.787683105
1.0992310047149658	372328.85014961666
1.10336434841156	210159.4700334664
1.1075061559677124	102934.32010303713
1.1116561889648438	45103.75723093081
1.115814208984375	19556.495676179005
1.1199802160263062	14650.827568195358
1.124153733253479	18578.231584021643
1.1283347606658936	23514.621207028296
1.1325229406356812	24884.682354623466
1.1367181539535522	37344.65922030174
1.1409201622009277	54725.27417579258
1.145128846168518	49568.73778379169
1.1493438482284546	33707.33700284782
1.1535650491714478	22717.480712184504
1.1577922105789185	18070.388556635076
1.1620250940322876	20712.815326191358
1.1662636995315552	31721.996852349508
1.170507550239563	61282.15064888672
1.174756646156311	112099.27378324032
1.1790107488632202	178295.3016726253
1.1832695007324219	244684.4669083388
1.1875330209732056	295390.3669569473
1.191800832748413	338839.6827213279
1.1960728168487549	385833.1684505907
1.2003488540649414	435651.9946262584
1.2046287059783936	490448.02549489634
1.2089121341705322	533045.1471377622
1.2131990194320679	564370.886725698
1.2174891233444214	605781.1393691135
1.2217823266983032	666254.6751601512
1.2260783910751343	769884.3860935953
1.230377197265625	908332.4027774334
1.2346785068511963	1050322.0671856347
1.238982081413269	1207391.6792470159
1.2432878017425537	1387021.4422460892
1.2475954294204712	1555500.8914916636
1.2519049644470215	1688678.789660239
1.256216049194336	1835731.266161809
1.2605286836624146	2032906.2514179477
1.2648425102233887	2197141.948025772
1.2691574096679688	2212333.851600738
1.2734732627868652	2043040.534446805
1.2777899503707886	1764356.1824916094
1.2821072340011597	1451059.6737622593
1.2864248752593994	1164453.133570838
1.2907428741455078	980711.3449397577
1.2950609922409058	897733.9607939675
1.2993791103363037	838633.0468946635
1.303696870803833	754878.5478559203
1.3080145120620728	665486.5041901313
1.3123314380645752	550498.0018387418
1.3166478872299194	453765.34917703987
1.3209635019302368	426718.0520904618
1.3252781629562378	373800.9637249749
1.3295916318893433	237485.23512837253
1.3339040279388428	98121.09082398315
1.3382149934768677	30089.1805568733
1.3425244092941284	8490.55829636206
1.3468321561813354	1781.4133150431692
1.3511382341384888	577.5401504151248
1.3554422855377197	195.99046247915598
1.3597444295883179	95.7179177264046
1.3640443086624146	142.1348969077657
1.3683418035507202	221.76076327214952
1.3726370334625244	490.4353700551697
1.3769296407699585	852.3383247879326
1.381219506263733	715.8973012492762
1.3855066299438477	366.46847310312495
1.3897908926010132	348.53378451922896
1.3940720558166504	448.28534253123445
1.3983501195907593	552.8952527251487
1.4026249647140503	654.399774391618
1.4068963527679443	694.6173407421469
1.4111642837524414	816.1813499673715
1.4154287576675415	1027.5793187257023
1.419689416885376	1156.9336999307582
1.4239463806152344	1782.0924043256439
1.4281994104385376	3629.2572576654875
1.4324485063552856	5011.745043385216
1.436693549156189	5248.688981575535
1.440934419631958	6803.161698533823
1.4451709985733032	11149.909253543043
1.449403166770935	18355.312635348317
1.453631043434143	26777.735548151748
1.4578542709350586	33791.42769739492
1.4620729684829712	31611.465361346025
1.4662868976593018	21011.464532502476
1.4704961776733398	11850.266748763835
1.4747005701065063	7388.6312662251985
1.4788999557495117	6901.422879316472
1.4830944538116455	7463.77872042283
1.4872838258743286	7628.455531087282
1.491468071937561	7726.491754552698
1.4956470727920532	9514.77355163949
1.4998208284378052	14191.219980065564
1.5039892196655273	17737.839880713935
1.5081522464752197	15023.074229899641
1.5123097896575928	9059.005092577436
1.5164618492126465	8767.778968398536
1.5206083059310913	16250.80635452216
1.5247491598129272	25133.486456991697
1.5288842916488647	33220.0207231795
1.5330137014389038	40898.83756546779
1.5371372699737549	46992.946770570255
1.541254997253418	55253.19988419319
1.545366883277893	67632.22897333826
1.5494728088378906	86195.48770501124
1.5535727739334106	121288.99710942735
1.5576666593551636	177437.41226258434
1.561754584312439	261039.19201649426
1.5658363103866577	372925.5085424622
1.5699119567871094	473730.709721
1.5739814043045044	546259.3924334155
1.5780447721481323	623574.724583247
1.582101821899414	707781.7090524513
1.5861525535583496	769669.8956204008
1.5901970863342285	791885.6955208521
1.5942351818084717	781444.5322064612
1.5982669591903687	739245.8268645658
1.6022924184799194	652169.4672161303
1.606311559677124	535335.0346866397
1.6103241443634033	414165.4768986445
1.6143304109573364	292786.2224362604
1.6183301210403442	188246.1884078249
1.6223233938217163	124288.51953880978
1.6263102293014526	91007.68664297934
1.6302905082702637	75904.0088994472
1.634264349937439	80701.1046328527
1.638231635093689	98197.32766302903
1.6421923637390137	106852.22045774259
1.646146535873413	96455.0845584966
1.6500942707061768	94580.6333123498
1.6540353298187256	105898.67396675827
1.6579699516296387	125166.14061294834
1.661897897720337	133592.42620989773
1.6658192873001099	81579.34092181742
1.6697341203689575	31058.633966333764
1.6736423969268799	37758.54028639847
1.677544116973877	49716.16699155315
1.6814392805099487	44723.79569866128
1.6853278875350952	37907.668494459744
1.6892099380493164	31846.38275800284
1.6930854320526123	23695.555456745562
1.696954369544983	17167.81650363497
1.7008168697357178	12944.392774799297
1.7046726942062378	12595.963938614314
1.708522081375122	20878.11954485304
1.712364912033081	35672.13110200457
1.7162011861801147	55661.63012020354
1.7200311422348022	69145.965826919
1.723854422569275	61185.38353814621
1.7276713848114014	51897.43329392222
1.731481909751892	54666.46757612051
1.7352858781814575	63588.50758048072
1.7390835285186768	79926.09952383423
1.7428747415542603	97424.0037635472
1.7466596364974976	105991.26387477206
1.7504380941390991	103635.15856347566
1.7542102336883545	87093.20655245376
1.7579760551452637	66704.13723357643
1.7617355585098267	54916.15441593611
1.7654887437820435	47116.93105552926
1.7692357301712036	40703.44886918808
1.7729763984680176	34211.29712801788
1.776710867881775	31585.932723102083
1.7804391384124756	33101.776501793065
1.7841613292694092	28469.986797040885
1.7878772020339966	20476.802438978382
1.7915871143341064	14381.858143486996
1.7952908277511597	11687.0265486788
1.7989884614944458	12644.486651992136
1.8026801347732544	9239.561937016455
1.806365728378296	5509.419026649664
1.8100452423095703	5218.056111503176
1.8137187957763672	4499.487134483088
1.817386507987976	3651.7184024496214
1.8210482597351074	4836.257387509675
1.8247040510177612	6502.411274681659
1.828354001045227	4477.655283132325
1.8319982290267944	1882.719568725283
1.8356364965438843	1281.2049052439163
1.8392690420150757	1505.2765060401318
1.8428958654403687	3466.977233986938
1.8465168476104736	4929.731683216894
1.8501322269439697	4876.958425234447
1.8537418842315674	4469.262172042177
1.8573459386825562	3375.422472679598
1.860944390296936	2506.3103909695883
1.864537239074707	1922.1589504028457
1.8681244850158691	1087.5775209854564
1.871706247329712	709.8922382206849
1.8752825260162354	2367.2742061945955
1.8788533210754395	6827.022209475614
1.8824186325073242	10080.7170398124
1.8859784603118896	9562.349692988106
1.8895330429077148	8126.828400316397
1.8930821418762207	9004.716440235416
1.8966259956359863	9782.307482239488
1.9001644849777222	6092.563917641074
1.9036977291107178	2755.5801310601205
1.9072256088256836	2857.07757060226
1.9107483625411987	2781.7317616370997
1.9142658710479736	2142.726235072338
1.9177782535552979	2284.8425375918137
1.9212853908538818	2415.579993770028
1.9247875213623047	2014.3036076319956
1.9282845258712769	1533.4450489034775
1.9317764043807983	1260.8936196923582
1.9352631568908691	1183.0094773252315
1.9387450218200684	1053.2413007531175
1.942221760749817	1192.1019426229684
1.9456936120986938	1615.3167439209838
1.9491604566574097	1851.834149146551
1.952622413635254	1914.3224760732817
1.956079363822937	2628.0430606800724
1.959531545639038	3951.1490121198663
1.962978720664978	4786.921653492433
1.966421127319336	5428.823345633902
1.9698586463928223	5414.092517569108
1.9732913970947266	5384.868164894618
1.9767193794250488	6895.30081343248
1.9801424741744995	6892.636127541977
1.9835609197616577	6261.1546097007795
1.9869745969772339	8093.05560537437
1.990383505821228	10075.792387468224
1.9937876462936401	12962.652334232453
1.9971871376037598	17015.000651317594
2.000581979751587	18211.60590077927
2.003972291946411	16672.351693235803
2.007357597351074	16508.26379910366
2.0107386112213135	17736.32742391741
2.0141148567199707	17351.833923272785
2.017486572265625	14960.608339994922
2.0208535194396973	13984.623813020418
2.0242159366607666	16466.53892091611
2.027573823928833	19072.990592415917
2.0309269428253174	21585.205856918205
2.034275770187378	24715.59296760331
2.0376198291778564	26414.376762684868
2.040959596633911	28248.410733669232
2.044294595718384	32897.04369599931
2.0476250648498535	37721.62727263291
2.0509510040283203	41118.80208227029
2.054272413253784	44484.02482195378
2.057589530944824	48164.947874947014
2.0609018802642822	52113.30457261076
2.0642096996307373	55357.81890686852
2.0675129890441895	57928.84265334909
2.0708119869232178	60307.28059530205
2.074106216430664	62453.515791343234
2.0773961544036865	63985.49080495503
2.080681324005127	64916.35131269808
2.0839622020721436	66247.74801323524
2.087238311767578	67483.80581092808
2.090510129928589	68459.33913726195
2.0937774181365967	68681.58226298109
2.0970399379730225	67880.60814154442
2.1002981662750244	67089.45503735173
2.1035518646240234	66938.31089512902
2.1068007946014404	66739.0016323565
2.1100454330444336	65782.7842006099
2.1132853031158447	64972.39961461579
2.116520881652832	63603.312098518356
2.1197516918182373	61886.91209387359
2.1229779720306396	60477.221358884446
2.12619948387146	59096.48354849935
2.1294167041778564	57778.90343484267
2.132629156112671	56339.891099734756
2.1358368396759033	54972.25495793956
2.139039993286133	53166.410101909474
2.1422386169433594	49325.41260681352
2.145432472229004	45249.61519328237
2.1486217975616455	42885.651896455514
2.151806354522705	40873.89285810786
2.1549863815307617	38461.40056912594
2.1581614017486572	36097.706670284075
2.16133189201355	32480.60915693548
2.1644976139068604	28846.887117126502
2.167658567428589	26495.68531318781
2.1708147525787354	24897.045864418607
2.173966407775879	24348.24588140698
2.1771130561828613	22615.1838967246
2.1802549362182617	19956.826873901133
2.183391809463501	18282.439412216547
2.1865241527557373	17369.869333134306
2.1896514892578125	14796.91504015785
2.1927738189697266	10242.438829788236
2.1958916187286377	5862.560218209839
2.1990041732788086	2582.6343904010696
2.2021119594573975	1089.4107536403233
2.2052149772644043	1550.489004092341
2.208312749862671	3054.1792935150665
2.2114057540893555	3988.1248396567994
2.214493751525879	4033.8872676762253
2.217576742172241	3957.6357363275943
2.2206547260284424	3527.526713699936
2.2237277030944824	3042.1748658735237
2.2267956733703613	2591.6279993213298
2.2298583984375	1901.845590589879
2.2329163551330566	1679.4053676004835
2.235969066619873	1729.4945585933103
2.2390167713165283	1429.4810972480423
2.2420592308044434	1212.2917130678984
2.2450966835021973	1116.8211307349507
2.248128890991211	839.5034445654471
2.2511560916900635	643.8025828860133
2.254178285598755	541.6769912489065
2.257194995880127	447.35915332692156
2.260206699371338	434.3056940935402
2.2632133960723877	451.52040487551716
2.266214609146118	492.19583022129615
2.2692108154296875	616.4938070991296
2.2722020149230957	813.1273984208267
2.2751877307891846	840.5712591096237
2.278168201446533	760.8179688534706
2.2811436653137207	735.454774540758
2.284113883972168	630.8225005316041
2.287078857421875	556.6793074325586
2.290038824081421	519.8146468750858
2.2929933071136475	446.64119969968874
2.295942783355713	406.78209459534713
2.298887014389038	444.7324520966721
2.301826238632202	537.8168012127168
2.304760217666626	773.8322593928426
2.3076889514923096	1784.5486682339274
2.310612440109253	3751.5580540134174
2.3135311603546143	4349.506756229924
2.3164443969726562	2316.389658624849
2.319352865219116	518.9672378775886
2.322256088256836	348.53860684843437
2.3251543045043945	555.7517853326891
2.328047275543213	601.3704667105011
2.330935478210449	579.0577818978018
2.3338186740875244	603.8957291927293
2.3366971015930176	570.9764916265149
2.3395702838897705	511.6141327477458
2.3424389362335205	545.3479578704358
2.3453025817871094	513.0126935404229
2.348161458969116	471.7629878967062
2.351015567779541	597.7463890714885
2.353865146636963	785.9019396079723
2.3567099571228027	1119.1760143760616
2.3595502376556396	1857.188621303393
2.3623859882354736	2513.532051324271
2.3652172088623047	2326.9961683969163
2.368043899536133	1455.7962490045127
2.370866537094116	637.3654349578948
2.3736846446990967	465.5368298368986
2.3764986991882324	950.8672967009423
2.3793084621429443	1504.374788905417
2.3821144104003906	1618.9481720507342
2.384916305541992	1688.2176624617753
2.387714147567749	2136.3502921777035
2.3905084133148193	2399.602258772146
2.393299102783203	2147.031079872674
2.3960859775543213	2037.5573902725491
2.398869514465332	2596.8590756157373
2.4016497135162354	3274.2500627739832
2.4044265747070312	3478.3255907109688
2.407200336456299	3651.345574120942
2.409970998764038	5311.844776743307
2.4127390384674072	7454.545675161164
2.415503978729248	6675.250998436664
2.418266534805298	4739.816942522127
2.4210267066955566	4642.007673307756
2.4237842559814453	4510.3480467624995
2.426539897918701	4492.989002677092
2.429293394088745	6620.157175051518
2.4320452213287354	8210.18774417636
2.4347951412200928	7114.9146447233325
2.4375438690185547	8132.08987994666
2.440291166305542	11681.199795359596
2.443037271499634	12263.025192443763
2.445782423019409	10446.478243423157
2.4485268592834473	9821.825089622105
2.451270818710327	10944.049713277403
2.454014539718628	13301.769632825148
2.4567582607269287	16107.501235273825
2.4595019817352295	18341.38242767695
2.4622461795806885	20651.099704063512
2.4649908542633057	23982.18291297813
2.4677364826202393	24161.611724330633
2.4704833030700684	20790.608657640478
2.473231554031372	19004.284492919927
2.4759814739227295	20196.749364015363
2.4787333011627197	20514.719458613316
2.481487512588501	19961.28872567877
