#wavelength	surface flux
0.6450077295303345	0.07861611643194714
0.6472567915916443	0.11789749127312919
0.6494921445846558	0.13854774243766202
0.6517150402069092	0.1437449508707364
0.6539263725280762	0.15352287904615103
0.6561272740364075	0.16759690799706733
0.6583186388015747	0.1818742504691315
0.6605015397071838	0.19039555540433048
0.6626768708229065	0.1945411895642053
0.6648455858230591	0.19663282574970575
0.6670085787773132	0.19863042805555406
0.6691668033599854	0.2022351699854542
0.6713210344314575	0.2084378933592214
0.6734722256660461	0.2189006024096067
0.6756211519241333	0.23486390439235788
0.6777685880661011	0.2567258415762274
0.6799154281616211	0.28460685156075016
0.6820623278617859	0.3189704620105549
0.6842101216316223	0.36197485711437455
0.6863595843315125	0.4252249799540162
0.688511312007904	0.5352027026065652
0.6906660795211792	0.68682500810388
0.6928245425224304	0.7845940635663362
0.6949873566627502	0.8166620918235941
0.6971551775932312	0.872953578645136
0.6993286609649658	0.9518376665996541
0.7015084028244019	1.0502283225950366
0.7036949396133423	1.1870416385784526
0.7058889269828796	1.3463023238472662
0.7080909013748169	1.5249127008806094
0.710301399230957	1.7358677533433002
0.712520956993103	1.9589822567266915
0.7147500514984131	1.9592263284503268
0.7169892191886902	1.5298403905562443
0.7192389369010925	1.2375298336822587
0.7214996814727783	1.4420880330336845
0.723771870136261	1.5209272601540744
0.7260559797286987	1.404937800202792
0.7283523678779602	1.4332382704487785
0.7306615710258484	1.6521048964928238
0.7329838871955872	2.245306453309019
0.7353196740150452	2.925707413519448
0.7376693487167358	3.3914432120085287
0.7400332689285278	3.9369210389974625
0.7424117922782898	4.633221905801004
0.7448052167892456	5.26472942557078
0.7472138404846191	5.689060976021525
0.7496379613876343	5.886848879596907
0.7520779371261597	5.888669258577599
0.7545340061187744	5.733610960060773
0.7570064663887024	5.4794580736866
0.7594954967498779	5.187348183605591
0.7620013952255249	4.90462084096645
0.7645244002342224	4.624440148899088
0.7670646905899048	4.356859441950147
0.7696225643157959	4.151083030351475
0.7721980810165405	3.948053803290163
0.7747915983200073	3.6655715559348305
0.7774031162261963	3.305116107419235
0.7800329327583313	2.9527684892571857
0.7826811671257019	2.7344353921005964
0.7853479981422424	2.642311698795884
0.7880334854125977	2.6163023533119523
0.7907378077507019	2.6557125020293864
0.7934610247612	2.7051855744195077
0.7962033748626709	2.7087119683890526
0.7989648580551147	2.6752773541093733
0.801745593547821	2.579573725256004
0.8045456409454346	2.39535819449076
0.8073651194572449	2.043420919207902
0.8102040886878967	1.4433381189368464
0.8130625486373901	0.8103342000806711
0.8159406185150146	0.5170963866869281
0.8188382983207703	0.6534605894581238
0.8217556476593018	0.9137768378409923
0.8246926665306091	1.231007727249717
0.8276493549346924	1.6031409409914645
0.8306257724761963	1.9567874117345585
0.8336219191551208	2.7384047923295625
0.8366377949714661	4.323605614158609
0.8396733403205872	6.571229357925661
0.8427285552024841	9.131003995766866
0.8458034992218018	11.850409614519869
0.8488980531692505	14.885506500041227
0.8520121574401855	18.561760584099925
0.8551458716392517	23.395993196931048
0.8582990765571594	29.859760075403656
0.8614717125892639	37.86774084297402
0.8646637797355652	46.51809420756173
0.8678751587867737	54.49566937010585
0.8711057901382446	60.69946367521979
0.8743556141853333	63.87669862604353
0.87762451171875	62.8302189828535
0.8809124231338501	61.212664940683105
0.8842192888259888	63.99395800604449
0.8875449895858765	64.44806921804698
0.8908893465995789	51.84129687453802
0.894252359867096	29.306467392569886
0.8976338505744934	14.36131810530159
0.9010337591171265	21.316955523549563
0.9044519662857056	38.570923141651804
0.9078882932662964	38.61482775096518
0.9113426208496094	26.995271818155267
0.914814829826355	22.309426053905195
0.9183048605918884	25.78059878276509
0.9218124747276306	30.304170583715035
0.925337553024292	22.124416916027403
0.9288799166679382	7.565122615462799
0.9324395060539246	0.8471185071536982
0.9360161423683167	0.08380672399881971
0.9396095871925354	0.21087839698929506
0.943219780921936	0.1919325460726473
0.9468464851379395	0.06497216479040513
0.9504896402359009	0.029440342118212497
0.9541489481925964	0.03546265217543991
0.9578243494033813	0.05779664020596242
0.9615156054496765	0.3234407731925518
0.9652225375175476	2.420293798914047
0.9689450263977051	7.576782715249109
0.9726828336715698	10.876804617423353
0.9764357805252075	10.751313898213951
0.9802037477493286	14.406200568875036
0.983986496925354	25.64947076531713
0.9877838492393494	43.50829546076804
0.9915955662727356	67.96524714312584
0.9954215884208679	90.27302829779902
0.9992615580558777	90.52843643946423
1.0031154155731201	76.79573343239294
1.0069829225540161	65.43226868088573
1.0108637809753418	48.49869288799617
1.0147579908370972	27.310190272059984
1.018665075302124	11.573222692035738
1.022585153579712	4.379382112863331
1.0265177488327026	3.847294164984768
1.0304628610610962	4.385746691978745
1.0344202518463135	3.4863844060230096
1.0383895635604858	3.8644158118039877
1.0423706769943237	5.964528385346843
1.0463634729385376	7.863828034757794
1.0503677129745483	9.723447507408117
1.0543830394744873	11.57018011244599
1.058409333229065	12.139681006833586
1.0624464750289917	10.887019733583864
1.0664942264556885	8.57472169262212
1.0705522298812866	6.185557320235387
1.0746204853057861	4.434051381590025
1.0786986351013184	3.363688194162811
1.0827864408493042	2.6276037352846804
1.086883783340454	2.0335034766109383
1.0909905433654785	1.510096491644272
1.0951062440872192	1.0449691314741913
1.0992310047149658	0.6554071525110503
1.10336434841156	0.34598002905556235
1.1075061559677124	0.13734697509824234
1.1116561889648438	0.03688228197728094
1.115814208984375	0.005523432113258954
1.1199802160263062	0.00046397169362278966
1.124153733253479	0.00011113805187427883
1.1283347606658936	0.0002608009798512418
1.1325229406356812	0.0005353761412457799
1.1367181539535522	0.0011148679193763028
1.1409201622009277	0.0017062538455665985
1.145128846168518	0.0013327142879274905
1.1493438482284546	0.000551823547619995
1.1535650491714478	0.0002928630350571515
1.1577922105789185	0.0004543164471913605
1.1620250940322876	0.0010781479626162317
1.1662636995315552	0.004078399913330775
1.170507550239563	0.015546170660998103
1.174756646156311	0.04526737293384575
1.1790107488632202	0.09140997755251315
1.1832695007324219	0.128443809886024
1.1875330209732056	0.1368942120167353
1.191800832748413	0.12890939341762078
1.1960728168487549	0.11409102284970585
1.2003488540649414	0.10167859940501302
1.2046287059783936	0.10890371166264637
1.2089121341705322	0.12629590910358512
1.2131990194320679	0.14724218725420565
1.2174891233444214	0.19071613595915182
1.2217823266983032	0.30638812881157595
1.2260783910751343	0.5494575312951637
1.230377197265625	0.8793311992754749
1.2346785068511963	1.345128828037381
1.238982081413269	2.3219716122303233
1.2432878017425537	4.159193331622505
1.2475954294204712	6.511977197450452
1.2519049644470215	8.721434020501412
1.256216049194336	11.846929616892705
1.2605286836624146	18.480451993006348
1.2648425102233887	28.815752384913637
1.2691574096679688	36.84446807012272
1.2734732627868652	37.21619908651022
1.2777899503707886	32.766873448374746
1.2821072340011597	25.78068329548604
1.2864248752593994	16.9360231879807
1.2907428741455078	10.315546682228105
1.2950609922409058	7.684972991540224
1.2993791103363037	6.61325711357071
1.303696870803833	5.0410233281250445
1.3080145120620728	3.4907411549965053
1.3123314380645752	2.2251344593527618
1.3166478872299194	1.1552677542592378
1.3209635019302368	0.8135071580677407
1.3252781629562378	0.8504995519841241
1.3295916318893433	0.6095404992183211
1.3339040279388428	0.23218938562997712
1.3382149934768677	0.06956011833057064
1.3425244092941284	0.02278819055251424
1.3468321561813354	0.003185251974768679
1.3511382341384888	0.0002847191537030689
1.3554422855377197	2.1976800020657815e-05
1.3597444295883179	1.3229200793592343e-06
1.3640443086624146	3.915317150549043e-07
1.3683418035507202	6.881294445060633e-07
1.3726370334625244	2.0026578590039176e-06
1.3769296407699585	3.266707287716468e-06
1.381219506263733	2.4797028910426644e-06
1.3855066299438477	2.168222598184627e-06
1.3897908926010132	4.0857509093387094e-06
1.3940720558166504	6.89260625268372e-06
1.3983501195907593	1.212174286121891e-05
1.4026249647140503	1.690730133203041e-05
1.4068963527679443	2.8119100577317643e-05
1.4111642837524414	0.00010197176984341931
1.4154287576675415	0.0002697834384369625
1.419689416885376	0.00051994782148751
1.4239463806152344	0.0010988563141220995
1.4281994104385376	0.0022568681578709875
1.4324485063552856	0.003505065448656306
1.436693549156189	0.004789225727593564
1.440934419631958	0.008423353004168996
1.4451709985733032	0.022873785915829208
1.449403166770935	0.07392978567598664
1.453631043434143	0.19085413637830909
1.4578542709350586	0.29326252966763305
1.4620729684829712	0.2331818618355768
1.4662868976593018	0.09241987958974292
1.4704961776733398	0.024310530438532974
1.4747005701065063	0.009338094265299223
1.4788999557495117	0.00568115475365448
1.4830944538116455	0.003917720108754696
1.4872838258743286	0.00261376999694827
1.491468071937561	0.0016039124050439045
1.4956470727920532	0.0015064390203740623
1.4998208284378052	0.0036754285811791423
1.5039892196655273	0.007659101385135665
1.5081522464752197	0.007553701247302777
1.5123097896575928	0.003290956082019532
1.5164618492126465	0.002346555823866725
1.5206083059310913	0.006186570800936169
1.5247491598129272	0.015178652959458439
1.5288842916488647	0.031575506408819135
1.5330137014389038	0.04883206284990377
1.5371372699737549	0.06406184322761062
1.541254997253418	0.10361266122387167
1.545366883277893	0.21368383518609005
1.5494728088378906	0.5746922880697877
1.5535727739334106	1.6374705363699804
1.5576666593551636	4.27917761729385
1.561754584312439	11.303598109376118
1.5658363103866577	23.154744999322478
1.5699119567871094	33.213866180210715
1.5739814043045044	39.678325469258525
1.5780447721481323	47.69914347915578
1.582101821899414	58.18615208030921
1.5861525535583496	69.47232931210974
1.5901970863342285	78.76998476401566
1.5942351818084717	86.24698197393047
1.5982669591903687	87.88052331914831
1.6022924184799194	77.52112620609918
1.606311559677124	59.00766589589628
1.6103241443634033	38.91785139747397
1.6143304109573364	21.911189791727224
1.6183301210403442	9.989541831732028
1.6223233938217163	3.5735042922785363
1.6263102293014526	1.1222519440889815
1.6302905082702637	0.3288974413985161
1.634264349937439	0.1055353208535731
1.638231635093689	0.06040401010567714
1.6421923637390137	0.04452427692855675
1.646146535873413	0.030076614251883033
1.6500942707061768	0.02972560889303088
1.6540353298187256	0.0835626921450982
1.6579699516296387	0.23369859851611993
1.661897897720337	0.28929850243029065
1.6658192873001099	0.140450556360796
1.6697341203689575	0.038121315654378894
1.6736423969268799	0.045975569487688876
1.677544116973877	0.05171824311922266
1.6814392805099487	0.04106137140605461
1.6853278875350952	0.028228128194202375
1.6892099380493164	0.020838785563929683
1.6930854320526123	0.01631738230856631
1.696954369544983	0.01397251504209423
1.7008168697357178	0.010820466692048362
1.7046726942062378	0.006895700865443161
1.708522081375122	0.019881366348160262
1.712364912033081	0.10906345495736239
1.7162011861801147	0.32605978034170946
1.7200311422348022	0.41546001400145477
1.723854422569275	0.22515435325414251
1.7276713848114014	0.08431782571273153
1.731481909751892	0.12436267826782196
1.7352858781814575	0.2532186330982557
1.7390835285186768	0.5027328198980221
1.7428747415542603	0.8507943110022611
1.7466596364974976	1.2019057668854827
1.7504380941390991	1.4729367757319443
1.7542102336883545	1.4108699599253616
1.7579760551452637	1.0853496792116293
1.7617355585098267	0.7639729986580285
1.7654887437820435	0.5743678600620649
1.7692357301712036	0.5472490233670863
1.7729763984680176	0.4657350473269595
1.776710867881775	0.4286495614522849
1.7804391384124756	0.488355380006171
1.7841613292694092	0.4002579348501463
1.7878772020339966	0.2369330694919967
1.7915871143341064	0.12793782367175688
1.7952908277511597	0.08815625190480245
1.7989884614944458	0.09488811576631088
1.8026801347732544	0.06366305701258608
1.806365728378296	0.029501898228093036
1.8100452423095703	0.018910925973074942
1.8137187957763672	0.009136174276422748
1.817386507987976	0.0042141727845964915
1.8210482597351074	0.004702117972937872
1.8247040510177612	0.005963559230060494
1.828354001045227	0.0039869290483797665
1.8319982290267944	0.0015756065488197809
1.8356364965438843	0.001028140014386874
1.8392690420150757	0.0009428721218656507
1.8428958654403687	0.0016461408294276122
1.8465168476104736	0.0021631919459381274
1.8501322269439697	0.001966157409896421
1.8537418842315674	0.001777714648769602
1.8573459386825562	0.001845036015538896
1.860944390296936	0.0026853352064029135
1.864537239074707	0.0033843085661588008
1.8681244850158691	0.0024739584772652218
1.871706247329712	0.0012546184566435124
1.8752825260162354	0.00200144869737702
1.8788533210754395	0.004966915668308828
1.8824186325073242	0.007242532899053417
1.8859784603118896	0.008111468537800023
1.8895330429077148	0.008007403200783633
1.8930821418762207	0.0074894698044539266
1.8966259956359863	0.007069533110332429
1.9001644849777222	0.004414515214304065
1.9036977291107178	0.00217432028958605
1.9072256088256836	0.002590014714258205
1.9107483625411987	0.002929301995311773
1.9142658710479736	0.002741333427007649
1.9177782535552979	0.003096304487568198
1.9212853908538818	0.0034218133439234424
1.9247875213623047	0.003241692463956196
1.9282845258712769	0.002715287685941283
1.9317764043807983	0.0023538390322095292
1.9352631568908691	0.002237008332330594
1.9387450218200684	0.0017410138554707218
1.942221760749817	0.0012050725516729458
1.9456936120986938	0.0010110631817449697
1.9491604566574097	0.001034852553051918
1.952622413635254	0.001323328480043441
1.956079363822937	0.002321525463957639
1.959531545639038	0.0037507487599828075
1.962978720664978	0.004777757655618862
1.966421127319336	0.005648370953370353
1.9698586463928223	0.005628876494388577
1.9732913970947266	0.005327387347354034
1.9767193794250488	0.0060064806248361705
1.9801424741744995	0.004910563660328187
1.9835609197616577	0.004573100591229939
1.9869745969772339	0.008417350935429583
1.990383505821228	0.010318347159473171
1.9937876462936401	0.00967052237773731
1.9971871376037598	0.010702263179806201
2.000581979751587	0.011204084381103723
2.003972291946411	0.010050601215482981
2.007357597351074	0.01010158120459682
2.0107386112213135	0.011965323381401313
2.0141148567199707	0.012640667565659647
2.017486572265625	0.011225353911117092
2.0208535194396973	0.011069807694346576
2.0242159366607666	0.014493532169530908
2.027573823928833	0.01873944157272962
2.0309269428253174	0.021921372723006163
2.034275770187378	0.025038455296731148
2.0376198291778564	0.027362382087796337
2.040959596633911	0.028185304443898114
2.044294595718384	0.028594360660851453
2.0476250648498535	0.028698508755638966
2.0509510040283203	0.027814402392216865
2.054272413253784	0.026274089427567048
2.057589530944824	0.024507721613577806
2.0609018802642822	0.022941421903236274
2.0642096996307373	0.021313395203180614
2.0675129890441895	0.019412996447065095
2.0708119869232178	0.017527193093390372
2.074106216430664	0.015637271176923158
2.0773961544036865	0.013878119161821896
2.080681324005127	0.012288972510388367
2.0839622020721436	0.010893191961619125
2.087238311767578	0.009700161742040438
2.090510129928589	0.00867915690844254
2.0937774181365967	0.0078038852837562424
2.0970399379730225	0.007077630787196032
2.1002981662750244	0.0065496013087298875
2.1035518646240234	0.0061954438213179235
2.1068007946014404	0.006014294459907702
2.1100454330444336	0.005995356113228798
2.1132853031158447	0.006110964048693465
2.116520881652832	0.006402763175109984
2.1197516918182373	0.006880488877436184
2.1229779720306396	0.007520959762647166
2.12619948387146	0.008368807716996112
2.1294167041778564	0.009407843942578438
2.132629156112671	0.010565781753879571
2.1358368396759033	0.011820662034929784
2.139039993286133	0.013195263139606695
2.1422386169433594	0.014404242528469335
2.145432472229004	0.01535050553447155
2.1486217975616455	0.015889700958184653
2.151806354522705	0.016239568411137672
2.1549863815307617	0.01660806157094305
2.1581614017486572	0.016968820819811815
2.16133189201355	0.016431605613685313
2.1644976139068604	0.015297700054231334
2.167658567428589	0.014207066666492059
2.1708147525787354	0.013441390316045144
2.173966407775879	0.01398218525064402
2.1771130561828613	0.014435500327771873
2.1802549362182617	0.014516329081448263
2.183391809463501	0.014975804963490325
2.1865241527557373	0.015293840100409675
2.1896514892578125	0.013340913811579789
2.1927738189697266	0.00936234143962253
2.1958916187286377	0.005441421038347777
2.1990041732788086	0.0021921407857203325
2.2021119594573975	0.0005628106080063216
2.2052149772644043	0.0005903152361401741
2.208312749862671	0.0012477507076160826
2.2114057540893555	0.0013859462278257685
2.214493751525879	0.0010767319405840345
2.217576742172241	0.0008980946161141611
2.2206547260284424	0.0007152232183311552
2.2237277030944824	0.0005217291445516398
2.2267956733703613	0.0003869180269508113
2.2298583984375	0.00023386122670925166
2.2329163551330566	0.00021132282939537276
2.235969066619873	0.00025374075552764096
2.2390167713165283	0.00024059195661292645
2.2420592308044434	0.0002685280285976131
2.2450966835021973	0.0002568751531757814
2.248128890991211	0.00017401969696657481
2.2511560916900635	0.0001246729730852912
2.254178285598755	8.267551783498551e-05
2.257194995880127	4.023503004564605e-05
2.260206699371338	2.485852577717063e-05
2.2632133960723877	2.0718219943039917e-05
2.266214609146118	2.050403340413435e-05
2.2692108154296875	4.0550487432320895e-05
2.2722020149230957	8.989398100567031e-05
2.2751877307891846	0.0001131378990597518
2.278168201446533	0.00010651685640713555
2.2811436653137207	9.352899571733281e-05
2.284113883972168	6.885461321267766e-05
2.287078857421875	6.254434932233565e-05
2.290038824081421	5.324919928565247e-05
2.2929933071136475	3.436352625019532e-05
2.295942783355713	2.490647985745198e-05
2.298887014389038	1.6885665893525655e-05
2.301826238632202	1.0055773177844753e-05
2.304760217666626	2.6145363056024556e-05
2.3076889514923096	0.000302206501390644
2.310612440109253	0.001094597258002759
2.3135311603546143	0.0015176272184624737
2.3164443969726562	0.0008356972215010032
2.319352865219116	0.00015751106906189923
2.322256088256836	0.00011518824347687285
2.3251543045043945	0.00019738554766378757
2.328047275543213	0.000158413377219302
2.330935478210449	8.051116039134875e-05
2.3338186740875244	7.579125318648615e-05
2.3366971015930176	0.00010057749471180785
2.3395702838897705	0.00011212416270541877
2.3424389362335205	0.00012298548063281153
2.3453025817871094	8.680426472182622e-05
2.348161458969116	3.637051546088086e-05
2.351015567779541	3.755642086990012e-05
2.353865146636963	4.8067984832188164e-05
2.3567099571228027	9.49802474183297e-05
2.3595502376556396	0.0002969549601518433
2.3623859882354736	0.0005341129296312714
2.3652172088623047	0.00047017177497685506
2.368043899536133	0.00020273453970454368
2.370866537094116	5.573906512745668e-05
2.3736846446990967	0.00010035606940105027
2.3764986991882324	0.00035783443672685874
2.3793084621429443	0.0005721949897145995
2.3821144104003906	0.0004897667726591897
2.384916305541992	0.00041210599991214274
2.387714147567749	0.0005310602187409913
2.3905084133148193	0.0005755311434959932
2.393299102783203	0.0004806281286866732
2.3960859775543213	0.0005602809797229362
2.398869514465332	0.0009712538340655887
2.4016497135162354	0.001380213406517939
2.4044265747070312	0.001569060485839255
2.407200336456299	0.0021090640011175088
2.409970998764038	0.004014556079298594
2.4127390384674072	0.006228990678392039
