#wavelength	surface flux
0.6450077295303345	351.600606139969
0.6472567915916443	553.4824459710604
0.6494921445846558	727.5719624690827
0.6517150402069092	840.7480872030151
0.6539263725280762	955.58188768691
0.6561272740364075	1077.1437072349377
0.6583186388015747	1211.0805982627094
0.6605015397071838	1364.7718562479802
0.6626768708229065	1531.7230354078602
0.6648455858230591	1708.5330671709853
0.6670085787773132	1871.7087169946258
0.6691668033599854	1950.3559453350224
0.6713210344314575	2058.5676166561634
0.6734722256660461	2352.67633272234
0.6756211519241333	2654.310789566975
0.6777685880661011	2853.4058312785914
0.6799154281616211	3025.8866364475184
0.6820623278617859	3183.696905935241
0.6842101216316223	3322.4085209637224
0.6863595843315125	3431.0217481621958
0.688511312007904	3473.1355650350915
0.6906660795211792	3346.2981107749188
0.6928245425224304	3124.821770027858
0.6949873566627502	3132.400303287383
0.6971551775932312	3313.200178672528
0.6993286609649658	3332.3215806117
0.7015084028244019	3213.119793604623
0.7036949396133423	3120.039802678607
0.7058889269828796	3062.190696631764
0.7080909013748169	3001.9653182039574
0.710301399230957	2919.6440503812687
0.712520956993103	2790.9933269564863
0.7147500514984131	2517.375898509024
0.7169892191886902	2108.70785261821
0.7192389369010925	1877.252118816767
0.7214996814727783	1860.3353406113379
0.723771870136261	1786.8616696110132
0.7260559797286987	1665.795525447939
0.7283523678779602	1576.886530291144
0.7306615710258484	1494.9850694496677
0.7329838871955872	1476.5569401521939
0.7353196740150452	1482.0437194600436
0.7376693487167358	1431.8234131394852
0.7400332689285278	1376.540617707712
0.7424117922782898	1332.2665004352543
0.7448052167892456	1283.1861059582502
0.7472138404846191	1220.2721643120003
0.7496379613876343	1137.9311339868411
0.7520779371261597	1037.9113759784138
0.7545340061187744	921.9340555464413
0.7570064663887024	790.2812014818752
0.7594954967498779	641.1382593978975
0.7620013952255249	470.2534082096914
0.7645244002342224	288.3502294799549
0.7670646905899048	166.67077202277073
0.7696225643157959	183.89697656780874
0.7721980810165405	365.66388968569044
0.7747915983200073	653.8762036411033
0.7774031162261963	915.6752385142936
0.7800329327583313	1165.6590656693604
0.7826811671257019	1569.8363230740533
0.7853479981422424	2061.5691597189166
0.7880334854125977	2528.0462224781218
0.7907378077507019	2932.0022095420304
0.7934610247612	3162.907626385074
0.7962033748626709	3660.600132309622
0.7989648580551147	4647.969258975058
0.801745593547821	5604.640540974977
0.8045456409454346	6385.8845538807855
0.8073651194572449	6921.311410674568
0.8102040886878967	6987.525523020593
0.8130625486373901	6980.704231918791
0.8159406185150146	7863.395778757119
0.8188382983207703	9630.997792273185
0.8217556476593018	11095.77429566618
0.8246926665306091	12710.262212239724
0.8276493549346924	14923.473249905192
0.8306257724761963	16886.51496794055
0.8336219191551208	18976.376571268687
0.8366377949714661	21806.193958454074
0.8396733403205872	25504.38558666277
0.8427285552024841	30060.486330658292
0.8458034992218018	35210.92309468045
0.8488980531692505	39544.48136454344
0.8520121574401855	43667.543402075935
0.8551458716392517	51882.257956707144
0.8582990765571594	62269.42915742435
0.8614717125892639	70864.45735977481
0.8646637797355652	78697.46965292818
0.8678751587867737	86409.90946645603
0.8711057901382446	94183.03442416545
0.8743556141853333	101640.3132273526
0.87762451171875	108245.20722951787
0.8809124231338501	116317.32225704857
0.8842192888259888	127613.0538546893
0.8875449895858765	132338.39516473594
0.8908893465995789	114986.22510072103
0.894252359867096	89735.42548935059
0.8976338505744934	93162.18540180908
0.9010337591171265	129608.87421078727
0.9044519662857056	170419.56315920225
0.9078882932662964	185996.7287589383
0.9113426208496094	178851.4101682552
0.914814829826355	167992.08764517173
0.9183048605918884	172517.4241872857
0.9218124747276306	180842.35366553886
0.925337553024292	137503.67375111696
0.9288799166679382	60806.937023642065
0.9324395060539246	21932.942392922447
0.9360161423683167	26036.755945699857
0.9396095871925354	43035.31068850474
0.943219780921936	51485.981990274144
0.9468464851379395	48701.21607343712
0.9504896402359009	45056.13840563068
0.9541489481925964	41972.73110427879
0.9578243494033813	40042.60628437329
0.9615156054496765	47752.38188183278
0.9652225375175476	78248.5445758017
0.9689450263977051	121300.36301912516
0.9726828336715698	143281.90177749924
0.9764357805252075	151879.09211785853
0.9802037477493286	171832.67385549517
0.983986496925354	203148.2423386876
0.9877838492393494	253842.97647504706
0.9915955662727356	331857.8057453233
0.9954215884208679	427881.6843992428
0.9992615580558777	509231.2818109096
1.0031154155731201	585606.6568591848
1.0069829225540161	674852.4866455866
1.0108637809753418	731935.0778665933
1.0147579908370972	738259.6274935588
1.018665075302124	724638.590088026
1.022585153579712	766468.4530667805
1.0265177488327026	888796.3053069564
1.0304628610610962	969148.0213524137
1.0344202518463135	989208.7180666579
1.0383895635604858	1104756.2653301838
1.0423706769943237	1302857.447721927
1.0463634729385376	1463734.3780286543
1.0503677129745483	1606814.2329597706
1.0543830394744873	1774893.035421308
1.058409333229065	1904980.1331052782
1.0624464750289917	1960596.5312506645
1.0664942264556885	1946311.5140358726
1.0705522298812866	1884607.9803065048
1.0746204853057861	1856903.3759230794
1.0786986351013184	1840539.419578306
1.0827864408493042	1745425.9739991047
1.086883783340454	1474641.5193149452
1.0909905433654785	1023906.192949051
1.0951062440872192	594620.2330165189
1.0992310047149658	328024.4221350102
1.10336434841156	177865.38725614734
1.1075061559677124	90682.97251753889
1.1116561889648438	44172.18823012283
1.115814208984375	21220.537212821513
1.1199802160263062	14563.505098303807
1.124153733253479	14120.391233967097
1.1283347606658936	15658.372436723006
1.1325229406356812	15379.793991515684
1.1367181539535522	21610.720318197793
1.1409201622009277	33181.32800621219
1.145128846168518	31570.960177215842
1.1493438482284546	20636.205817397527
1.1535650491714478	12528.198260754316
1.1577922105789185	9444.856461719586
1.1620250940322876	9282.155875088834
1.1662636995315552	12478.387234022124
1.170507550239563	25182.75808470293
1.174756646156311	48004.00988831053
1.1790107488632202	82115.93773588868
1.1832695007324219	124558.50927198055
1.1875330209732056	164207.7122484878
1.191800832748413	216532.62753726708
1.1960728168487549	291936.71593497717
1.2003488540649414	373095.2846520038
1.2046287059783936	465056.9196195118
1.2089121341705322	547394.8690925328
1.2131990194320679	611694.606531794
1.2174891233444214	689969.2134796006
1.2217823266983032	803692.3310716447
1.2260783910751343	988049.1754926288
1.230377197265625	1229569.410520679
1.2346785068511963	1482633.1648631992
1.238982081413269	1768405.623772454
1.2432878017425537	2095813.4370666381
1.2475954294204712	2393872.560676636
1.2519049644470215	2605854.915537897
1.256216049194336	2831471.3260891186
1.2605286836624146	3085730.304036246
1.2648425102233887	3155997.651454621
1.2691574096679688	2943202.5105065824
1.2734732627868652	2519108.571158873
1.2777899503707886	2041751.5698405947
1.2821072340011597	1590593.315510645
1.2864248752593994	1190447.4675894692
1.2907428741455078	943121.5535314747
1.2950609922409058	854616.0275332028
1.2993791103363037	792568.5047773233
1.303696870803833	674625.6075442448
1.3080145120620728	550659.9795800701
1.3123314380645752	431162.8199222468
1.3166478872299194	355284.0696057497
1.3209635019302368	350674.40269001224
1.3252781629562378	307960.7635456346
1.3295916318893433	185006.90779507504
1.3339040279388428	67936.81001306875
1.3382149934768677	18297.224650565728
1.3425244092941284	6421.455865817144
1.3468321561813354	1997.9973699236496
1.3511382341384888	775.5722794264682
1.3554422855377197	313.4090851224867
1.3597444295883179	169.19839479107682
1.3640443086624146	229.21803523387666
1.3683418035507202	324.6804387436606
1.3726370334625244	584.7104401941358
1.3769296407699585	931.3502957412509
1.381219506263733	816.8174348024651
1.3855066299438477	534.3653008415307
1.3897908926010132	567.2297764950652
1.3940720558166504	660.2375641150938
1.3983501195907593	709.301060786265
1.4026249647140503	772.6836233055615
1.4068963527679443	828.0603757775629
1.4111642837524414	1007.264271283064
1.4154287576675415	1267.1411863643307
1.419689416885376	1360.1394352895559
1.4239463806152344	1896.1606893133292
1.4281994104385376	3663.6813866751218
1.4324485063552856	5018.066770561562
1.436693549156189	5176.097778057089
1.440934419631958	6231.738473126512
1.4451709985733032	9387.169619526157
1.449403166770935	14883.764740923492
1.453631043434143	20070.538333107703
1.4578542709350586	22014.498355601074
1.4620729684829712	19274.05462820761
1.4662868976593018	13328.45247138058
1.4704961776733398	7635.71798168503
1.4747005701065063	4449.794311538638
1.4788999557495117	4487.2136453910925
1.4830944538116455	5507.761547692827
1.4872838258743286	5791.671115037442
1.491468071937561	5499.272795818466
1.4956470727920532	6428.049322726217
1.4998208284378052	9056.884863886762
1.5039892196655273	10187.002609191879
1.5081522464752197	8212.224899276724
1.5123097896575928	5325.654295288816
1.5164618492126465	5583.673983814772
1.5206083059310913	10538.854472207342
1.5247491598129272	16277.067317795214
1.5288842916488647	21930.79223571717
1.5330137014389038	28728.898235054854
1.5371372699737549	34419.64205783398
1.541254997253418	40954.529001222516
1.545366883277893	49236.700842332255
1.5494728088378906	59807.38827226613
1.5535727739334106	82650.98175893017
1.5576666593551636	124264.51338135793
1.561754584312439	191159.9201926495
1.5658363103866577	281824.28022723756
1.5699119567871094	354604.07528508944
1.5739814043045044	398876.2867614754
1.5780447721481323	457470.27565890044
1.582101821899414	525203.24002571
1.5861525535583496	564063.1789796185
1.5901970863342285	560153.7778577539
1.5942351818084717	523594.51639960136
1.5982669591903687	463554.7171819111
1.6022924184799194	377718.97086159466
1.606311559677124	288547.2630440465
1.6103241443634033	218845.56579179617
1.6143304109573364	149857.53459113944
1.6183301210403442	87630.61016885754
1.6223233938217163	60840.9039801971
1.6263102293014526	57660.95066160753
1.6302905082702637	61105.34337681217
1.634264349937439	72548.84805702425
1.638231635093689	90319.08194704105
1.6421923637390137	92977.29473103909
1.646146535873413	71923.20349908332
1.6500942707061768	67257.40593892126
1.6540353298187256	76649.05250901612
1.6579699516296387	77288.88180964957
1.661897897720337	77914.63467285816
1.6658192873001099	50351.66862213151
1.6697341203689575	16962.06109523983
1.6736423969268799	16493.734538358327
1.677544116973877	21563.33201658644
1.6814392805099487	18801.25144023696
1.6853278875350952	16390.88796812788
1.6892099380493164	13669.094879742803
1.6930854320526123	9178.322621975643
1.696954369544983	5969.226861633455
1.7008168697357178	4274.0462966629475
1.7046726942062378	4513.693434549275
1.708522081375122	8067.623025704989
1.712364912033081	13839.92815341859
1.7162011861801147	22517.313312013142
1.7200311422348022	29364.94638799469
1.723854422569275	26516.462233575523
1.7276713848114014	22464.125104898096
1.731481909751892	23338.18739845348
1.7352858781814575	27761.67522411577
1.7390835285186768	38189.26566779849
1.7428747415542603	50809.50479886786
1.7466596364974976	59678.81070201334
1.7504380941390991	60779.7802782148
1.7542102336883545	50051.272691301136
1.7579760551452637	36388.47245388159
1.7617355585098267	30508.113529888276
1.7654887437820435	29701.9595707413
1.7692357301712036	27456.214544646846
1.7729763984680176	23492.190152235846
1.776710867881775	26039.984394041196
1.7804391384124756	32079.92225315033
1.7841613292694092	29192.823629956474
1.7878772020339966	22111.68371614782
1.7915871143341064	15956.239091754822
1.7952908277511597	13598.285824432909
1.7989884614944458	15886.975721203104
1.8026801347732544	12895.740316723071
1.806365728378296	9353.671895539817
1.8100452423095703	9462.600040522526
1.8137187957763672	8629.277448596233
1.817386507987976	7343.005973950965
1.8210482597351074	9739.553919567199
1.8247040510177612	13054.8616285104
1.828354001045227	9131.409369195248
1.8319982290267944	3987.0941244303867
1.8356364965438843	2646.888859444988
1.8392690420150757	3144.4444134111372
1.8428958654403687	6834.779524782283
1.8465168476104736	9200.074768081156
1.8501322269439697	8717.801815585944
1.8537418842315674	8267.866064848273
1.8573459386825562	6802.064535741286
1.860944390296936	5094.847512171336
1.864537239074707	3744.300655714841
1.8681244850158691	2241.3670661734373
1.871706247329712	1663.0870120230345
1.8752825260162354	4365.449374840837
1.8788533210754395	11153.446564652066
1.8824186325073242	15776.491553250007
1.8859784603118896	14681.932538740777
1.8895330429077148	12633.698232812541
1.8930821418762207	14316.955100404979
1.8966259956359863	15537.958601124372
1.9001644849777222	10040.515376244894
1.9036977291107178	5118.766448764102
1.9072256088256836	5057.252122868069
1.9107483625411987	4661.542306198493
1.9142658710479736	3461.053772549151
1.9177782535552979	3397.8042383839884
1.9212853908538818	3544.33630494744
1.9247875213623047	3076.97685892036
1.9282845258712769	2407.379778373959
1.9317764043807983	1964.4555619190535
1.9352631568908691	1792.5079548460217
1.9387450218200684	1665.0899557358903
1.942221760749817	2011.9710599775563
1.9456936120986938	2589.310581182227
1.9491604566574097	2571.763714784701
1.952622413635254	2396.988614072012
1.956079363822937	3275.5036046621663
1.959531545639038	4962.969204924756
1.962978720664978	5728.900665621554
1.966421127319336	5737.087771752816
1.9698586463928223	5485.5955578552885
1.9732913970947266	5770.623453690578
1.9767193794250488	7506.014045003725
1.9801424741744995	7490.068225361295
1.9835609197616577	6651.464977194851
1.9869745969772339	8280.29680169332
1.990383505821228	10562.75029200836
1.9937876462936401	14373.424811637711
1.9971871376037598	20055.645061256364
2.000581979751587	22517.51365922859
2.003972291946411	20952.060419634287
2.007357597351074	21241.375026678284
2.0107386112213135	21829.331195264847
2.0141148567199707	18953.630784580328
2.017486572265625	15075.470213564578
2.0208535194396973	14466.503420966068
2.0242159366607666	18625.600343600065
2.027573823928833	22779.867125048753
2.0309269428253174	26552.119091846067
2.034275770187378	30872.37875392593
2.0376198291778564	32601.538715294813
2.040959596633911	34013.274414042695
2.044294595718384	40286.27289881797
2.0476250648498535	47755.04842185897
2.0509510040283203	53015.68252094037
2.054272413253784	59237.355846128405
2.057589530944824	67166.28103623562
2.0609018802642822	74866.68170473917
2.0642096996307373	82360.4510997712
2.0675129890441895	89913.5056896565
2.0708119869232178	97229.1629983878
2.074106216430664	105328.42838758015
2.0773961544036865	111687.07404816599
2.080681324005127	116276.43263059692
2.0839622020721436	122859.49198921154
2.087238311767578	129424.14310943418
2.090510129928589	135850.12926467092
2.0937774181365967	138670.88771385708
2.0970399379730225	137081.17054738232
2.1002981662750244	135591.8135701983
2.1035518646240234	136278.10865340618
2.1068007946014404	136067.63622003063
2.1100454330444336	132040.56455515884
2.1132853031158447	128620.65803085038
2.116520881652832	123109.16036023073
2.1197516918182373	116738.17812272793
2.1229779720306396	112381.54420298358
2.12619948387146	108170.01532597379
2.1294167041778564	104969.43872257078
2.132629156112671	102435.61952618313
2.1358368396759033	100068.14134634919
2.139039993286133	93980.86731029884
2.1422386169433594	80924.23990444485
2.145432472229004	68391.10451880093
2.1486217975616455	63502.27040742936
2.151806354522705	60725.0889121324
2.1549863815307617	54845.79152526151
2.1581614017486572	48569.120898568624
2.16133189201355	41136.617274671706
2.1644976139068604	34584.89732654076
2.167658567428589	30194.946423278907
2.1708147525787354	27789.994278678725
2.173966407775879	28618.340214763262
2.1771130561828613	27876.244756767108
2.1802549362182617	24937.310134223866
2.183391809463501	22383.78082817652
2.1865241527557373	20565.041045907292
2.1896514892578125	16923.590302109846
2.1927738189697266	10786.536992476416
2.1958916187286377	5565.162783631563
2.1990041732788086	2411.6592563854674
2.2021119594573975	1066.0020835476255
2.2052149772644043	1389.9372498930472
2.208312749862671	2532.8379660326077
2.2114057540893555	3484.0400214720657
2.214493751525879	3974.3171487350896
2.217576742172241	4220.503755803851
2.2206547260284424	3895.5306347282294
2.2237277030944824	3367.0114793287676
2.2267956733703613	2853.5951922847867
2.2298583984375	2161.0553199069286
2.2329163551330566	1905.986833992884
2.235969066619873	1886.0065959827382
2.2390167713165283	1505.3177688059056
2.2420592308044434	1272.4595989185984
2.2450966835021973	1198.942077777063
2.248128890991211	915.9145291994206
2.2511560916900635	712.6578136242141
2.254178285598755	624.9695426097052
2.257194995880127	549.0833978702876
2.260206699371338	544.3386989695504
2.2632133960723877	545.8719284725333
2.266214609146118	567.4321121136558
2.2692108154296875	669.457001500825
2.2722020149230957	797.0628442673108
2.2751877307891846	766.5232801455332
2.278168201446533	686.5246692110903
2.2811436653137207	684.8480267402921
2.284113883972168	587.4073610786597
2.287078857421875	496.69620658645874
2.290038824081421	464.9578053223404
2.2929933071136475	414.3833122483343
2.295942783355713	396.81959323450366
2.298887014389038	466.86218340804663
2.301826238632202	578.8132511228894
2.304760217666626	808.4091822639947
2.3076889514923096	1666.7529573463232
2.310612440109253	3332.502637845763
2.3135311603546143	3886.8214493563914
2.3164443969726562	2119.4544985939533
2.319352865219116	483.1661429418017
2.322256088256836	274.70798411856333
2.3251543045043945	427.2702555076669
2.328047275543213	503.742970316569
2.330935478210449	572.0493946449213
2.3338186740875244	669.224212661558
2.3366971015930176	689.0232792384732
2.3395702838897705	683.2166120765291
2.3424389362335205	723.099493758978
2.3453025817871094	648.3930879497254
2.348161458969116	575.2177949588126
2.351015567779541	672.6905867109082
2.353865146636963	823.1487166751646
2.3567099571228027	1056.271153398172
2.3595502376556396	1599.9475224459654
2.3623859882354736	2191.692758931217
2.3652172088623047	2151.6701927748527
2.368043899536133	1457.068135281676
2.370866537094116	718.5460038580163
2.3736846446990967	532.8452262857338
2.3764986991882324	894.0419027276275
2.3793084621429443	1192.903872297321
2.3821144104003906	1151.5296924019865
2.384916305541992	1286.110584260867
2.387714147567749	1777.5600319956707
2.3905084133148193	2015.7599708552136
2.393299102783203	1847.249725966913
2.3960859775543213	1790.8442444046898
2.398869514465332	2258.478354178915
2.4016497135162354	3015.0361234145553
2.4044265747070312	3548.3561050357985
2.407200336456299	3850.6396311923877
2.409970998764038	5219.897867004735
2.4127390384674072	6871.3332219247095
2.415503978729248	6063.333405208299
2.418266534805298	4309.685825471658
2.4210267066955566	3819.5455639657916
2.4237842559814453	3492.3302769772413
2.426539897918701	3623.38344982841
2.429293394088745	5256.273457970459
2.4320452213287354	6332.144681354506
2.4347951412200928	5620.368022962896
2.4375438690185547	6683.8142545545625
2.440291166305542	9502.316289859273
2.443037271499634	10004.446102280315
2.445782423019409	9107.611802832329
2.4485268592834473	9140.059532509447
2.451270818710327	9962.726758671664
2.454014539718628	11463.716668207511
2.4567582607269287	13554.203262543946
2.4595019817352295	15959.018251103402
2.4622461795806885	19269.169308409582
2.4649908542633057	23081.57450083611
2.4677364826202393	22331.140583940207
2.4704833030700684	18596.80660953306
2.473231554031372	17721.34266087901
2.4759814739227295	19615.264118144947
2.4787333011627197	20480.13597525968
2.481487512588501	20618.268790892234
