#wavelength	surface flux
0.8	3275161.418432581
0.8002000000000001	3285295.7457047743
0.8004000500000003	3295666.439733418
0.8006001500125003	3306042.0883808606
0.8008003000500035	3316420.330940466
0.8010005001250161	3326801.1680607162
0.8012007502500472	3337184.6003902312
0.8014010504376099	3346256.4134896006
0.8016014007002193	3354890.2726384215
0.8018018010503944	3363526.2902520294
0.8020022515006572	3372164.466870045
0.8022027520635323	3380804.8030322073
0.8024033027515483	3389384.2525092387
0.8026039035772362	3397904.063471966
0.8028045545531306	3406426.0043874336
0.8030052556917691	3414950.0757881347
0.803206007005692	3423476.278206678
0.8034068085074435	3432213.1164993243
0.8036076602095705	3441536.6072046673
0.8038085621246229	3450862.428782679
0.8040095142651542	3460190.581816091
0.8042105166437206	3469521.0668877587
0.8044115692728815	3478803.0639343513
0.8046126721651998	3485901.4959415565
0.8048138253332411	3493001.7025567577
0.8050150287895745	3500103.6842236193
0.805216282546772	3507207.441385896
0.8054175866174087	3514312.9744874593
0.8056189410140631	3521958.260734353
0.8058203457493168	3529757.7406188394
0.8060218008357541	3537559.1703732866
0.8062233062859632	3545362.5504851765
0.8064248621125346	3553167.881442089
0.806626468328063	3561793.96058883
0.8068281249451449	3571125.4437022833
0.8070298319763813	3580459.2596865264
0.8072315894343755	3589795.4091247586
0.8074333973317341	3599133.892600354
0.8076352556810671	3606994.4139845017
0.8078371644949874	3611293.5791302505
0.8080391237861113	3615593.819067287
0.8082411335670578	3619895.134064304
0.8084431938504498	3624197.524390076
0.8086453046489125	3628459.937685158
0.8088474659750746	3631959.0901945326
0.8090496778415686	3635459.1174920388
0.809251940261029	3638960.0197963673
0.8094542532460944	3642461.7973262747
0.8096566168094059	3645964.450300561
0.8098590309636085	3650749.799130514
0.8100614957213493	3655836.36478013
0.8102640110952797	3660924.202071159
0.8104665770980536	3666013.3113215133
0.8106691937423283	3671103.692849182
0.8108718610407639	3677043.5542425066
0.8110745790060241	3683633.480181459
0.8112773476507757	3690225.053601901
0.8114801669876885	3696818.274915697
0.8116830370294355	3703413.1445348174
0.8118859577886929	3709591.239560676
0.8120889292781401	3714901.795597281
0.8122919515104597	3720213.6792728943
0.8124950244983374	3725526.8909194274
0.8126981482544621	3730841.430868871
0.8129013227915257	3736265.1832326814
0.8131045481222237	3742925.5773022594
0.8133078242592543	3749587.636470355
0.8135111512153191	3756251.3611532417
0.813714529003123	3762916.7517672996
0.8139179576353739	3769583.808729012
0.8141214371247829	3787175.145058987
0.8143249674840641	3806888.9575233324
0.814528548725935	3826607.698440782
0.8147321808631167	3846331.3690434876
0.8149358639083326	3866059.970563838
0.8151395978743097	3879469.855382042
0.8153433827737784	3888610.570189281
0.8155472186194719	3897753.5701752184
0.8157511054241268	3906898.8559111506
0.815955043200483	3916046.4279685225
0.8161590319612831	3924128.526793769
0.8163630717192736	3930256.105869009
0.8165671624872033	3936385.2168390118
0.8167713042778252	3942515.8600867623
0.8169754971038948	3948648.035995328
0.8171797409781707	3953888.9282318577
0.8173840359134155	3952003.4983339347
0.8175883819223938	3950117.597078539
0.8177927790178745	3948231.224347829
0.8179972272126291	3946344.3800239353
0.8182017265194322	3944457.063988962
0.8184062769510622	3951260.0647173137
0.8186108785203001	3959402.149930085
0.8188155312399301	3967546.270664148
0.8190202351227402	3975692.427428404
0.819224990181521	3983840.6207318455
0.8194297964290664	3998096.2066645077
0.8196346538781738	4016035.348740314
0.8198395625416434	4033978.9756016317
0.8200445224322789	4051927.0883696727
0.820249533562887	4069879.6881659003
0.8204545959462778	4084453.668369164
0.8206597095952644	4093586.271487165
0.8208648745226633	4102721.157755952
0.8210700907412941	4111858.3277463047
0.8212753582639793	4120997.782029146
0.8214806771035456	4128195.624470961
0.8216860472728215	4123418.494335616
0.8218914687846397	4118640.1699177367
0.822096941651836	4113860.650918751
0.822302465887249	4109079.937040018
0.8225080415037209	4104298.027982813
0.8227136685140968	4114954.3056527
0.8229193469312254	4127365.939953721
0.8231250767679583	4139780.6771633215
0.8233308580371503	4152198.518057218
0.8235366907516598	4164619.4634113465
0.8237425749243477	4177528.1603043005
0.8239485105680789	4190696.955431617
0.824154497695721	4203869.042757707
0.824360536320145	4217044.42310563
0.8245666264542252	4230223.09729864
0.8247727681108388	4242232.309403164
0.8249789613028664	4252564.915406858
0.8251852060431922	4262900.10456206
0.825391502344703	4273237.877514547
0.8255978502202894	4283578.23491028
0.8258042496828445	4293389.5203556055
0.8260107007452654	4300621.228767383
0.8262172034204517	4307854.745106256
0.8264237577213068	4315090.069824215
0.8266303636607373	4322327.203373358
0.8268370212516525	4329566.1462058835
0.8270437305069654	4332136.942397998
0.8272504914395923	4334343.454549099
0.8274573040624523	4336550.518328239
0.8276641683884679	4338758.133873322
0.8278710844305652	4340966.3013222935
0.8280780522016729	4347574.920255425
0.8282850717147234	4356196.377230477
0.8284921429826521	4364819.989569763
0.8286992660183978	4373445.757812141
0.8289064408349024	4382073.682496574
0.8291136674451112	4388942.510326349
0.8293209458619727	4393592.20253139
0.8295282760984382	4398243.057159475
0.829735658167463	4402895.074501224
0.8299430920820048	4407548.254847301
0.8301505778550254	4412459.965801209
0.8303581154994891	4418400.132994871
0.8305657050283641	4424341.785230337
0.8307733464546212	4430284.922878857
0.8309810397912352	4436229.5463117985
0.8311887850511829	4442175.655900587
0.8313965822474458	4456700.250898819
0.8316044313930077	4471626.5809340775
0.8318123325008561	4486556.642551859
0.8320202855839813	4501490.436685038
0.8322282906553774	4516427.964266751
0.8324363477280413	4524916.727660122
0.8326444568149735	4530809.8600835055
0.8328526179291771	4536704.465789988
0.8330608310836596	4542600.545147906
0.8332690962914304	4548498.098525655
0.8334774135655034	4553788.337161498
0.833685782918895	4558399.860906313
0.8338942043646247	4563012.537532062
0.834102677915716	4567626.36732697
0.834311203585195	4572241.350579324
0.8345197813860912	4578998.794039907
0.8347284113314379	4592965.764660369
0.8349370934342709	4606936.227023478
0.8351458277076294	4620910.18200216
0.8353546141645565	4634887.63046961
0.8355634528180977	4648868.573299171
0.8357723436813022	4642615.615051566
0.8359812867672226	4636111.213285069
0.8361902820889144	4629605.185418135
0.8363993296594368	4623097.531044231
0.8366084294918518	4616588.249756732
0.8368175815992247	4625061.10742731
0.8370267859946247	4638696.6463191435
0.8372360426911234	4652335.594095695
0.8374453517017962	4665977.95160919
0.8376547130397217	4679623.719712061
0.8378641267179816	4689695.806199636
0.8380735927496613	4696221.004527572
0.8382831111478488	4702747.834155085
0.8384926819256358	4709276.295490001
0.8387023050961173	4715806.388940257
0.8389119806723914	4722341.848173096
0.8391217086675596	4728889.447882087
0.8393314890947265	4735438.684491
0.8395413219670003	4741989.558409066
0.8397512072974922	4748542.0700456165
0.8399611450993165	4755281.960241964
0.8401711353855914	4771247.338878819
0.8403811781694378	4787216.7088603275
0.8405912734639802	4803190.071184336
0.8408014212823464	4819167.426848934
0.8410116216376671	4835148.776852445
0.8412218745430766	4849347.93542795
0.8414321800117124	4863030.9323708955
0.8416425380567154	4876717.350063084
0.8418529486912297	4890407.189359698
0.8420634119284025	4904100.451116126
0.8422739277813847	4913824.543214712
0.8424844962633302	4920051.057775438
0.842695117387396	4926279.128964795
0.8429057911667428	4932508.75717195
0.8431165176145345	4938739.94278616
0.8433272967439382	4944946.546306653
0.8435381285681244	4951090.939037427
0.8437490131002665	4957236.867866383
0.8439599503535415	4963384.333177542
0.84417094034113	4969533.335355034
0.8443819830762154	4975870.206232985
0.8445930785719846	4985962.32431623
0.8448042268416277	4996056.965428988
0.8450154278983382	5006154.130202025
0.8452266817553128	5016253.819266254
0.8454379884257517	5026356.0332527505
0.8456493479228583	5036441.774668395
0.845860760259839	5046525.462542715
0.846072225449904	5056611.671339002
0.8462837435062666	5066700.401687492
0.8464953144421433	5076791.654218573
0.8467069382707537	5085266.547999561
0.8469186150053215	5092481.692044218
0.847130344659073	5099698.639874888
0.8473421272452377	5106917.3919425085
0.8475539627770492	5114137.948698153
0.8477658512677435	5121922.836654248
0.8479777927305605	5130904.120848821
0.8481897871787432	5139887.650364439
0.848401834625538	5148873.425762442
0.8486139350841944	5157861.447604288
0.8488260885679657	5166666.794409418
0.8490382950901076	5173220.208504569
0.8492505546638802	5179775.260953248
0.8494628673025462	5186331.9521650355
0.8496752330193721	5192890.282549636
0.8498876518276269	5199450.252516825
0.8501001237405839	5197137.237758552
0.8503126487715191	5193052.1137892855
0.850525226933712	5188965.968539029
0.8507378582404455	5184878.80175246
0.8509505427050057	5180790.613174192
0.8511632803406821	5180095.886982718
0.8513760711607672	5181725.5873598885
0.8515889151785576	5183355.695162157
0.8518018124073523	5184986.210491374
0.8520147628604541	5186617.133449422
0.8522277665511693	5194669.500638752
0.8524408234928071	5214598.811771983
0.8526539336986805	5234533.105233002
0.8528670971821053	5254472.382267388
0.8530803139564007	5274416.644121009
0.8532935840348901	5294118.7762059
0.8535069074308987	5311738.814327306
0.8537202841577566	5329363.2574582575
0.8539337142287962	5346992.106699993
0.8541471976573534	5364625.363154029
0.8543607344567677	5382263.0279221805
0.8545743246403821	5394243.548252235
0.8547879682215422	5405327.944251979
0.8550016652135977	5416415.111350721
0.8552154156299011	5427505.050241238
0.8554292194838088	5438597.761616487
0.8556430767886797	5448228.932146769
0.855856987557877	5456973.417669873
0.8560709518047664	5465720.089314353
0.8562849695427177	5474468.947626746
0.8564990407851035	5483219.99315372
0.8567131655452999	5491944.73969072
0.8569273438366862	5500624.990921579
0.8571415756726455	5509307.412215248
0.8573558610665638	5517992.004114243
0.8575702000318304	5526678.767161204
0.8577845925818384	5535537.629907792
0.857999038729984	5545460.140315435
0.8582135384896665	5555385.131350677
0.858428091874289	5565312.6036336785
0.8586426988972576	5575242.557784748
0.8588573595719821	5585174.994424359
0.8590720739118751	5593290.754956667
0.8592868419303532	5601194.060121861
0.8595016636408359	5609099.341113348
0.8597165390567462	5617006.598425077
0.8599314681915105	5624915.8325511385
0.8601464510585584	5630424.249947045
0.860361487671323	5634658.658144656
0.8605765780432408	5638894.124944314
0.8607917221877518	5643130.650610676
0.8610069201182988	5647368.235408453
0.8612221718483286	5625893.319137737
0.8614374773912907	5567343.456909216
0.8616528367606385	5508778.957215153
0.8618682499698288	5450199.816396129
0.8620837170323213	5391606.030791911
0.8622992379615795	5341843.454671489
0.8625148127710699	5335843.1997910645
0.8627304414742627	5329841.444846919
0.8629461240846313	5323838.189464036
0.8631618606156526	5317833.4332673075
0.8633776510808066	5311827.175881531
0.8635934954935769	5388138.772560204
0.8638093938674504	5471217.313604675
0.8640253462159173	5554316.624284404
0.8642413525524714	5637436.709791802
0.8644574128906095	5720577.575320559
0.8646735272438323	5728648.370000446
0.8648896956256433	5701801.853639814
0.8651059180495498	5674948.625650089
0.8653221945290621	5648088.6843533935
0.8655385250776946	5621222.0280713355
0.8657549097089641	5619700.321129067
0.8659713484363913	5650633.9391843565
0.8661878412735006	5681575.290644174
0.866404388233819	5712524.377441852
0.8666209893308775	5743481.201511215
0.8668376445782103	5769717.0320822345
0.8670543539893549	5776659.062948282
0.8672711175778525	5783602.82932205
0.8674879353572469	5790548.331637404
0.8677048073410862	5797495.57032834
0.8679217335429217	5804444.545828952
0.8681387139763074	5820055.409490602
0.8683557486548015	5836100.390102055
0.8685728375919655	5852149.381958681
0.8687899808013633	5868202.386063236
0.8690071782965637	5884259.403418838
0.869224430091138	5890217.34614318
0.8694417361986609	5892065.844257411
0.8696590966327107	5893914.80449617
0.869876511406869	5895764.226974989
0.8700939805347206	5897614.111809427
0.8703115040298544	5901170.105667651
0.870529081905862	5906677.03595911
0.8707467141763385	5912185.342983139
0.8709644008548827	5917695.027083924
0.8711821419550964	5923206.088605732
0.8713999374905854	5930554.833434379
0.871617787474958	5944243.142999309
0.8718356919218269	5957934.874641644
0.8720536508448075	5971630.029216889
0.8722716642575187	5985328.607580771
0.8724897321735832	5999030.610589249
0.8727078546066265	6011063.778615745
0.8729260315702784	6023074.514366658
0.873144263078171	6035088.252801497
0.8733625491439405	6047104.994670945
0.8735808897812266	6059124.740725866
0.8737992850036719	6064988.693808345
0.874017734824923	6068672.767927458
0.8742362392586293	6072357.763065099
0.874454798318444	6076043.679451524
0.8746734120180236	6079730.5173170455
0.8748920803710283	6085886.939386706
0.875110803391121	6094525.671138251
0.8753295810919689	6103166.56257274
0.875548413487242	6111809.614230086
0.8757673005906139	6120454.8266503485
0.8759862424157616	6132829.675071862
0.8762052389763657	6155993.2411542265
0.8764242902861098	6179162.598128095
0.8766433963586814	6202337.7474412145
0.8768625572077712	6225518.690541669
0.8770817728470732	6248518.422153021
0.8773010432902849	6256922.890480994
0.8775203685511077	6265329.459926061
0.8777397486432454	6273738.131013479
0.8779591835804065	6282148.904268679
0.8781786733763015	6290561.780217182
0.8783982180446457	6279544.267178012
0.878617817599157	6262743.196550205
0.8788374720535569	6245937.92565475
0.8790571814215703	6229128.453441575
0.8792769457169257	6212314.778860346
0.879496764953355	6203985.47477262
0.8797166391445934	6203285.8738454515
0.8799365683043796	6202586.098018052
0.8801565524464557	6201886.147246695
0.8803765915845676	6201186.021487646
0.8805966857324639	6208721.794434635
0.880816834903897	6236945.9994796235
0.881037039112623	6265177.260575884
0.8812572983724012	6293415.579487416
0.8814776126969944	6321660.957978688
0.8816979821001687	6349570.372744754
0.8819184065956938	6369411.896983431
0.8821388861973429	6389258.381603189
0.8823594209188923	6409109.827844081
0.882580010774122	6428966.236946526
0.8828006557768155	6448827.610151257
0.8830213559407598	6467896.040411119
0.8832421112797452	6486768.555744739
0.8834629218075651	6505645.789207182
0.8836837875380171	6524527.741977995
0.8839047084849018	6543414.415237005
0.884125684662023	6539898.043312652
0.8843467160831886	6518423.828964863
0.8845678027622095	6496944.246063486
0.8847889447129001	6475459.29326638
0.8850101419490785	6453968.969231078
0.8852313944845657	6452291.440135599
0.885452702333187	6493993.029649447
0.8856740655087704	6535705.044560667
0.8858954840251476	6577427.487475604
0.8861169578961539	6619160.36100125
0.886338487135628	6656722.345337439
0.886560071757412	6638651.161817449
0.8867817117753515	6620575.460501579
0.8870034072032955	6602495.240260371
0.8872251580550963	6584410.4999641245
0.8874469643446101	6566321.238482793
0.8876688260856963	6582128.908304513
0.8878907432922178	6604956.870342525
0.8881127159780409	6627790.539371031
0.8883347441570356	6650629.916816822
0.8885568278430749	6673475.004106951
0.8887789670500358	6683692.634098649
0.8890011617917983	6684951.181666055
0.8892234120822464	6686210.043870353
0.8894457179352669	6687469.220790202
0.8896680793647509	6688728.712504282
0.8898904963845921	6688701.537756232
0.8901129690086883	6686218.761950129
0.8903354972509405	6683735.365450076
0.8905580811252535	6681251.348100896
0.8907807206455347	6678766.7097473815
0.8910034158256963	6674831.585715527
0.8912261666796527	6657938.091086103
0.8914489732213227	6641040.373083017
0.8916718354646282	6624138.430650414
0.8918947534234944	6607232.262732219
0.8921177271118502	6590321.868272055
0.8923407565436284	6584795.636560001
0.8925638417327644	6581125.779420495
0.8927869826931977	6577455.0048167035
0.8930101794388711	6573783.312519261
0.8932334319837308	6570110.702298744
0.8934567403417267	6574987.504274743
0.8936801045268123	6585178.549260706
0.8939035245529441	6595372.142007907
0.8941270004340824	6605568.2831533
0.894350532184191	6615766.973333976
0.8945741198172371	6643210.4957592795
0.8947977633471915	6699255.147987381
0.8950214627880284	6755313.811378536
0.8952452181537254	6811386.489435507
0.8954690294582639	6867473.185662025
0.8956928967156286	6917084.598582526
0.8959168199398075	6924595.136710024
0.8961407991447926	6932107.552472058
0.8963648343445789	6939621.846338031
0.896588925553165	6947138.018777466
0.8968130727845534	6954656.0702600125
0.8970372760527496	6956663.680436813
0.8972615353717629	6957982.090173791
0.8974858507556059	6959300.829513202
0.8977102222182949	6960619.89853745
0.8979346497738496	6961939.297328952
0.8981591334362931	6984911.679470418
0.8983836732196523	7019731.131776072
0.8986082691379572	7054559.288944779
0.8988329212052417	7089396.153152779
0.8990576294355432	7124241.72657686
0.8992823938429022	7146007.091137613
0.8995072144413631	7148316.335964806
0.8997320912449734	7150626.158103205
0.8999570242677847	7152936.557697138
0.9001820135238516	7155247.534890969
0.9004070590272328	7159387.340512396
0.9006321607919896	7173112.494898888
0.9008573188321878	7186841.080573991
0.9010825331618959	7200573.098395507
0.9013078037951865	7214308.549221479
0.9015331307461353	7228047.433910151
0.9017585140288219	7246737.56359394
0.9019839536573292	7265858.533533753
0.9022094496457435	7284984.283716037
0.9024350020081551	7304114.815335889
0.9026606107586572	7323250.129588639
0.902886275911347	7342966.759437516
0.9031119974803249	7362966.246886148
0.9033377754796951	7382970.734206643
0.903563609923565	7402980.222648959
0.903789500826046	7422994.713463398
0.9040154482012526	7435107.313048069
0.904241452063303	7436980.24888944
0.9044675124263188	7438853.652964769
0.9046936293044254	7440727.525391118
0.9049198027117517	7442601.866285574
0.9051460326624297	7447630.681476339
0.9053723191705955	7466091.243923874
0.9055986622503881	7484556.421512004
0.9058250619159507	7503026.215394531
0.9060515181814298	7521500.6267255405
0.9062780310609752	7539979.65665937
0.9065046005687405	7537167.776123717
0.906731226718883	7533167.177947178
0.9069579095255627	7529165.579621099
0.907184649002944	7525162.980895438
0.907411445165195	7521159.381520092
0.9076382980264862	7535760.25344362
0.907865207600993	7558091.593730311
0.9080921739028933	7580428.516852068
0.9083191969463691	7602771.024204601
0.9085462767456058	7625119.117183982
0.9087734133147922	7642440.767595588
0.9090006066681211	7653954.691869009
0.909227856819788	7665471.494623483
0.9094551637839932	7676991.176578661
0.9096825275749393	7688513.738454325
0.9099099482068329	7700328.056395691
0.9101374256938848	7713171.996186869
0.9103649600503083	7726019.146962989
0.9105925512903209	7738869.509526801
0.9108201994281437	7751723.084681267
0.9110479044780008	7764579.873229506
0.9112756664541204	7778500.598387146
0.911503485370734	7792449.083475089
0.9117313612420768	7806401.055684303
0.9119592940823873	7820356.515886566
0.912187283905908	7834315.464953883
0.9124153307268845	7829863.684778714
0.9126434345595664	7818727.506508846
0.9128715954182063	7807588.544194421
0.9130998133170609	7796446.797139411
0.9133280882703902	7785302.264647638
0.913556420292458	7786137.143818995
0.9137848093975312	7799329.649219332
0.9140132555998806	7812525.452746018
0.9142417589137806	7825724.555223585
0.9144703193535092	7838926.957476781
0.9146989369333476	7849785.751912857
0.9149276116675811	7853568.912067481
0.9151563435704979	7857353.018012141
0.9153851326563907	7861138.06998329
