#wavelength	surface flux
0.676892	290951.9628806648
0.678297	299089.46148649143
0.679702	306837.15688365116
0.681109	314495.2176028236
0.682517	322349.5922848534
0.683926	330141.2276772032
0.685337	337762.49299747223
0.686749	345411.76092509984
0.688164	352993.008362909
0.689581	360081.6890345031
0.691	364684.2293116867
0.692422	367058.1587115505
0.693847	377633.7949996991
0.695274	389700.14973860624
0.696705	398812.1278753008
0.698139	406071.42510911595
0.699576	413631.012191859
0.701017	420681.34231003624
0.702461	426350.4774231566
0.70391	435892.42938783055
0.705362	445318.55129610316
0.706819	452023.60202632967
0.70828	458887.55138086155
0.709745	465493.5858132799
0.711216	473947.6789655363
0.71269	480716.7528165114
0.71417	486393.4549572449
0.715655	487535.3096457896
0.717145	484871.80650238483
0.71864	495978.583555786
0.72014	502465.8750229237
0.721647	506242.903515624
0.723158	508593.1533723555
0.724676	508322.5290821292
0.726199	508957.3770439405
0.727728	513136.79885790066
0.729264	508661.1649887536
0.730805	509718.0967943493
0.732353	514490.23382058303
0.733907	511294.35996420664
0.735468	508214.7298091138
0.737035	501953.368734693
0.738609	496494.5189460235
0.74019	486928.24728498916
0.741777	470176.6295290684
0.743372	453245.4289635978
0.744973	434306.420376637
0.746582	409373.3052219798
0.748197	380351.1671515222
0.74982	346884.49760698806
0.751451	308710.9732878462
0.753088	266312.78049124544
0.754734	220929.67386969304
0.756386	173954.5554399621
0.758047	127374.63775335623
0.759715	84821.27405005328
0.76139	48053.478105747905
0.763074	21050.528724337993
0.764765	6057.686459511933
0.766464	1102.5371000491555
0.768172	1450.930029147401
0.769887	1644.6884095127666
0.77161	11552.51354054939
0.773341	38579.883758692624
0.775081	82534.70488440953
0.776829	137178.30246654886
0.778585	176105.85644698289
0.780349	211152.38338192162
0.782121	329660.15617913986
0.783902	427442.7795136883
0.785691	508114.15023897105
0.787489	584536.0201398195
0.789295	655223.0761615307
0.79111	711083.2485379135
0.792933	585127.1894257072
0.794764	305729.1155599952
0.796604	767833.9727687744
0.798453	966591.5243395983
0.80031	1034722.5185620087
0.802176	1091357.5088569983
0.804051	1144226.6574661909
0.805934	1194531.077999742
0.807826	1238608.442582937
0.809727	1262015.5620679255
0.811636	1286287.7287110507
0.813554	1323894.38599968
0.81548	1406544.2162995432
0.817416	1451056.0041789254
0.81936	1490659.33333414
0.821313	1540969.8338419993
0.823274	1562293.2297758847
0.825244	1633636.0608976875
0.827223	1674480.7499148026
0.829211	1696921.3115192303
0.831208	1729604.803404791
0.833213	1785670.725279326
0.835227	1820464.881117001
0.837249	1838237.776614527
0.83928	1884733.7815677633
0.841321	1964776.1631594107
0.843369	2029813.8075848331
0.845427	2074792.5956814757
0.847493	2125374.5184392435
0.849567	2147427.061671632
0.851651	2113408.8310654545
0.853742	2211234.442355938
0.855843	2317390.9323357935
0.857952	2371356.1667199535
0.86007	2413075.7746502925
0.862196	2384681.7237224127
0.864331	2441640.747216793
0.866474	2509506.6335368175
0.868626	2569306.1441738214
0.870786	2622502.4306329684
0.872955	2675279.812837636
0.875132	2713889.267538202
0.877317	2768354.9834007053
0.879511	2776832.313205496
0.881713	2816265.478151028
0.883923	2868641.309432492
0.886142	2900887.992850845
0.888369	2922498.9672569702
0.890604	2927476.896760603
0.892847	2807337.2730323905
0.895099	2847611.689457275
0.897358	3010066.5636258866
0.899626	3173253.533507804
0.901901	3271942.845225465
0.904185	3378363.605384099
0.906476	3416620.591545657
0.908776	3474733.725175273
0.911083	3573026.6253440147
0.913398	3562499.951438177
0.915721	3558932.593532378
0.918051	3520236.5684103123
0.92039	3738759.1039553853
0.922736	3770390.708827483
0.925089	3510076.3133541504
0.927451	2917918.634515405
0.929819	2297687.273455615
0.932195	2772541.1589205074
0.934579	2718062.955755901
0.93697	2968135.9985274784
0.939369	3408026.233759736
0.941774	3473239.800759099
0.944187	2972194.6309648384
0.946607	2810623.496823976
0.949035	3308097.4973964132
0.951469	3207949.421536087
0.953911	3359073.2372454605
0.956359	3957703.8828390385
0.958814	3302894.3123696814
0.961277	3027673.9107434177
0.963746	3140120.66026006
0.966222	3254055.0604105373
0.968705	3228259.859011518
0.971194	4091955.4813340893
0.97369	4510930.889300846
0.976193	4350720.134539299
0.978702	4641332.981562865
0.981217	4725273.9922035495
0.983739	4871145.631586015
0.986268	4962785.117697946
0.988802	5202426.556309857
0.991343	5440690.261704902
0.99389	5503636.193810492
0.996444	5683533.051245676
0.999003	5780956.791989408
1.00157	5830737.295145902
1.00414	5941280.653939004
1.00672	6110187.0274646785
1.0093	6240878.935507791
1.01189	6377850.363021598
1.01448	6559511.068832883
1.01708	6663075.2415043535
1.01969	6764457.43718696
1.0223	6823432.2546069445
1.02492	6785170.923709329
1.02754	6915378.7368424665
1.03017	6852591.895108086
1.0328	7214071.860073935
1.03544	7350491.55450973
1.03808	7452877.443432535
1.04073	7555981.002380809
1.04339	7652099.043647444
1.04604	7744122.941789394
1.04871	7788168.762695774
1.05138	7862405.9072825955
1.05405	8006994.417989459
1.05673	8129772.285700746
1.05941	8229857.6437551575
1.0621	8316761.859905485
1.06479	8406340.72327746
1.06749	8496505.597682161
1.07019	8522512.047322974
1.07289	8642011.535883667
1.0756	8774073.831747597
1.07832	8840293.590054924
1.08104	8956043.235489164
1.08376	9065355.033998897
1.08649	9100216.541744884
1.08922	8991534.452332826
1.09195	8844829.809380725
1.09469	8751193.289726099
1.09743	8822792.678148853
1.10018	7104914.708276776
1.10293	5579798.730963732
1.10568	4675780.991513021
1.10844	6621750.875414927
1.1112	5879746.92356121
1.11396	4836276.332899833
1.11673	4803051.733463337
1.1195	4854449.661968772
1.12228	3896729.188718725
1.12505	5454397.554073274
1.12783	5462939.40130827
1.13062	5530849.093394148
1.13341	3165818.295754456
1.1362	4906966.85380643
1.13899	6848758.777911248
1.14178	6290037.28929677
1.14458	7125329.068933814
1.14738	7990838.259350493
1.15019	5581709.660765305
1.153	2746506.4084244436
1.1558	3472981.76070469
1.15862	3699342.0911558867
1.16143	3876815.666894471
1.16425	5384891.13084479
1.16707	7017848.713922248
1.16989	6023704.037044193
1.17271	6641039.509972899
1.17554	8215534.755169662
1.17837	9353862.300853938
1.1812	9817235.859728832
1.18403	10905731.580768077
1.18686	10810205.425129551
1.1897	10799374.279956203
1.19253	11812891.426796002
1.19537	12292964.966306183
1.19822	12521471.999926642
1.20106	12869006.84588519
1.2039	12705686.556632403
1.20675	13031837.31009535
1.2096	13179440.441465244
1.21245	13192048.706328616
1.2153	13659915.810745668
1.21815	13907457.77267347
1.221	14089666.163079813
1.22385	14321366.861159971
1.22671	14563294.451179015
1.22957	14709018.47148762
1.23242	14751002.621018136
1.23528	14937930.6557972
1.23814	15150041.924722025
1.241	15279911.919525119
1.24387	15412366.966522725
1.24673	15548154.200516474
1.24959	15573580.627656592
1.25245	15416555.39339232
1.25532	15878043.547973525
1.25818	16103720.729068948
1.26105	16079001.427821077
1.26392	16115441.842054682
1.26678	16234236.363728717
1.26965	16276917.815100597
1.27252	16234313.216251181
1.27538	16518325.94885184
1.27825	16548538.49901205
1.28112	16338433.110998191
1.28399	16604045.977892198
1.28686	16467638.310649872
1.28973	15990150.590780525
1.2926	15749851.078870883
1.29546	16188932.535702892
1.29833	16471714.17756186
1.3012	15754571.353996448
1.30407	15671463.970839206
1.30694	15515824.862391707
1.30981	16016188.590029072
1.31267	15506910.670066273
1.31554	16343787.572370075
1.31841	17141157.3682344
1.32128	15906272.24617044
1.32414	14066225.107592022
1.32701	13482839.303450124
1.32987	11195314.55460215
1.33274	6344740.905732511
1.3356	4013716.248093237
1.33847	1429788.4622692224
1.34133	490324.0335090831
1.34419	1202969.6356449965
1.34705	1653444.7273723714
1.34991	870028.927182797
1.35277	387854.53528134385
1.35563	539258.359231974
1.35849	603369.1222699104
1.36135	280038.41931114165
1.3642	639446.847444199
1.36706	673803.5848047283
1.36991	535645.4271454827
1.37277	1547453.629766089
1.37562	3015093.4470684435
1.37847	3479304.948573466
1.38132	1338172.536241475
1.38417	170738.98128693155
1.38701	372139.52255696413
1.38986	290969.5988463883
1.39271	367067.1285843734
1.39555	578515.9939681276
1.39839	411636.14423866273
1.40123	843099.5857732078
1.40407	1610491.9822240537
1.40691	2218914.636589782
1.40974	1119735.6924057466
1.41258	328187.62227360066
1.41541	831939.1299292668
1.41824	1070967.072930171
1.42107	597383.4646402968
1.4239	402792.3327830157
1.42673	925514.0975595579
1.42955	1520663.1855660782
1.43237	992273.6349216998
1.43519	1721827.7647320325
1.43801	1188587.449988874
1.44083	1497826.484751327
1.44365	2389548.3861844228
1.44646	2599696.7464974294
1.44927	4834070.905333164
1.45208	6104818.34147486
1.45489	4725728.506767116
1.45769	5907191.41388914
1.4605	6686504.611863357
1.4633	6946046.393905006
1.4661	7470002.025803208
1.4689	5377843.180226574
1.47169	5698882.306532435
1.47449	5507516.240996044
1.47728	5544729.1240415145
1.48007	5597518.658198166
1.48286	7903475.660594596
1.48564	9774099.757957086
1.48842	9680434.493435811
1.4912	9904414.522521865
1.49398	9506612.988407504
1.49676	8385411.631497879
1.49953	10289086.847123628
1.5023	12320619.462901395
1.50507	12199772.841773283
1.50784	11339220.757463286
1.51061	11795643.321356468
1.51337	12653975.530299697
1.51613	13870655.779888278
1.51888	15298093.821439315
1.52164	17487331.439297322
1.52439	18706520.152582828
1.52714	17708790.83173945
1.52989	17336504.399339803
1.53263	18409480.14775055
1.53538	19632249.118937913
1.53812	19844745.032375053
1.54086	19800636.372503106
1.54359	20060383.7452988
1.54632	21135453.09267638
1.54905	21247677.863112766
1.55178	22099458.451123495
1.5545	22023687.23522675
1.55723	21433160.840799715
1.55995	21884764.597497184
1.56266	22610706.14072599
1.56538	23681256.630813174
1.56809	24230202.5821863
1.5708	24108050.99676309
1.57351	23394840.973093227
1.57621	22894419.89448089
1.57891	21756657.611585468
1.58161	22882430.220280282
1.5843	24966855.681947198
1.587	25409598.643482048
1.58969	25287605.895749383
1.59238	25048838.59725614
1.59506	24502105.94953718
1.59774	23939151.843343288
1.60042	23699878.936010454
1.6031	23661421.556357328
1.60577	23772723.423774995
1.60844	23809457.979422875
1.61111	23511654.267750848
1.61378	22813818.911007393
1.61644	22304812.684669636
1.6191	21577492.673742674
1.62176	20572170.784165263
1.62441	19773156.405028753
1.62707	18988026.85874287
1.62971	17393337.229888584
1.63236	16787484.491572395
1.635	19607758.91894841
1.63764	23488382.029973514
1.64028	24726870.583469976
1.64292	24414292.020567045
1.64555	22668385.14510817
1.64818	19529401.448988143
1.65081	19273344.07068959
1.65343	21745922.465731356
1.65605	22623821.068984076
1.65867	22865176.8012789
1.66128	22214553.06983181
1.6639	18966933.94915824
1.66651	12631868.498734022
1.66911	11529382.561130688
1.67172	16802350.28222607
1.67432	20658516.169304654
1.67692	20526468.59391234
1.67951	18889799.323267486
1.68211	19042617.897575226
1.6847	19250330.135108568
1.68728	17988520.224313214
1.68987	17276486.495912705
1.69245	15982011.55077539
1.69503	12944794.629007813
1.6976	11308151.926514717
1.70018	13057841.204774676
1.70275	13016615.567042217
1.70531	13567958.31442414
1.70788	15522975.949074887
1.71044	15289618.81283511
1.713	16289188.948643854
1.71556	17343525.084978897
1.71811	18018513.375852775
1.72066	19248999.655688073
1.72321	18923506.080491368
1.72575	18266256.355172332
1.7283	17717778.019748036
1.73084	16715641.955022521
1.73337	15504808.301095916
1.73591	14678481.065712964
1.73844	14513864.772182852
1.74097	14681112.91431662
1.74349	13777522.242369087
1.74602	12498600.848618329
1.74854	11890867.550259773
1.75105	10708926.587633293
1.75357	8994321.52727661
1.75608	10494259.13997803
1.75859	13943350.251118181
1.7611	15262175.042548016
1.7636	14591619.009315316
1.7661	11481327.429829773
1.7686	8999631.31121101
1.7711	6917551.018014876
1.77359	4919152.7950676745
1.77608	3016885.745116271
1.77857	2165216.619489886
1.78105	2639835.7375625055
1.78354	3165480.102292283
1.78602	2489587.7440478057
1.78849	1853319.9480686644
1.79097	2416153.3243406853
1.79344	3400396.186764485
1.79591	4600999.168073929
1.79837	5990610.3508587275
1.80084	3810215.0032371962
1.8033	1653901.6064552623
1.80576	778996.6690478391
1.80821	530896.7159277726
1.81067	1562983.3205724484
1.81312	2430348.73623779
1.81557	1329258.1007120365
1.81801	698106.469972796
1.82046	1645879.7225730512
1.8229	2494227.5672947196
1.82533	1683409.6946014862
1.82777	582063.1464239495
1.8302	385508.77182029746
1.83263	742944.1936013938
1.83506	1266837.0253377757
1.83749	2036453.4476902927
1.83991	2416619.905894628
1.84233	1915134.9680355045
1.84475	1750402.501797411
1.84716	2033778.6396719988
1.84957	2597207.104808943
1.85198	2552801.5938593615
1.85439	1323903.7730448463
1.8568	912330.0729833893
1.8592	1181658.3717297544
1.8616	909539.7312918555
1.864	480163.300370767
1.86639	427895.8764739172
1.86878	672377.0526460501
1.87118	1198297.9968649773
1.87356	1863305.4728649114
1.87595	2300734.206657598
1.87833	3568208.2992555145
1.88071	5631426.0625013625
1.88309	5446964.786057003
1.88547	4147650.480164691
1.88784	3761742.3782336903
1.89021	3476907.2553144447
1.89258	5613727.451866634
1.89494	7293494.305209754
1.89731	4711456.121398092
1.89967	1777400.6644794745
1.90203	571915.9575220183
1.90439	518331.5344239471
1.90674	882613.4653632455
1.90909	966716.4126168551
1.91144	622469.2218472507
1.91379	291460.16227593145
1.91613	265632.817251165
1.91848	477180.4038383708
1.92082	728748.4742194321
1.92315	715965.0048266423
1.92549	524221.8859547392
1.92782	601854.2561674594
1.93015	890494.9199143876
1.93248	1139109.3033799003
1.93481	1185476.2968608998
1.93713	1037242.9819920673
1.93945	1064851.705004191
1.94177	1392558.2303815726
1.94409	1638877.7975712253
1.94641	1698823.9193269946
1.94872	2096044.5419299267
1.95103	2576904.200456007
1.95334	1724644.4334124257
1.95564	1187004.0624711663
1.95795	1391174.660739199
1.96025	1459509.6958915165
1.96255	1494525.2205058238
1.96484	1798821.9287666697
1.96714	2601705.3095334256
1.96943	3690853.232415298
1.97172	4318192.487401003
1.97401	3931275.4542298038
1.97629	4205699.628674113
1.97858	5293713.146859953
1.98086	5966402.535571196
1.98314	6755871.064302795
1.98541	7282063.554734654
1.98769	6739280.915575882
1.98996	5284287.698224385
1.99223	5025282.857364562
1.9945	6003872.800902253
1.99677	5695299.04093661
1.99903	5596249.219868039
2.00129	6874430.344474431
2.00355	8688978.94742424
2.00581	9734890.906990362
2.00806	10124550.61460126
2.01031	12029857.007740442
2.01256	12921487.147124838
2.01481	11690798.707282184
2.01706	10218465.997455494
2.0193	10205296.5329519
2.02154	11935862.06936772
2.02378	13797583.894875884
2.02602	14261115.46097142
2.02825	14918960.196239723
2.03049	15780568.72966344
2.03272	16699939.082325598
2.03494	17521589.19476003
2.03717	18167703.628028676
2.03939	18800053.048375737
2.04162	20041218.13679144
2.04384	21167270.473727044
2.04605	22381247.67033941
2.04827	23480911.90884713
2.05048	23501325.935899775
2.05269	21913780.159448117
2.0549	21471082.1088204
2.05711	22092693.887999795
2.05931	23140501.352220327
2.06151	23996741.78358081
2.06371	24693500.817867093
2.06591	25179147.58734871
2.06811	25506440.7301573
2.0703	25616225.986438878
2.07249	25454301.255487304
2.07468	24974770.745640088
2.07686	24879020.19916172
2.07905	25128094.375760775
2.08123	25408988.23976541
2.08341	25575011.202951133
2.08559	25666704.091138884
2.08776	25791010.099967923
2.08994	25673010.171858225
2.09211	25348589.100065213
2.09428	24989072.67412076
2.09645	25010776.209595095
2.09861	24962265.386502746
2.10077	24803966.477992937
2.10293	24541215.19430775
2.10509	24197943.904865924
2.10725	23861436.266509883
2.1094	24116169.787645433
2.11155	24367487.579588372
2.1137	24317770.016464658
2.11585	23688916.0122588
2.11799	23221080.85858632
2.12013	23027470.80410484
2.12227	23057159.87048889
2.12441	23236646.83104501
2.12655	23344863.573380228
2.12868	23305768.6350729
2.13081	23285311.205463614
2.13294	23264448.58926624
2.13507	22856070.26531779
2.13719	22109448.786548488
2.13931	21478011.676242925
2.14143	20942858.500032842
2.14355	20121245.46018318
2.14567	19654799.797158655
2.14778	19319469.762017198
2.14989	18956545.815061923
2.152	18253715.80628826
2.1541	18449634.740820225
2.15621	18717927.087418314
2.15831	18714592.237276267
2.16041	17766531.9356599
2.16251	17283770.07312401
2.1646	16971386.376260813
2.1667	16795417.387659036
2.16879	16951890.73197093
2.17087	17103270.05990998
2.17296	17154528.936025437
2.17504	17052387.381486624
2.17713	16723475.262512019
2.1792	16204588.59168233
2.18128	15553366.49570382
2.18336	14817078.766330842
2.18543	14053562.209266445
2.1875	13270469.324598556
2.18957	12379079.834760621
2.19163	11000168.073400352
2.1937	9054717.201674553
2.19576	7084605.138499918
2.19782	5339210.980341132
2.19987	4456024.918469043
2.20193	3962783.7346185506
2.20398	3792595.3583903885
2.20603	3836041.3526355713
2.20808	4111519.992262982
2.21012	4511525.661754716
2.21217	5016108.947285411
2.21421	5290758.953947657
2.21625	5276186.563990688
2.21828	5006356.470727331
2.22032	4858896.297985911
2.22235	4744524.57035201
2.22438	4557523.781781004
2.22641	4045159.0121442927
2.22843	3485891.108929497
2.23046	3006467.1606742293
2.23248	2720732.9656368215
2.2345	2635802.924335236
2.23651	2572483.5812804596
2.23853	2504679.7050440097
2.24054	2251176.2883666055
2.24255	1962434.1468513855
2.24456	1665725.7151353054
2.24657	1710396.3515419809
2.24857	1926339.7630901283
2.25057	2232964.2880473225
2.25257	2348549.693699677
2.25457	2449841.6749126636
2.25656	2543401.975451166
2.25856	2640477.7491513835
2.26055	2504138.38481961
2.26254	2247300.18529369
2.26453	1938779.7305910978
2.26651	1757375.1361635043
2.2685	1683231.4062299775
2.27048	1818852.0973164767
2.27246	2021194.235123342
2.27443	2210941.4990652236
2.27641	2239793.8955544606
2.27838	2149674.3873713375
2.28036	2011691.7717577247
2.28233	1908895.9084710458
2.28429	1820146.299958739
2.28626	1734530.788381142
2.28823	1627046.5823864564
2.29019	1577127.2833875136
2.29215	1571244.795802512
2.29411	1654513.9106641116
2.29607	1738602.157952128
2.29802	1823035.261580843
2.29998	1926624.715991084
2.30193	2132519.726145677
2.30388	2455939.391578951
2.30583	3064374.1741492203
2.30778	3672668.436266345
2.30972	4234305.743480604
2.31167	4192718.400401931
2.31361	3792267.4704855033
2.31555	2747113.015592049
2.31749	1927232.1568971775
2.31943	1290351.0912473982
2.32137	1235231.4075452841
2.32331	1222730.0468811684
2.32524	1244055.0069852904
2.32718	1219794.7528519474
2.32911	1208866.1932845907
2.33104	1218025.6973250362
2.33297	1210805.780397315
2.3349	1196327.56058264
2.33683	1170182.4335644813
2.33876	1141373.5154646195
2.34068	1108719.3557989807
2.34261	1036430.3782718575
2.34453	969347.816719034
2.34646	907420.498142016
2.34838	952858.049830161
2.3503	1057674.3548148249
2.35223	1282349.8854686362
2.35415	1504279.5752563097
2.35607	1721219.534067582
2.35799	1874900.539114477
2.35991	2023337.7122192814
2.36183	2165446.122635327
2.36375	2091021.163130383
2.36566	1904873.7006321303
2.36758	1467878.3400228936
2.3695	1104358.9364409312
2.37142	787939.5053124113
2.37334	816511.8203676039
2.37526	871639.2192667932
2.37718	968014.6920579406
2.3791	1060656.3134010986
2.38101	1160337.373529925
2.38293	1324862.0187550662
2.38485	1484627.2328984297
2.38677	1639532.8174108884
2.3887	1629600.703725123
2.39062	1593556.088094782
2.39254	1552445.103684707
2.39446	1572975.669464229
2.39639	1633332.780613695
2.39831	1708789.8195105228
2.40024	1742746.298825538
2.40216	1697533.4344149567
2.40409	1727036.6682026684
2.40602	1806450.1479973227
2.40795	2114571.11736641
2.40989	2387260.013523294
2.41182	2613237.1771531412
2.41376	2724615.595390482
2.4157	2839166.54749269
2.41764	3083411.0097491825
2.41958	3240885.8387440164
2.42152	3327809.6575167733
2.42347	3022717.142630202
