#wavelength	surface flux
0.8	1510702.4303175942
0.8002000000000001	1519119.587496036
0.8004000500000003	1527961.4666875992
0.8006001500125003	1536809.8252040765
0.8008003000500035	1545660.3958101836
0.8010005001250161	1554513.1790589462
0.8012007502500472	1563368.1755035082
0.8014010504376099	1570931.096989025
0.8016014007002193	1578062.362029642
0.8018018010503944	1585195.4098865192
0.8020022515006572	1592330.2410053639
0.8022027520635323	1599466.855831982
0.8024033027515483	1606632.305471701
0.8026039035772362	1613826.0550657895
0.8028045545531306	1621021.603097277
0.8030052556917691	1628218.9500157756
0.803206007005692	1635418.0962709975
0.8034068085074435	1642788.8076900844
0.8036076602095705	1650637.2390415561
0.8038085621246229	1658487.6325008594
0.8040095142651542	1666339.9885585324
0.8042105166437206	1674194.307705217
0.8044115692728815	1682018.5776367434
0.8046126721651998	1688467.8769227522
0.8048138253332411	1694918.7885335775
0.8050150287895745	1701371.3128723116
0.805216282546772	1707825.4503421285
0.8054175866174087	1714281.2013463094
0.8056189410140631	1720802.8519528317
0.8058203457493168	1727344.3299845634
0.8060218008357541	1733887.4433857948
0.8062233062859632	1740432.1925653794
0.8064248621125346	1746978.5779322546
0.806626468328063	1754136.8248554575
0.8068281249451449	1761820.9707595266
0.8070298319763813	1769507.0377000812
0.8072315894343755	1777195.0261573652
0.8074333973317341	1784884.9366117662
0.8076352556810671	1791287.3859390232
0.8078371644949874	1794587.6742387204
0.8080391237861113	1797888.7876104934
0.8082411335670578	1801190.7262606071
0.8084431938504498	1804493.4903953867
0.8086453046489125	1807748.6251219236
0.8088474659750746	1810102.4264951304
0.8090496778415686	1812456.8163186838
0.809251940261029	1814811.7947396915
0.8094542532460944	1817167.3619053063
0.8096566168094059	1819523.5179627098
0.8098590309636085	1822804.813293615
0.8100614957213493	1826303.327479945
0.8102640110952797	1829802.716294822
0.8104665770980536	1833302.9799569042
0.8106691937423283	1836804.1186849033
0.8108718610407639	1841047.8438010067
0.8110745790060241	1845859.777399471
0.8112773476507757	1850672.913981339
0.8114801669876885	1855487.2538473515
0.8116830370294355	1860302.7972983276
0.8118859577886929	1864554.9025474023
0.8120889292781401	1867635.2845159175
0.8122919515104597	1870716.4365799245
0.8124950244983374	1873798.3589319475
0.8126981482544621	1876881.0517645583
0.8129013227915257	1880084.9136196016
0.8131045481222237	1884668.155945795
0.8133078242592543	1889252.5440825701
0.8135111512153191	1893838.0783163784
0.813714529003123	1898424.7589337456
0.8139179576353739	1903012.586221268
0.8141214371247829	1919240.9177961592
0.8143249674840641	1937730.3736122237
0.814528548725935	1956224.4517922308
0.8147321808631167	1974723.1534918083
0.8149358639083326	1993226.4798668048
0.8151395978743097	2005423.6797057905
0.8153433827737784	2013360.119768867
0.8155472186194719	2021298.5439419567
0.8157511054241268	2029238.952721088
0.815955043200483	2037181.3466024196
0.8161590319612831	2043943.3685406214
0.8163630717192736	2048540.5549127806
0.8165671624872033	2053138.890581528
0.8167713042778252	2057738.3758341968
0.8169754971038948	2062339.0109581812
0.8171797409781707	2066120.0465760184
0.8173840359134155	2063349.7286838752
0.8175883819223938	2060578.7182122618
0.8177927790178745	2057807.0149880291
0.8179972272126291	2055034.6188379896
0.8182017265194322	2052261.5295889156
0.8184062769510622	2058773.1672189918
0.8186108785203001	2066715.3214886743
0.8188155312399301	2074659.4612969134
0.8190202351227402	2082605.5871401136
0.819224990181521	2090553.6995147695
0.8194297964290664	2101992.9795255223
0.8196346538781738	2115538.216778618
0.8198395625416434	2129086.8403410213
0.8200445224322789	2142638.851059321
0.820249533562887	2156194.2497802963
0.8204545959462778	2167334.676193554
0.8206597095952644	2174585.600717752
0.8208648745226633	2181838.337973086
0.8210700907412941	2189092.8884127336
0.8212753582639793	2196349.252489983
0.8214806771035456	2201562.5470605483
0.8216860472728215	2194178.170618563
0.8218914687846397	2186791.948082466
0.822096941651836	2179403.8789907317
0.822302465887249	2172013.9628817285
0.8225080415037209	2164622.1992936945
0.8227136685140968	2173104.360396706
0.8229193469312254	2183390.874035755
0.8231250767679583	2193679.959303217
0.8233308580371503	2203971.6168419905
0.8235366907516598	2214265.847295156
0.8237425749243477	2225572.8502182923
0.8239485105680789	2237418.103074433
0.824154497695721	2249266.3172437795
0.824360536320145	2261117.4934666706
0.8245666264542252	2272971.6324836174
0.8247727681108388	2283511.7194267125
0.8249789613028664	2292168.227160879
0.8251852060431922	2300826.899021986
0.825391502344703	2309487.7355510546
0.8255978502202894	2318150.7372892634
0.8258042496828445	2326260.047766137
0.8260107007452654	2331671.8268473833
0.8262172034204517	2337084.9588733944
0.8264237577213068	2342499.4441824136
0.8266303636607373	2347915.283112762
0.8268370212516525	2353332.476002841
0.8270437305069654	2353191.0661072014
0.8272504914395923	2352615.146347955
0.8274573040624523	2352039.0826087687
0.8276641683884679	2351462.874853648
0.8278710844305652	2350886.523046588
0.8280780522016729	2355373.132291033
0.8282850717147234	2362175.1991709946
0.8284921429826521	2368978.9665676695
0.8286992660183978	2375784.4349061986
0.8289064408349024	2382591.604611808
0.8291136674451112	2387186.863178131
0.8293209458619727	2388992.015574913
0.8295282760984382	2390797.6192597914
0.829735658167463	2392603.674345593
0.8299430920820048	2394410.180945164
0.8301505778550254	2396472.7803899967
0.8303581154994891	2399556.2344495757
0.8305657050283641	2402640.4593726727
0.8307733464546212	2405725.455351998
0.8309810397912352	2408811.222580323
0.8311887850511829	2411897.761250449
0.8313965822474458	2425483.999866353
0.8316044313930077	2439560.9458415173
0.8318123325008561	2453641.411053188
0.8320202855839813	2467725.396381155
0.8322282906553774	2481812.9027054557
0.8324363477280413	2488249.066722302
0.8326444568149735	2491605.018464983
0.8328526179291771	2494961.8091955953
0.8330608310836596	2498319.4391238955
0.8332690962914304	2501677.908459673
0.8334774135655034	2504362.0854895297
0.833685782918895	2506292.7890345254
0.8338942043646247	2508223.975255406
0.834102677915716	2510155.644272844
0.834311203585195	2512087.796207534
0.8345197813860912	2516508.605517784
0.8347284113314379	2529305.9475348643
0.8349370934342709	2542106.4888874423
0.8351458277076294	2554910.230375342
0.8353546141645565	2567717.172798636
0.8355634528180977	2580527.3169575296
0.8357723436813022	2570541.2270177477
0.8359812867672226	2560271.125606284
0.8361902820889144	2549998.4566694726
0.8363993296594368	2539723.219565424
0.8366084294918518	2529445.413652096
0.8368175815992247	2535846.5545454435
0.8370267859946247	2547994.581261724
0.8372360426911234	2560145.6449846793
0.8374453517017962	2572299.7464735648
0.8376547130397217	2584456.8864878207
0.8378641267179816	2592768.4196879915
0.8380735927496613	2597263.1733823167
0.8382831111478488	2601759.0507650627
0.8384926819256358	2606256.052117152
0.8387023050961173	2610754.1777195833
0.8389119806723914	2615203.8353861794
0.8391217086675596	2619515.036059553
0.8393314890947265	2623827.3145330916
0.8395413219670003	2628140.671076249
0.8397512072974922	2632455.105958545
0.8399611450993165	2636976.4291480095
0.8401711353855914	2651719.3187410594
0.8403811781694378	2666465.8940565037
0.8405912734639802	2681216.1560157803
0.8408014212823464	2695970.105540554
0.8410116216376671	2710727.7435527067
0.8412218745430766	2723363.514234639
0.8414321800117124	2735383.988870378
0.8416425380567154	2747407.4686247827
0.8418529486912297	2759433.9542491282
0.8420634119284025	2771463.44649487
0.8422739277813847	2779342.356172798
0.8424844962633302	2783563.7616654504
0.842695117387396	2787786.2225094703
0.8429057911667428	2792009.738968701
0.8431165176145345	2796234.311307049
0.8433272967439382	2800470.380128259
0.8435381285681244	2804732.9748505005
0.8437490131002665	2808996.6352214217
0.8439599503535415	2813261.361507433
0.84417094034113	2817527.1539750188
0.8443819830762154	2821937.6254752367
0.8445930785719846	2829242.2873854805
0.8448042268416277	2836548.7754611983
0.8450154278983382	2843857.090158934
0.8452266817553128	2851167.2319353432
0.8454379884257517	2858479.2012471976
0.8456493479228583	2866195.364887538
0.845860760259839	2874010.3522183476
0.846072225449904	2881827.2932959897
0.8462837435062666	2889646.1886089034
0.8464953144421433	2897467.0386456493
0.8467069382707537	2903555.126907316
0.8469186150053215	2908292.5785754896
0.847130344659073	2913031.2146065817
0.8473421272452377	2917771.0352966767
0.8475539627770492	2922512.040941949
0.8477658512677435	2927800.2022500434
0.8479777927305605	2934248.9818725735
0.8481897871787432	2940699.3736900077
0.848401834625538	2947151.3781054
0.8486139350841944	2953604.995521892
0.8488260885679657	2959816.105407233
0.8490382950901076	2963053.020529448
0.8492505546638802	2966290.744880446
0.8494628673025462	2969529.27866253
0.8496752330193721	2972768.6220780644
0.8498876518276269	2976008.7753294483
0.8501001237405839	2964617.9287742153
0.8503126487715191	2950303.468286179
0.850525226933712	2935985.4291830286
0.8507378582404455	2921663.8105701027
0.8509505427050057	2907338.611552515
0.8511632803406821	2897892.93176813
0.8513760711607672	2891788.920251247
0.8515889151785576	2885683.382731475
0.8518018124073523	2879576.3188273283
0.8520147628604541	2873467.7281572097
0.8522277665511693	2878053.2640308924
0.8524408234928071	2902420.2649323614
0.8526539336986805	2926793.357584062
0.8528670971821053	2951172.5435089273
0.8530803139564007	2975557.824230245
0.8532935840348901	2999627.975788795
0.8535069074308987	3020991.231534816
0.8537202841577566	3042359.828094791
0.8539337142287962	3063733.7668039086
0.8541471976573534	3085113.0489976904
0.8543607344567677	3106497.6760120243
0.8545743246403821	3117632.265096684
0.8547879682215422	3127140.965622502
0.8550016652135977	3136652.04332345
0.8552154156299011	3146165.498793824
0.8554292194838088	3155681.3326280722
0.8556430767886797	3163339.533190498
0.855856987557877	3169870.298002681
0.8560709518047664	3176402.6955060638
0.8562849695427177	3182936.7261088244
0.8564990407851035	3189472.3902192377
0.8567131655452999	3195885.2066177083
0.8569273438366862	3202095.658918544
0.8571415756726455	3208307.663832457
0.8573558610665638	3214521.2217476
0.8575702000318304	3220736.333052215
0.8577845925818384	3227075.697760039
0.857999038729984	3234183.07437209
0.8582135384896665	3241292.2278282917
0.858428091874289	3248403.158572858
0.8586426988972576	3255515.867050109
0.8588573595719821	3262630.353704482
0.8590720739118751	3268190.0439754263
0.8592868419303532	3273567.5993248103
0.8595016636408359	3278946.4990630317
0.8597165390567462	3284326.7435261854
0.8599314681915105	3289708.333050457
0.8601464510585584	3293611.9817035524
0.860361487671323	3296731.4114438565
0.8605765780432408	3299851.621041595
0.8607917221877518	3302972.610691735
0.8610069201182988	3306094.3805892873
0.8612221718483286	3297845.3610254936
0.8614374773912907	3273200.622274681
0.8616528367606385	3248549.7223391873
0.8618682499698288	3223892.6596786943
0.8620837170323213	3199229.43275254
0.8622992379615795	3178869.108602485
0.8625148127710699	3179827.623903591
0.8627304414742627	3180786.3788335226
0.8629461240846313	3181745.3734521866
0.8631618606156526	3182704.607819505
0.8633776510808066	3183664.0819954155
0.8635934954935769	3216900.5568613005
0.8638093938674504	3252791.1253073392
0.8640253462159173	3288690.6663954887
0.8642413525524714	3324599.1823689095
0.8644574128906095	3360516.6754713156
0.8646735272438323	3366221.963202122
0.8648896956256433	3357874.988959216
0.8651059180495498	3349525.927972749
0.8653221945290621	3341174.7797210426
0.8655385250776946	3332821.5436822623
0.8657549097089641	3335689.576674536
0.8659713484363913	3352926.691249018
0.8661878412735006	3370168.115102152
0.866404388233819	3387413.8493112465
0.8666209893308775	3404663.894953886
0.8668376445782103	3419524.0280223633
0.8670543539893549	3424615.828144325
0.8672711175778525	3429708.9012163207
0.8674879353572469	3434803.247556579
0.8677048073410862	3439898.867483424
0.8679217335429217	3444995.761315254
0.8681387139763074	3453634.0222557443
0.8683557486548015	3462450.3055568268
0.8685728375919655	3471268.792928745
0.8687899808013633	3480089.4849224878
0.8690071782965637	3488912.38208924
0.869224430091138	3494727.993626138
0.8694417361986609	3499320.5008383477
0.8696590966327107	3503914.1561773587
0.869876511406869	3508508.9599302053
0.8700939805347206	3513104.912383987
0.8703115040298544	3518442.1430912823
0.870529081905862	3524626.889968031
0.8707467141763385	3530813.183031497
0.8709644008548827	3537001.022668228
0.8711821419550964	3543190.409264865
0.8713999374905854	3549794.9036910073
0.871617787474958	3557828.389956438
0.8718356919218269	3565863.884593442
0.8720536508448075	3573901.3881041063
0.8722716642575187	3581940.9009906435
0.8724897321735832	3589982.423755406
0.8727078546066265	3597309.252932972
0.8729260315702784	3604627.010399424
0.873144263078171	3611946.5973052345
0.8733625491439405	3619268.0141077726
0.8735808897812266	3626591.261264514
0.8737992850036719	3629854.492378233
0.874017734824923	3631679.8999317787
0.8742362392586293	3633505.763837212
0.874454798318444	3635332.0842086216
0.8746734120180236	3637158.861160124
0.8748920803710283	3640573.901170057
0.875110803391121	3645585.3890391276
0.8753295810919689	3650598.1297801686
0.875548413487242	3655612.1237063953
0.8757673005906139	3660627.371131103
0.8759862424157616	3667915.578531079
0.8762052389763657	3681778.896974722
0.8764242902861098	3695645.681247966
0.8766433963586814	3709515.9322172822
0.8768625572077712	3723389.6507493453
0.8770817728470732	3737152.097652373
0.8773010432902849	3741959.3709025946
0.8775203685511077	3746767.8459711364
0.8777397486432454	3751577.523158439
0.8779591835804065	3756388.4027650445
0.8781786733763015	3761200.4850915447
0.8783982180446457	3757366.5736072315
0.878617817599157	3750959.324216198
0.8788374720535569	3744550.47301282
0.8790571814215703	3738140.0195966423
0.8792769457169257	3731727.9635671107
0.879496764953355	3726710.2063901266
0.8797166391445934	3722946.202236367
0.8799365683043796	3719181.2570815682
0.8801565524464557	3715415.3706904813
0.8803765915845676	3711648.542827793
0.8805966857324639	3714274.9341905056
0.880816834903897	3732962.1975222193
0.881037039112623	3751654.1326697734
0.8812572983724012	3770350.7408011127
0.8814776126969944	3789052.023084493
0.8816979821001687	3807318.2195264106
0.8819184065956938	3815236.930743226
0.8821388861973429	3823157.621637854
0.8823594209188923	3831080.2927051974
0.882580010774122	3839004.9444403043
0.8828006557768155	3846931.577338349
0.8830213559407598	3856178.1759540997
0.8832421112797452	3865758.572588951
0.8834629218075651	3875341.3643229553
0.8836837875380171	3884926.5517548956
0.8839047084849018	3894514.1354836957
0.884125684662023	3895185.663107364
0.8843467160831886	3888710.3575501125
0.8845678027622095	3882233.4331664722
0.8847889447129001	3875754.8895517346
0.8850101419490785	3869274.726301094
0.8852313944845657	3871003.8463132875
0.885452702333187	3890706.0588643914
0.8856740655087704	3910413.1969686295
0.8858954840251476	3930125.2618573885
0.8861169578961539	3949842.254762361
0.886338487135628	3967260.3461349066
0.886560071757412	3954024.7785736537
0.8867817117753515	3940785.9021205106
0.8870034072032955	3927543.7159482487
0.8872251580550963	3914298.219229459
0.8874469643446101	3901049.411136481
0.8876688260856963	3910771.850164657
0.8878907432922178	3925251.599290695
0.8881127159780409	3939734.968354005
0.8883347441570356	3954221.958259598
0.8885568278430749	3968712.5699126525
0.8887789670500358	3977743.4344388167
0.8890011617917983	3982900.986148499
0.8892234120822464	3988059.8272461114
0.8894457179352669	3993219.9580539935
0.8896680793647509	3998381.3788945815
0.8898904963845921	3999670.327833364
0.8901129690086883	3993568.358654362
0.8903354972509405	3987464.863983067
0.8905580811252535	3981359.8434381
0.8907807206455347	3975253.2966380045
0.8910034158256963	3968132.0595326256
0.8912261666796527	3951954.4350202437
0.8914489732213227	3935772.7661017296
0.8916718354646282	3919587.0517659695
0.8918947534234944	3903397.291001641
0.8921177271118502	3887203.4827971323
0.8923407565436284	3867784.0260801786
0.8925638417327644	3847834.183929788
0.8927869826931977	3827879.3543188525
0.8930101794388711	3807919.5360005163
0.8932334319837308	3787954.727727603
0.8934567403417267	3774807.9560553893
0.8936801045268123	3765897.606296664
0.8939035245529441	3756985.0289505054
0.8941270004340824	3748070.2234600065
0.894350532184191	3739153.189268138
0.8945741198172371	3756191.153626358
0.8947977633471915	3816280.343521591
0.8950214627880284	3876384.5557142943
0.8952452181537254	3936503.79396001
0.8954690294582639	3996638.062015324
0.8956928967156286	4049770.173381403
0.8959168199398075	4057376.502734424
0.8961407991447926	4064984.733669785
0.8963648343445789	4072594.8666628795
0.896588925553165	4080206.9021892184
0.8968130727845534	4087820.8407244394
0.8970372760527496	4087098.75087066
0.8972615353717629	4085333.237306481
0.8974858507556059	4083567.282363911
0.8977102222182949	4081800.8859326057
0.8979346497738496	4080034.0479021915
0.8981591334362931	4105834.0360713084
0.8983836732196523	4146716.3648527213
0.8986082691379572	4187608.9142163023
0.8988329212052417	4228511.686717224
0.8990576294355432	4269424.684911307
0.8992823938429022	4296684.971704486
0.8995072144413631	4303637.018602827
0.8997320912449734	4310590.80351289
0.8999570242677847	4317546.326869178
0.9001820135238516	4324503.589106306
0.9004070590272328	4331538.187905537
0.9006321607919896	4338970.851911797
0.9008573188321878	4346405.374084067
0.9010825331618959	4353841.754886875
0.9013078037951865	4361279.994784886
0.9015331307461353	4368720.094242867
0.9017585140288219	4379560.698765547
0.9019839536573292	4390696.747545916
0.9022094496457435	4401835.580338472
0.9024350020081551	4412977.197839238
0.9026606107586572	4424121.600744376
0.902886275911347	4441483.609661723
0.9031119974803249	4461845.93487012
0.9033377754796951	4482213.35065982
0.903563609923565	4502585.858303458
0.903789500826046	4522963.45907402
0.9040154482012526	4535836.429207872
0.904241452063303	4538984.424508362
0.9044675124263188	4542133.206807677
0.9046936293044254	4545282.776302566
0.9049198027117517	4548433.133189831
0.9051460326624297	4553103.762484231
0.9053723191705955	4564245.87927746
0.9055986622503881	4575390.7815998765
0.9058250619159507	4586538.470147874
0.9060515181814298	4597688.945618016
0.9062780310609752	4608842.208707017
0.9065046005687405	4594642.713718526
0.906731226718883	4579025.157887119
0.9069579095255627	4563403.697666774
0.907184649002944	4547778.332081372
0.907411445165195	4532149.060154558
0.9076382980264862	4547022.0982504105
0.907865207600993	4574568.030167185
0.9080921739028933	4602120.84856693
0.9083191969463691	4629680.555171271
0.9085462767456058	4657247.1517022755
0.9087734133147922	4675026.392193574
0.9090006066681211	4681497.600012416
0.909227856819788	4687970.425633203
0.9094551637839932	4694444.869460406
0.9096825275749393	4700920.931898562
0.9099099482068329	4708600.525333082
0.9101374256938848	4720553.6546862945
0.9103649600503083	4732509.77232184
0.9105925512903209	4744468.878986791
0.9108201994281437	4756430.975428421
0.9110479044780008	4768396.062394149
0.9112756664541204	4779777.04142667
0.911503485370734	4791147.427106648
0.9117313612420768	4802520.655383047
0.9119592940823873	4813896.726966511
0.912187283905908	4825275.642567875
0.9124153307268845	4812634.258637939
0.9126434345595664	4791270.717186042
0.9128715954182063	4769901.834848802
0.9130998133170609	4748527.610290967
0.9133280882703902	4727148.0421769945
0.913556420292458	4724112.862960627
0.9137848093975312	4740001.276347821
0.9140132555998806	4755893.661838358
0.9142417589137806	4771790.020425269
