#wavelength	surface flux
0.8	11777813.84612151
0.8002000000000001	11889999.155120395
0.8004000500000003	12001734.7110298
0.8006001500125003	12113493.374583585
0.8008003000500035	12225279.977803268
0.8010005001250161	12337094.527673807
0.8012007502500472	12448937.031181652
0.8014010504376099	12548303.899391646
0.8016014007002193	12643507.286682995
0.8018018010503944	12738734.474821167
0.8020022515006572	12833985.469756417
0.8022027520635323	12929260.277440317
0.8024033027515483	13023043.739122327
0.8026039035772362	13115365.844310397
0.8028045545531306	13207711.03002477
0.8030052556917691	13300079.302035615
0.803206007005692	13392470.66611438
0.8034068085074435	13485874.345772702
0.8036076602095705	13582074.298774956
0.8038085621246229	13678298.301765386
0.8040095142651542	13774546.36075662
0.8042105166437206	13870818.481762573
0.8044115692728815	13966421.063776694
0.8046126721651998	14032214.286369497
0.8048138253332411	14098023.957267897
0.8050150287895745	14163850.08058408
0.805216282546772	14229692.660431078
0.8054175866174087	14295551.700923001
0.8056189410140631	14371950.536888413
0.8058203457493168	14451347.257682122
0.8060218008357541	14530763.827655928
0.8062233062859632	14610200.251772268
0.8064248621125346	14689656.534994584
0.806626468328063	14777523.500483375
0.8068281249451449	14872619.13047091
0.8070298319763813	14967738.534366056
0.8072315894343755	15062881.718112107
0.8074333973317341	15158048.687654128
0.8076352556810671	15235807.61749786
0.8078371644949874	15271624.65800254
0.8080391237861113	15307450.652767358
0.8082411335670578	15343285.604030844
0.8084431938504498	15379129.514032183
0.8086453046489125	15414704.789664254
0.8088474659750746	15445120.6310948
0.8090496778415686	15475544.076485747
0.809251940261029	15505975.12773802
0.8094542532460944	15536413.78675313
0.8096566168094059	15566860.055432959
0.8098590309636085	15610806.105660478
0.8100614957213493	15657921.094951827
0.8102640110952797	15705047.862990506
0.8104665770980536	15752186.412721213
0.8106691937423283	15799336.747089371
0.8108718610407639	15854657.008829074
0.8110745790060241	15916229.201939113
0.8112773476507757	15977816.788097484
0.8114801669876885	16039419.771152379
0.8116830370294355	16101038.154953001
0.8118859577886929	16158003.446086986
0.8120889292781401	16205286.305585982
0.8122919515104597	16252580.985799849
0.8124950244983374	16299887.489683772
0.8126981482544621	16347205.820193658
0.8129013227915257	16395436.101551455
0.8131045481222237	16453984.966581874
0.8133078242592543	16512548.468828557
0.8135111512153191	16571126.611950785
0.813714529003123	16629719.399608802
0.8139179576353739	16688326.835463744
0.8141214371247829	16861138.065793667
0.8143249674840641	17056135.69432515
0.814528548725935	17251182.072263647
0.8147321808631167	17446277.211796895
0.8149358639083326	17641421.125114966
0.8151395978743097	17766758.176978797
0.8153433827737784	17844929.156810153
0.8155472186194719	17923119.67938644
0.8157511054241268	18001329.74959336
0.815955043200483	18079559.37231788
0.8161590319612831	18135776.55098605
0.8163630717192736	18151636.82686015
0.8165671624872033	18167501.067803193
0.8167713042778252	18183369.27480649
0.8169754971038948	18199241.448861547
0.8171797409781707	18190904.34600616
0.8173840359134155	17989263.325340036
0.8175883819223938	17787571.89441898
0.8177927790178745	17585830.04064008
0.8179972272126291	17384037.75139768
0.8182017265194322	17182195.014083173
0.8184062769510622	17147663.50459147
0.8186108785203001	17138877.849006325
0.8188155312399301	17130089.997007295
0.8190202351227402	17121299.948045257
0.819224990181521	17112507.701570984
0.8194297964290664	17379294.40290722
0.8196346538781738	17812253.8477655
0.8198395625416434	18245321.532484833
0.8200445224322789	18678497.48412552
0.820249533562887	19111781.729753993
0.8204545959462778	19417517.33887163
0.8206597095952644	19517868.95496402
0.8208648745226633	19618245.658960506
0.8210700907412941	19718647.457132977
0.8212753582639793	19819074.35575489
0.8214806771035456	19894298.95900016
0.8216860472728215	19814110.835765142
0.8218914687846397	19733902.66549931
0.822096941651836	19653674.443190876
0.822302465887249	19573426.163826905
0.8225080415037209	19493157.822393056
0.8227136685140968	19593042.101606786
0.8229193469312254	19713404.71753889
0.8231250767679583	19833797.42412502
0.8233308580371503	19954220.22888773
0.8235366907516598	20074673.139351714
0.8237425749243477	20197773.0427703
0.8239485105680789	20322290.713423472
0.824154497695721	20446839.513494227
0.824360536320145	20571419.45076502
0.8245666264542252	20696030.53302013
0.8247727681108388	20808049.91660928
0.8249789613028664	20902019.006005514
0.8251852060431922	20996011.587674182
0.825391502344703	21090027.66748822
0.8255978502202894	21184067.251322303
0.8258042496828445	21270449.666865125
0.8260107007452654	21319551.923492588
0.8262172034204517	21368666.455684155
0.8264237577213068	21417793.266508788
0.8266303636607373	21466932.359036148
0.8268370212516525	21516083.73633661
0.8270437305069654	21513632.2214078
0.8272504914395923	21507146.702732135
0.8274573040624523	21500659.562676802
0.8276641683884679	21494170.80083646
0.8278710844305652	21487680.416805647
0.8280780522016729	21532638.34067481
0.8282850717147234	21601125.17197783
0.8284921429826521	21669629.1249886
0.8286992660183978	21738150.20398768
0.8289064408349024	21806688.41325646
0.8291136674451112	21856078.711907707
0.8293209458619727	21881315.196522407
0.8295282760984382	21906557.990258224
0.829735658167463	21931807.09469251
0.8299430920820048	21957062.511402868
0.8301505778550254	21985820.376414288
0.8303581154994891	22028539.527269688
0.8305657050283641	22071269.357912846
0.8307733464546212	22114009.87101363
0.8309810397912352	22156761.06924276
0.8311887850511829	22199522.955271363
0.8313965822474458	22331989.672159243
0.8316044313930077	22468652.685241144
0.8318123325008561	22605349.864076447
0.8320202855839813	22742081.21720639
0.8322282906553774	22878846.75317463
0.8324363477280413	22939209.046121486
0.8326444568149735	22968812.988210876
0.8328526179291771	22998424.331285752
0.8330608310836596	23028043.07719644
0.8332690962914304	23057669.22779357
0.8334774135655034	23080773.299575344
0.833685782918895	23096589.497812204
0.8338942043646247	23112409.650098614
0.834102677915716	23128233.757423107
0.834311203585195	23144061.820774417
0.8345197813860912	23185212.048837498
0.8347284113314379	23311596.019220732
0.8349370934342709	23438011.58559649
0.8351458277076294	23564458.75586369
0.8353546141645565	23690937.537923664
0.8355634528180977	23817447.9396791
0.8357723436813022	23704887.6601702
0.8359812867672226	23589346.936312526
0.8361902820889144	23473777.327273946
0.8363993296594368	23358178.82583307
0.8366084294918518	23242551.424766798
0.8368175815992247	23305772.618995305
0.8370267859946247	23430616.86753926
0.8372360426911234	23555492.327145316
0.8374453517017962	23680399.00561626
0.8376547130397217	23805336.910756808
0.8378641267179816	23882023.82857419
0.8380735927496613	23910821.40309103
0.8382831111478488	23939626.177001476
0.8384926819256358	23968438.152105387
0.8387023050961173	23997257.3302031
0.8389119806723914	24027721.60424451
0.8391217086675596	24062803.055246044
0.8393314890947265	24097893.276610296
0.8395413219670003	24132992.270529896
0.8397512072974922	24168100.039198
0.8399611450993165	24205543.80480426
0.8401711353855914	24358565.844651897
0.8403811781694378	24511626.140009448
0.8405912734639802	24664724.70044088
0.8408014212823464	24817861.535512492
0.8410116216376671	24971036.654792853
0.8412218745430766	25104677.99133801
0.8414321800117124	25232658.019211728
0.8416425380567154	25360670.042092476
0.8418529486912297	25488714.06797897
0.8420634119284025	25616790.10487183
0.8422739277813847	25691388.953768823
0.8424844962633302	25718862.76464969
0.842695117387396	25746343.443983242
0.8429057911667428	25773830.993486628
0.8431165176145345	25801325.414877404
0.8433272967439382	25826598.781223327
0.8435381285681244	25846443.93012805
0.8437490131002665	25866294.040319994
0.8439599503535415	25886149.11303947
0.84417094034113	25906009.149527147
0.8443819830762154	25928828.275060527
0.8445930785719846	26011164.18663257
0.8448042268416277	26093520.682182465
0.8450154278983382	26175897.76685624
0.8452266817553128	26258295.44580117
0.8454379884257517	26340713.72416585
0.8456493479228583	26418160.259891387
0.845860760259839	26494423.94004268
0.846072225449904	26570706.686114002
0.8462837435062666	26647008.502871864
0.8464953144421433	26723329.395083956
0.8467069382707537	26775994.68273508
0.8469186150053215	26810219.44701089
0.847130344659073	26844452.767477777
0.8473421272452377	26878694.64627475
0.8475539627770492	26912945.085541453
0.8477658512677435	26953208.02617105
0.8479777927305605	27006229.605866775
0.8481897871787432	27059264.440957416
0.848401834625538	27112312.534756854
0.8486139350841944	27165373.89057971
0.8488260885679657	27213645.201491214
0.8490382950901076	27203377.933461256
0.8492505546638802	27193108.098614287
0.8494628673025462	27182835.69630861
0.8496752330193721	27172560.72590234
0.8498876518276269	27162283.18675348
0.8501001237405839	26842648.32922733
0.8503126487715191	26461180.921940275
0.850525226933712	26079618.147801615
0.8507378582404455	25697959.982969422
0.8509505427050057	25316206.4035958
0.8511632803406821	25033745.452051945
0.8513760711607672	24819276.511011902
0.8515889151785576	24604753.95273627
0.8518018124073523	24390177.763821244
0.8520147628604541	24175547.93085912
0.8522277665511693	24193994.35745504
0.8524408234928071	24643590.99713386
0.8526539336986805	25093300.035972714
0.8528670971821053	25543121.502071306
0.8530803139564007	25993055.423535895
0.8532935840348901	26436281.086034406
0.8535069074308987	26822012.899575144
0.8537202841577566	27207841.14606959
0.8539337142287962	27593765.849625703
0.8541471976573534	27979787.034357466
0.8543607344567677	28365904.72438548
0.8545743246403821	28522508.49889186
0.8547879682215422	28642686.66136842
0.8550016652135977	28762894.86838558
0.8552154156299011	28883133.1274545
0.8554292194838088	29003401.446088277
0.8556430767886797	29088704.940812703
0.855856987557877	29152781.78787222
0.8560709518047664	29216874.65414346
0.8562849695427177	29280983.543631293
0.8564990407851035	29345108.460341517
0.8567131655452999	29406733.6841701
0.8569273438366862	29464252.216392208
0.8571415756726455	29521785.12824738
0.8573558610665638	29579332.423330538
0.8575702000318304	29636894.105237402
0.8577845925818384	29697348.937801212
0.857999038729984	29775800.681054264
0.8582135384896665	29854272.03724311
0.858428091874289	29932763.011271007
0.8586426988972576	30011273.60804239
0.8588573595719821	30089803.832462993
0.8590720739118751	30129848.769243654
0.8592868419303532	30165363.872115105
0.8595016636408359	30200887.853762276
0.8597165390567462	30236420.716404848
0.8599314681915105	30271962.46226309
0.8601464510585584	30224115.595082384
0.860361487671323	30131989.95616369
0.8605765780432408	30039841.285835292
0.8607917221877518	29947669.578339238
0.8610069201182988	29855474.82791633
0.8612221718483286	29135800.039456807
0.8614374773912907	27511381.168332517
0.8616528367606385	25886556.192490887
0.8618682499698288	24261325.010404266
0.8620837170323213	22635687.520522397
0.8622992379615795	21243360.023160446
0.8625148127710699	21007257.375793755
0.8627304414742627	20771095.702765204
0.8629461240846313	20534874.989318356
0.8631618606156526	20298595.220693126
0.8633776510808066	20062256.382125784
0.8635934954935769	21680665.705918036
0.8638093938674504	23451521.53675436
0.8640253462159173	25222820.081548333
0.8642413525524714	26994561.450978465
0.8644574128906095	28766745.75575058
0.8646735272438323	28733303.65118025
0.8648896956256433	27859980.845505245
0.8651059180495498	26986439.70912877
0.8653221945290621	26112680.18746904
0.8655385250776946	25238702.22592767
0.8657549097089641	25011435.78819475
0.8659713484363913	25612325.16890524
0.8661878412735006	26213364.77196119
0.866404388233819	26814554.634917818
0.8666209893308775	27415894.795339912
0.8668376445782103	27904161.513516836
0.8670543539893549	27930426.586300388
0.8672711175778525	27956698.225352153
0.8674879353572469	27982976.43231365
0.8677048073410862	28009261.208826903
0.8679217335429217	28035552.556534298
0.8681387139763074	28326332.99334592
0.8683557486548015	28630324.942846328
0.8685728375919655	28934392.890334487
0.8687899808013633	29238536.854808852
0.8690071782965637	29542756.85527473
0.869224430091138	29486865.531585798
0.8694417361986609	29284400.44581659
0.8696590966327107	29081884.743775986
0.869876511406869	28879318.412809864
0.8700939805347206	28676701.440261096
0.8703115040298544	28534083.499739986
0.870529081905862	28460084.067868527
0.8707467141763385	28386066.13613913
0.8709644008548827	28312029.6999268
0.8711821419550964	28237974.754605465
0.8713999374905854	28217913.407708067
0.871617787474958	28384261.584639877
0.8718356919218269	28550651.34861607
0.8720536508448075	28717082.710033268
0.8722716642575187	28883555.679290723
0.8724897321735832	29050070.26679057
0.8727078546066265	29205514.591800302
0.8729260315702784	29360828.72957601
0.873144263078171	29516181.695885994
0.8733625491439405	29671573.50043757
0.8735808897812266	29827004.15294034
0.8737992850036719	29836498.766478527
0.874017734824923	29794293.845516432
0.8742362392586293	29752078.37332411
0.874454798318444	29709852.347263746
0.8746734120180236	29667615.764696866
0.8748920803710283	29677098.642465856
0.875110803391121	29738567.6313489
0.8753295810919689	29800051.987479202
0.875548413487242	29861551.714698534
0.8757673005906139	29923066.816849675
0.8759862424157616	30075554.28880847
0.8762052389763657	30491268.228694003
0.8764242902861098	30907086.09706422
0.8766433963586814	31323007.919901643
0.8768625572077712	31739033.723194905
0.8770817728470732	32150369.35374646
0.8773010432902849	32187490.403699156
0.8775203685511077	32224620.733914394
0.8777397486432454	32261760.34671214
0.8779591835804065	32298909.244413126
0.8781786733763015	32336067.429338492
0.8783982180446457	31864556.497585412
0.878617817599157	31241605.370175317
0.8788374720535569	30618498.504983664
0.8790571814215703	29995235.863075867
0.8792769457169257	29371817.405507583
0.879496764953355	29035578.182097692
0.8797166391445934	28957588.016196743
0.8799365683043796	28879578.352754313
0.8801565524464557	28801549.186896026
0.8803765915845676	28723500.5137462
0.8805966857324639	28771709.627286498
0.880816834903897	29137101.51145366
0.881037039112623	29502584.743592
0.8812572983724012	29868159.346538346
0.8814776126969944	30233825.343135588
0.8816979821001687	30599623.664628137
0.8819184065956938	30966476.42623696
0.8821388861973429	31333420.901036564
0.8823594209188923	31700457.111954518
0.882580010774122	32067585.08192503
0.8828006557768155	32434804.83388824
0.8830213559407598	32796998.947321616
0.8832421112797452	33157996.520305652
0.8834629218075651	33519084.34268271
0.8836837875380171	33880262.437015474
0.8839047084849018	34241530.825871885
0.884125684662023	33973457.50639564
0.8843467160831886	33200907.78792801
0.8845678027622095	32428164.93203077
0.8847889447129001	31655228.89041941
0.8850101419490785	30882099.614797786
0.8852313944845657	30650406.716660995
0.885452702333187	31604216.789369717
0.8856740655087704	32558265.314596474
0.8858954840251476	33512552.35195428
0.8861169578961539	34467077.961070985
0.886338487135628	35309749.68022955
0.886560071757412	34660971.28341126
0.8867817117753515	34012030.69199378
0.8870034072032955	33362927.865428153
0.8872251580550963	32713662.76315665
0.8874469643446101	32064235.34460917
0.8876688260856963	32308493.23916724
0.8878907432922178	32737805.428824052
0.8881127159780409	33167224.946528003
0.8883347441570356	33596751.8191119
0.8885568278430749	34026386.073413484
0.8887789670500358	34074115.152874544
0.8890011617917983	33850866.50602533
0.8892234120822464	33627562.0470143
0.8894457179352669	33404201.76188871
0.8896680793647509	33180785.636691652
0.8898904963845921	32977703.588117704
0.8901129690086883	32813475.293441806
0.8903354972509405	32649205.941692278
0.8905580811252535	32484895.52260468
0.8907807206455347	32320544.02591254
0.8910034158256963	32125981.43832905
0.8912261666796527	31661741.98325962
0.8914489732213227	31197386.468326293
0.8916718354646282	30732914.864513777
0.8918947534234944	30268327.14280076
0.8921177271118502	29803623.2741576
0.8923407565436284	29565550.637674764
0.8925638417327644	29364407.150851104
0.8927869826931977	29163213.378155675
0.8930101794388711	28961969.30701708
0.8932334319837308	28760674.92486074
0.8934567403417267	28851684.815633215
0.8936801045268123	29124381.426085174
0.8939035245529441	29397146.21068956
0.8941270004340824	29669979.186490204
0.894350532184191	29942880.37053473
0.8945741198172371	30446348.805637706
0.8947977633471915	31332198.247295305
0.8950214627880284	32218269.151313283
0.8952452181537254	33104561.573056735
0.8954690294582639	33991075.56790616
0.8956928967156286	34770586.71143489
0.8959168199398075	34854444.05512186
0.8961407991447926	34938322.36314476
0.8963648343445789	35022221.64074468
0.896588925553165	35106141.89316394
0.8968130727845534	35190083.125646316
0.8970372760527496	35162480.29965334
0.8972615353717629	35120911.53926268
0.8974858507556059	35079332.386681914
0.8977102222182949	35037742.83931302
0.8979346497738496	34996142.89455726
0.8981591334362931	35200825.36326184
0.8983836732196523	35540250.75104027
0.8986082691379572	35879760.99516542
0.8988329212052417	36219356.11685161
0.8990576294355432	36559036.13731851
0.8992823938429022	36681272.094367504
0.8995072144413631	36480100.655755095
0.8997320912449734	36278878.92428311
0.8999570242677847	36077606.8873783
0.9001820135238516	35876284.53246425
0.9004070590272328	35737611.01123037
0.9006321607919896	35927593.23136207
0.9008573188321878	36117622.947048984
0.9010825331618959	36307700.170164734
0.9013078037951865	36497824.912586294
0.9015331307461353	36687997.186193354
0.9017585140288219	36985945.48142239
0.9019839536573292	37293247.19681495
0.9022094496457435	37600625.73763613
0.9024350020081551	37908081.12309286
0.9026606107586572	38215613.37239586
0.902886275911347	38429172.510070205
0.9031119974803249	38597446.393602744
0.9033377754796951	38765762.34560616
0.903563609923565	38934120.376597516
0.903789500826046	39102520.497096725
0.9040154482012526	39100792.927828975
0.904241452063303	38878624.822311275
0.9044675124263188	38656401.17476723
0.9046936293044254	38434121.971311346
0.9049198027117517	38211787.19805449
0.9051460326624297	38087595.2901732
0.9053723191705955	38381524.17494105
0.9055986622503881	38675526.541929804
0.9058250619159507	38969602.40951032
0.9060515181814298	39263751.79605792
0.9062780310609752	39557974.71995194
0.9065046005687405	39525794.738972165
0.906731226718883	39475393.5564934
0.9069579095255627	39424979.77371908
0.907184649002944	39374553.387499064
0.907411445165195	39324114.39468244
0.9076382980264862	39432582.07189851
0.907865207600993	39607075.748594604
0.9080921739028933	39781613.048709825
0.9083191969463691	39956193.983150035
0.9085462767456058	40130818.56282395
0.9087734133147922	40247315.068560846
0.9090006066681211	40296651.62912748
0.909227856819788	40346000.523834184
0.9094551637839932	40395361.75576464
0.9096825275749393	40444735.328003064
0.9099099482068329	40499755.356134795
0.9101374256938848	40574812.872793086
0.9103649600503083	40649889.153830506
0.9105925512903209	40724984.20393817
0.9108201994281437	40800098.027808435
0.9110479044780008	40875230.63013459
0.9112756664541204	40976622.54011917
0.911503485370734	41078640.43906112
0.9117313612420768	41180683.84247781
0.9119592940823873	41282752.75674532
0.912187283905908	41384847.18824144
0.9124153307268845	41240181.678098254
0.9126434345595664	41005911.30269047
0.9128715954182063	40771582.35968905
0.9130998133170609	40537194.83445176
0.9133280882703902	40302748.71233317
0.913556420292458	40178029.261973195
0.9137848093975312	40166501.815430135
0.9140132555998806	40154971.48702544
