#wavelength	surface flux
0.8	1731060.253352872
0.8002000000000001	1752987.9462451423
0.8004000500000003	1777781.4770413588
0.8006001500125003	1802610.0986319734
0.8008003000500035	1827444.9273779872
0.8010005001250161	1852285.9648311995
0.8012007502500472	1877133.2125437388
0.8014010504376099	1898429.3663439255
0.8016014007002193	1918539.2554445793
0.8018018010503944	1938654.1720175082
0.8020022515006572	1958774.1173195895
0.8022027520635323	1978899.0926079787
0.8024033027515483	1999932.854749656
0.8026039035772362	2021857.5206071285
0.8028045545531306	2043787.6676310664
0.8030052556917691	2065723.2971917705
0.803206007005692	2087664.4106598457
0.8034068085074435	2110656.395066464
0.8036076602095705	2136584.4968165746
0.8038085621246229	2162519.0805921024
0.8040095142651542	2188460.1480135904
0.8042105166437206	2214407.700701925
0.8044115692728815	2240239.67419005
0.8046126721651998	2260827.8281455287
0.8048138253332411	2281421.12913948
0.8050150287895745	2302019.578458699
0.805216282546772	2322623.177390242
0.8054175866174087	2343231.927221507
0.8056189410140631	2365117.05655136
0.8058203457493168	2387367.4969425034
0.8060218008357541	2409623.4999437165
0.8062233062859632	2431885.0669456907
0.8064248621125346	2454152.1993394005
0.806626468328063	2480289.868145849
0.8068281249451449	2509753.612719697
0.8070298319763813	2539224.7232297244
0.8072315894343755	2568703.2015173575
0.8074333973317341	2598189.0494245733
0.8076352556810671	2621071.0277472795
0.8078371644949874	2628044.3654105524
0.8080391237861113	2635019.4464082434
0.8082411335670578	2641996.271176179
0.8084431938504498	2648974.840150314
0.8086453046489125	2655842.5088169845
0.8088474659750746	2660614.647250462
0.8090496778415686	2665387.978718554
0.809251940261029	2670162.5035195095
0.8094542532460944	2674938.2219516695
0.8096566168094059	2679715.1343134325
0.8098590309636085	2690156.09810375
0.8100614957213493	2701925.1101016034
0.8102640110952797	2713697.064352458
0.8104665770980536	2725471.96159188
0.8106691937423283	2737249.802555616
0.8108718610407639	2752696.1258262084
0.8110745790060241	2770949.1550782397
0.8112773476507757	2789206.7475876003
0.8114801669876885	2807468.9044950837
0.8116830370294355	2825735.626941783
0.8118859577886929	2841853.6182472063
0.8120889292781401	2853503.145315304
0.8122919515104597	2865155.584765168
0.8124950244983374	2876810.9373248946
0.8126981482544621	2888469.20372276
0.8129013227915257	2900639.537706616
0.8131045481222237	2918642.7941877046
0.8133078242592543	2936650.551482916
0.8135111512153191	2954662.810717446
0.813714529003123	2972679.5730167865
0.8139179576353739	2990700.8395067053
0.8141214371247829	3071261.2566772625
0.8143249674840641	3163968.333509633
0.814528548725935	3256698.5871111555
0.8147321808631167	3349452.023276204
0.8149358639083326	3442228.647800265
0.8151395978743097	3501376.610065577
0.8153433827737784	3537802.753217531
0.8155472186194719	3574238.0029052594
0.8157511054241268	3610682.3614054034
0.815955043200483	3647135.830995197
0.8161590319612831	3674899.62669439
0.8163630717192736	3686730.8960307497
0.8165671624872033	3698565.1231844304
0.8167713042778252	3710402.3088949113
0.8169754971038948	3722242.4539018255
0.8171797409781707	3728651.56656623
0.8173840359134155	3691681.0373911853
0.8175883819223938	3654701.2655838896
0.8177927790178745	3617712.248833621
0.8179972272126291	3580713.984829155
0.8182017265194322	3543706.471258725
0.8184062769510622	3559598.2653253637
0.8186108785203001	3583635.876563979
0.8188155312399301	3607679.4972053715
0.8190202351227402	3631729.1287519513
0.819224990181521	3655784.772706402
0.8194297964290664	3737447.9602346625
0.8196346538781738	3853850.7833900787
0.8198395625416434	3970282.7072512372
0.8200445224322789	4086743.7390934103
0.820249533562887	4203233.886193509
0.8204545959462778	4293354.995565142
0.8206597095952644	4341011.508923872
0.8208648745226633	4388679.93641098
0.8210700907412941	4436360.281004952
0.8212753582639793	4484052.545685025
0.8214806771035456	4516170.858162261
0.8216860472728215	4452269.219582595
0.8218914687846397	4388351.605593281
0.822096941651836	4324418.012200437
0.822302465887249	4260468.435409281
0.8225080415037209	4196502.871223893
0.8227136685140968	4251713.148935416
0.8229193469312254	4320467.993391753
0.8231250767679583	4389240.026559228
0.8233308580371503	4458029.252734957
0.8235366907516598	4526835.67621728
0.8237425749243477	4600621.64608345
0.8239485105680789	4677056.192409653
0.824154497695721	4753509.8473723885
0.824360536320145	4829982.6157488795
0.8245666264542252	4906474.502317461
0.8247727681108388	4977215.832233625
0.8249789613028664	5039711.58033329
0.8251852060431922	5102222.952370033
0.825391502344703	5164749.952249757
0.8255978502202894	5227292.583879508
0.8258042496828445	5284205.366487034
0.8260107007452654	5313714.683364265
0.8262172034204517	5343231.377570684
0.8264237577213068	5372755.450950664
0.8266303636607373	5402286.905349001
0.8268370212516525	5431825.742610924
0.8270437305069654	5419037.0902769705
0.8272504914395923	5402937.045493541
0.8274573040624523	5386832.9756989125
0.8276641683884679	5370724.87988685
0.8278710844305652	5354612.757050814
0.8280780522016729	5380162.57880316
0.8282850717147234	5424764.2269365685
0.8284921429826521	5469377.025481965
0.8286992660183978	5514000.977227033
0.8289064408349024	5558636.084960005
0.8291136674451112	5586437.260192467
0.8293209458619727	5593004.569714458
0.8295282760984382	5599573.52106382
0.829735658167463	5606144.114651029
0.8299430920820048	5612716.350886625
0.8301505778550254	5622539.934987337
0.8303581154994891	5645336.498501444
0.8305657050283641	5668138.761156452
0.8307733464546212	5690946.724377106
0.8309810397912352	5713760.389588603
0.8311887850511829	5736579.758216357
0.8313965822474458	5844028.736831638
0.8316044313930077	5955432.420768526
0.8318123325008561	6066863.955626502
0.8320202855839813	6178323.348368138
0.8322282906553774	6289810.605957969
0.8324363477280413	6331899.408659789
0.8326444568149735	6346047.939358551
0.8328526179291771	6360200.007189971
0.8330608310836596	6374355.613038371
0.8332690962914304	6388514.757788215
0.8334774135655034	6396932.596867614
0.833685782918895	6398935.3593751965
0.8338942043646247	6400938.622573404
0.834102677915716	6402942.386587413
0.834311203585195	6404946.651542423
0.8345197813860912	6432065.777552402
0.8347284113314379	6543728.967661503
0.8349370934342709	6655420.0735680675
0.8351458277076294	6767139.102250974
0.8353546141645565	6878886.060691237
0.8355634528180977	6990660.955871063
0.8357723436813022	6871393.697114426
0.8359812867672226	6749243.494606393
0.8361902820889144	6627062.754547795
0.8363993296594368	6504851.469304147
0.8366084294918518	6382609.631239146
0.8368175815992247	6431962.412981508
0.8370267859946247	6540437.007791642
0.8372360426911234	6648938.721250446
0.8374453517017962	6757467.560137602
0.8376547130397217	6866023.531234467
0.8378641267179816	6928640.918059915
0.8380735927496613	6945664.0129248025
0.8382831111478488	6962691.363563396
0.8384926819256358	6979722.97103964
0.8387023050961173	6996758.836417767
0.8389119806723914	7015453.191870533
0.8391217086675596	7038807.767787949
0.8393314890947265	7062168.182349326
0.8395413219670003	7085534.437014346
0.8397512072974922	7108906.533243049
0.8399611450993165	7134787.531707744
0.8401711353855914	7284976.026343838
0.8403811781694378	7435202.068103551
0.8405912734639802	7585465.666373741
0.8408014212823464	7735766.830543569
0.8410116216376671	7886105.57000442
0.8412218745430766	8023882.4456375735
0.8414321800117124	8158027.812168335
0.8416425380567154	8292206.715040794
0.8418529486912297	8426419.162639003
0.8420634119284025	8560665.163348997
0.8422739277813847	8629457.96861227
0.8424844962633302	8640571.598076144
0.842695117387396	8651688.00594737
0.8429057911667428	8662807.192920564
0.8431165176145345	8673929.159690507
0.8433272967439382	8684882.068340141
0.8435381285681244	8695418.553191401
0.8437490131002665	8705957.67216387
0.8439599503535415	8716499.425916078
0.84417094034113	8727043.815106729
0.8443819830762154	8741442.03914187
0.8445930785719846	8833426.590723954
0.8448042268416277	8925434.138443882
0.8450154278983382	9017464.688050728
0.8452266817553128	9109518.24529497
0.8454379884257517	9201594.815928534
0.8456493479228583	9283589.095727567
0.845860760259839	9363170.394003846
0.846072225449904	9442771.587604692
0.8462837435062666	9522392.681503957
0.8464953144421433	9602033.680676742
0.8467069382707537	9650025.79341099
0.8469186150053215	9673345.04976021
0.847130344659073	9696670.135923523
0.8473421272452377	9720001.053358354
0.8475539627770492	9743337.803522566
0.8477658512677435	9774293.955295615
0.8479777927305605	9821424.253955264
0.8481897871787432	9868566.335189564
0.848401834625538	9915720.201944198
0.8486139350841944	9962885.857165493
0.8488260885679657	10002365.740547584
0.8490382950901076	9948024.93049318
0.8492505546638802	9893670.535236234
0.8494628673025462	9839302.551380495
0.8496752330193721	9784920.97552871
0.8498876518276269	9730525.804283036
0.8501001237405839	9303055.711816806
0.8503126487715191	8801009.159854969
0.850525226933712	8298837.096255421
0.8507378582404455	7796539.489639976
0.8509505427050057	7294116.308622587
0.8511632803406821	6987957.545495217
0.8513760711607672	6816213.446593361
0.8515889151785576	6644426.4116665125
0.8518018124073523	6472596.429981075
0.8520147628604541	6300723.490800319
0.8522277665511693	6319806.853922683
0.8524408234928071	6692125.051326534
0.8526539336986805	7064536.328279835
0.8528670971821053	7437040.708052399
0.8530803139564007	7809638.213919466
0.8532935840348901	8202418.056520955
0.8535069074308987	8764959.546908578
0.8537202841577566	9327641.672669271
0.8539337142287962	9890464.468961466
0.8541471976573534	10453427.970952384
0.8543607344567677	11016532.2138189
0.8545743246403821	11262610.95493678
0.8547879682215422	11458381.585794287
0.8550016652135977	11654201.159309482
0.8552154156299011	11850069.687718067
0.8554292194838088	12045987.183258897
0.8556430767886797	12179702.09666681
0.855856987557877	12275652.934817445
0.8560709518047664	12371627.760677557
0.8562849695427177	12467626.58024417
0.8564990407851035	12563649.399515705
0.8567131655452999	12653823.727942653
0.8569273438366862	12734398.318373568
0.8571415756726455	12814993.052452108
0.8573558610665638	12895607.935214197
0.8575702000318304	12976242.971696887
0.8577845925818384	13062067.366339495
0.857999038729984	13180201.940887135
0.8582135384896665	13298366.049078384
0.858428091874289	13416559.69829669
0.8586426988972576	13534782.895927267
0.8588573595719821	13653035.649357293
0.8590720739118751	13687676.017372396
0.8592868419303532	13712463.409817917
0.8595016636408359	13737256.999111548
0.8597165390567462	13762056.786802495
0.8599314681915105	13786862.77444037
0.8601464510585584	13661799.692999624
0.860361487671323	13457152.598395273
0.8605765780432408	13252454.34201733
0.8607917221877518	13047704.911075125
0.8610069201182988	12842904.29277524
0.8612221718483286	12366067.924046477
0.8614374773912907	11497009.809307303
0.8616528367606385	10627734.43003968
0.8618682499698288	9758241.73192669
0.8620837170323213	8888531.660639316
0.8622992379615795	8159033.612475817
0.8625148127710699	8124284.739894437
0.8627304414742627	8089527.180094909
0.8629461240846313	8054760.930905425
0.8631618606156526	8019985.9901536405
0.8633776510808066	7985202.355666675
0.8635934954935769	8592782.398414804
0.8638093938674504	9253170.76141789
0.8640253462159173	9913724.221511707
0.8642413525524714	10574442.819970531
0.8644574128906095	11235326.598078834
0.8646735272438323	11158243.71628076
0.8648896956256433	10737889.786503129
0.8651059180495498	10317430.76824303
0.8653221945290621	9896866.635228768
0.8655385250776946	9476197.361180663
0.8657549097089641	9367290.718346156
0.8659713484363913	9657616.1874261
0.8661878412735006	9948014.237873446
0.866404388233819	10238484.887833364
0.8666209893308775	10529028.15545564
0.8668376445782103	10764605.368964307
0.8670543539893549	10775600.643303404
0.8672711175778525	10786598.666461093
0.8674879353572469	10797599.43912456
0.8677048073410862	10808602.961981196
0.8679217335429217	10819609.235718552
0.8681387139763074	11013315.206917942
0.8683557486548015	11216145.52342064
0.8685728375919655	11419026.547502711
0.8687899808013633	11621958.291840363
0.8690071782965637	11824940.769114364
0.869224430091138	11806503.657559788
0.8694417361986609	11697945.937610913
0.8696590966327107	11589361.078232072
0.869876511406869	11480749.072638383
0.8700939805347206	11372109.914043346
0.8703115040298544	11315347.624410145
0.870529081905862	11317912.46434381
0.8707467141763385	11320477.94548746
0.8709644008548827	11323044.068001393
0.8711821419550964	11325610.832045956
0.8713999374905854	11348144.49686733
0.871617787474958	11439594.28272465
0.8718356919218269	11531066.931028515
0.8720536508448075	11622562.447494464
0.8722716642575187	11714080.837839475
0.8724897321735832	11805622.107782112
0.8727078546066265	11902934.852863137
0.8729260315702784	12000359.381039359
0.873144263078171	12097808.265347522
0.8733625491439405	12195281.511876773
0.8735808897812266	12292779.126717692
0.8737992850036719	12264245.82885791
0.874017734824923	12191058.687679518
0.8742362392586293	12117853.249715863
0.874454798318444	12044629.510392718
0.8746734120180236	11971387.465134751
0.8748920803710283	11946810.683265453
0.875110803391121	11971150.110071747
0.8753295810919689	11995495.621734757
0.875548413487242	12019847.219775682
0.8757673005906139	12044204.90571612
0.8759862424157616	12166816.959638989
0.8762052389763657	12573745.697194373
0.8764242902861098	12980776.166933866
0.8766433963586814	13387908.394290904
0.8768625572077712	13795142.404704904
0.8770817728470732	14197506.702213096
0.8773010432902849	14211807.743548842
0.8775203685511077	14226112.360144945
0.8777397486432454	14240420.552895179
0.8779591835804065	14254732.322693618
0.8781786733763015	14269047.670434488
0.8783982180446457	13878302.341580559
0.878617817599157	13366960.281634398
0.8788374720535569	12855490.386173494
0.8790571814215703	12343892.62323885
0.8792769457169257	11832166.960863464
0.879496764953355	11521244.497270934
0.8797166391445934	11390894.586504953
0.8799365683043796	11260512.08826127
0.8801565524464557	11130096.994393032
0.8803765915845676	10999649.296751201
0.8805966857324639	11003932.443785368
0.880816834903897	11346702.064156692
0.881037039112623	11689557.376933247
0.8812572983724012	12032498.403537964
0.8814776126969944	12375525.165399484
0.8816979821001687	12716731.397784222
0.8819184065956938	13013148.634490121
0.8821388861973429	13309639.975505503
0.8823594209188923	13606205.439355854
0.882580010774122	13902845.044572031
0.8828006557768155	14199558.809689678
0.8830213559407598	14705261.446419679
0.8832421112797452	15263634.674775463
0.8834629218075651	15822147.496438
0.8836837875380171	16380799.946306119
0.8839047084849018	16939592.059286796
0.884125684662023	16703942.612867903
0.8843467160831886	15831478.855963768
0.8845678027622095	14958796.983120408
0.8847889447129001	14085896.939808672
0.8850101419490785	13212778.671486268
0.8852313944845657	13056060.364877535
0.885452702333187	14467892.315149063
0.8856740655087704	15880077.223407952
0.8858954840251476	17292615.177893527
0.8861169578961539	18705506.266867068
0.886338487135628	19933129.31434325
0.886560071757412	18690921.58837203
0.8867817117753515	17448403.310469344
0.8870034072032955	16205574.402996624
0.8872251580550963	14962434.788298491
0.8874469643446101	13718984.388695918
0.8876688260856963	13902418.453698814
0.8878907432922178	14381274.740759255
0.8881127159780409	14860250.741891151
0.8883347441570356	15339346.48702391
0.8885568278430749	15818562.006092452
0.8887789670500358	15824982.505864324
0.8890011617917983	15495931.299049616
0.8892234120822464	15166797.829433056
0.8894457179352669	14837582.076449357
0.8896680793647509	14508284.019527152
0.8898904963845921	14203819.430181472
0.8901129690086883	13946818.711852761
0.8903354972509405	13689753.743344534
0.8905580811252535	13432624.508593978
0.8907807206455347	13175430.991535082
0.8910034158256963	12897272.529755479
0.8912261666796527	12432256.207206877
0.8914489732213227	11967123.630577506
0.8916718354646282	11501874.77080352
0.8918947534234944	11036509.598815044
0.8921177271118502	10571028.085533857
0.8923407565436284	10188900.618964389
0.8925638417327644	9820293.915223664
0.8927869826931977	9451595.059806881
0.8930101794388711	9082804.029676268
0.8932334319837308	8713920.801788181
0.8934567403417267	8584680.239150677
0.8936801045268123	8604374.377655247
0.8939035245529441	8624073.439694433
0.8941270004340824	8643777.426499134
0.894350532184191	8663486.33930053
0.8945741198172371	9122125.760139057
0.8947977633471915	10308785.559928235
0.8950214627880284	11495742.024667311
0.8952452181537254	12682995.228521869
0.8954690294582639	13870545.2456781
0.8956928967156286	14931036.229852822
0.8959168199398075	15165297.780610923
0.8961407991447926	15399617.896756774
0.8963648343445789	15633996.592931654
0.896588925553165	15868433.883780448
0.8968130727845534	16102929.783951981
0.8970372760527496	16019511.75763831
0.8972615353717629	15896288.107375763
0.8974858507556059	15773033.651200637
0.8977102222182949	15649748.3814115
0.8979346497738496	15526432.290304849
0.8981591334362931	15901050.638187597
0.8983836732196523	16548088.136804223
0.8986082691379572	17195287.39479508
0.8988329212052417	17842648.452600434
0.8990576294355432	18490171.350670796
0.8992823938429022	18693832.780972596
0.8995072144413631	18237338.834146943
0.8997320912449734	17780730.763834745
0.8999570242677847	17324008.541505076
0.9001820135238516	16867172.138619795
0.9004070590272328	16535380.681574859
0.9006321607919896	16859633.266566478
0.9008573188321878	17183966.914704677
0.9010825331618959	17508381.646254756
0.9013078037951865	17832877.481487773
0.9015331307461353	18157454.440679427
0.9017585140288219	19082438.3468039
0.9019839536573292	20059361.116333555
0.9022094496457435	21036528.116554886
0.9024350020081551	22013939.408527378
0.9026606107586572	22991595.05332255
0.902886275911347	23608541.229137838
0.9031119974803249	24051636.745229274
0.9033377754796951	24494843.03519974
0.903563609923565	24938160.126742497
0.903789500826046	25381588.047558438
0.9040154482012526	25169659.70546614
0.904241452063303	24108577.959388826
0.9044675124263188	23047230.942875233
0.9046936293044254	21985618.589607675
0.9049198027117517	20923740.833251275
0.9051460326624297	20216419.848917894
0.9053723191705955	21019837.682897516
0.9055986622503881	21823456.371334873
0.9058250619159507	22627275.964444377
0.9060515181814298	23431296.512452655
0.9062780310609752	24235518.065597378
0.9065046005687405	24438111.791622885
0.906731226718883	24607181.912042677
0.9069579095255627	24776294.299992353
0.907184649002944	24945448.966039028
0.907411445165195	25114645.920752387
0.9076382980264862	25576253.937065225
0.907865207600993	26159397.560898688
0.9080921739028933	26742686.970637936
0.9083191969463691	27326122.202729527
0.9085462767456058	27909703.293629427
0.9087734133147922	28120663.32522233
0.9090006066681211	27901125.643749893
0.909227856819788	27681533.077857375
0.9094551637839932	27461885.613823082
0.9096825275749393	27242183.23792285
0.9099099482068329	27108209.951428354
0.9101374256938848	27279081.048382677
0.9103649600503083	27449994.863111157
0.9105925512903209	27620951.406293288
0.9108201994281437	27791950.688611396
0.9110479044780008	27962992.720749885
0.9112756664541204	28376911.36115299
0.911503485370734	28796491.90518076
0.9117313612420768	29216177.34434454
0.9119592940823873	29635967.70486798
0.912187283905908	30055863.012981687
0.9124153307268845	29548565.78047946
0.9126434345595664	28704586.927920975
0.9128715954182063	27860397.080650143
0.9130998133170609	27015996.185917072
0.9133280882703902	26171384.19096037
0.913556420292458	25481418.78437591
0.9137848093975312	24950987.96165226
0.9140132555998806	24420424.531222995
0.9142417589137806	23889728.459936094
