#wavelength	surface flux
0.676892	75342.22333337674
0.678297	77197.7026952167
0.679702	79060.3272409837
0.681109	80941.14789984662
0.682517	82856.80875345584
0.683926	84793.15161919089
0.685337	86742.8581619846
0.686749	88726.58848900326
0.688164	90725.18365689756
0.689581	92672.50549965544
0.691	94205.34672713108
0.692422	95081.55954413347
0.693847	97737.29834783117
0.695274	100789.53990083272
0.696705	103251.55719786214
0.698139	105333.2712919988
0.699576	107529.41835520117
0.701017	109637.55424987087
0.702461	111492.92713800009
0.70391	114310.53744485663
0.705362	117109.10899328606
0.706819	119341.7958943506
0.70828	121650.83607488293
0.709745	123943.95375622918
0.711216	126723.35973368125
0.71269	129211.62563287081
0.71417	131528.79403009004
0.715655	132884.14210393638
0.717145	133345.16676192186
0.71864	137131.45055776753
0.72014	139978.41303641323
0.721647	142125.07411967497
0.723158	143975.5709482587
0.724676	145481.76547951362
0.726199	147312.98809357308
0.727728	150119.09085809186
0.729264	150984.2242194188
0.730805	153627.18772056443
0.732353	157603.27653977636
0.733907	159573.97186684838
0.735468	161756.4896530687
0.737035	163440.53158019128
0.738609	165755.56843663767
0.74019	167283.5344718295
0.741777	166976.89146165267
0.743372	167107.1999889173
0.744973	167012.56367842967
0.746582	165266.92816337166
0.748197	162411.8034726758
0.74982	157992.91488848717
0.751451	151429.70184210117
0.753088	142092.06294597787
0.754734	129717.28228730746
0.756386	113756.30349738438
0.758047	93475.69566389598
0.759715	70082.98548515202
0.76139	44660.96360255026
0.763074	21284.194670531582
0.764765	6317.171119803241
0.766464	1068.4104501741801
0.768172	1422.5496432382524
0.769887	1677.0026792056287
0.77161	11912.436432812345
0.773341	37527.46222981934
0.775081	71668.15988755833
0.776829	106323.12132128123
0.778585	128053.65042855102
0.780349	143579.2726686458
0.782121	188645.97563957426
0.783902	219666.38102637703
0.785691	241638.7220168579
0.787489	260676.95053342803
0.789295	276964.69914570206
0.79111	289514.2465701654
0.792933	252583.450858595
0.794764	145007.0173573198
0.796604	289153.63649020094
0.798453	343439.4293027103
0.80031	356690.0089549641
0.802176	368177.6677617079
0.804051	379085.9396168473
0.805934	389957.68312096025
0.807826	399402.4824208356
0.809727	403672.3126078514
0.811636	407948.17273622093
0.813554	415930.1244016612
0.81548	436814.36418269755
0.817416	449422.5148731735
0.81936	461099.8432334626
0.821313	470004.9543732566
0.823274	474572.089401774
0.825244	492708.79338619806
0.827223	503540.2820256002
0.829211	509514.240867535
0.831208	517515.0651363493
0.833213	533032.3546630621
0.835227	542949.7875762813
0.837249	548052.5745562831
0.83928	561344.903838093
0.841321	582793.7136649694
0.843369	600368.5411902638
0.845427	613592.2408848976
0.847493	627892.7585180559
0.849567	639950.7267696732
0.851651	647739.9977615488
0.853742	665622.088896685
0.855843	684232.3168716722
0.857952	698645.1201865099
0.86007	712232.6677986429
0.862196	721716.7048251152
0.864331	736535.8180809802
0.866474	752849.2623625498
0.868626	767484.2287161534
0.870786	785109.6879971345
0.872955	801355.9245362711
0.875132	812566.8833832251
0.877317	826973.2692103214
0.879511	834610.5405837605
0.881713	846842.7936503874
0.883923	859018.2957915405
0.886142	869444.0230942087
0.888369	879541.9309222065
0.890604	889845.801063341
0.892847	871178.0808621603
0.895099	880758.1297837148
0.897358	918811.5726886563
0.899626	965248.6424192095
0.901901	993034.9572688175
0.904185	1024758.1116418845
0.906476	1037355.2111387339
0.908776	1055884.748232403
0.911083	1087731.9375251094
0.913398	1090931.9907807508
0.915721	1095702.4923806225
0.918051	1089232.3979052047
0.92039	1154459.618960681
0.922736	1168486.7853128773
0.925089	1111845.1837444918
0.927451	963652.5933617142
0.929819	778156.8600190532
0.932195	908661.4012623844
0.934579	897145.3333791597
0.93697	975198.1120022798
0.939369	1110675.9710534688
0.941774	1130121.7139588634
0.944187	981440.385060282
0.946607	933637.1984116244
0.949035	1092438.95265804
0.951469	1071490.7382133834
0.953911	1110255.7127397393
0.956359	1303222.5524134513
0.958814	1119507.1611215726
0.961277	1048106.3564702027
0.963746	1094467.4679198
0.966222	1135069.2335680625
0.968705	1142107.9345344712
0.971194	1400339.8240473936
0.97369	1510058.6486123628
0.976193	1470931.9409623886
0.978702	1562509.2881271343
0.981217	1591906.2033591676
0.983739	1644660.9828734389
0.986268	1678236.4161988292
0.988802	1752818.389458324
0.991343	1823412.689360364
0.99389	1854485.184770895
0.996444	1913816.5687840034
0.999003	1954996.341984183
1.00157	1981221.731188074
1.00414	2018895.3631801775
1.00672	2070229.9135086592
1.0093	2113538.604011009
1.01189	2156632.1639387077
1.01448	2210273.148221408
1.01708	2249508.005350496
1.01969	2285189.747218532
1.0223	2313735.3110677707
1.02492	2308187.8693092703
1.02754	2358376.801538861
1.03017	2330435.837509846
1.0328	2454607.6083506234
1.03544	2506586.8341246536
1.03808	2547066.415882372
1.04073	2587843.50164559
1.04339	2627433.792356249
1.04604	2665152.0590659315
1.04871	2689081.9247594993
1.05138	2721189.4930407996
1.05405	2772494.153200755
1.05673	2820208.054723047
1.05941	2861150.1249727854
1.0621	2898914.403511288
1.06479	2938353.41548159
1.06749	2975623.994994026
1.07019	2998511.7950935457
1.07289	3044465.5832027327
1.0756	3095059.8130076686
1.07832	3128654.7542771967
1.08104	3175397.7180643426
1.08376	3221941.9783848277
1.08649	3246773.6823484106
1.08922	3242122.559577884
1.09195	3233317.351403865
1.09469	3225501.234859762
1.09743	3255007.7259138813
1.10018	2767218.138620504
1.10293	2305397.7312995964
1.10568	1978550.9293190814
1.10844	2646163.979144624
1.1112	2417730.553799732
1.11396	1981876.3121430117
1.11673	1942298.9233822657
1.1195	1971618.7078502583
1.12228	1579360.551273797
1.12505	2171320.2518485226
1.12783	2191173.181247325
1.13062	2282036.3711388703
1.13341	1367121.4914933348
1.1362	2042863.011877567
1.13899	2775771.5687222704
1.14178	2576680.1556089832
1.14458	2913151.4263259703
1.14738	3199710.157994822
1.15019	2262810.8391634244
1.153	1168951.1759798492
1.1558	1473557.9526124431
1.15862	1592302.0466785724
1.16143	1710099.7423144118
1.16425	2323962.907840935
1.16707	2975585.378856491
1.16989	2645561.6761237755
1.17271	2922842.4580854625
1.17554	3518257.5654219873
1.17837	3917679.169895183
1.1812	4061981.5224692714
1.18403	4398623.503890913
1.18686	4409443.010123447
1.1897	4440343.8344166735
1.19253	4748184.477706171
1.19537	4909503.495666091
1.19822	5008789.635982195
1.20106	5118492.117667815
1.2039	5089319.666254489
1.20675	5221124.973512797
1.2096	5298515.425674926
1.21245	5322594.925469489
1.2153	5459833.999717132
1.21815	5550030.8193230815
1.221	5621031.725644746
1.22385	5710664.382408984
1.22671	5803789.411134497
1.22957	5863668.131193754
1.23242	5894800.98663074
1.23528	5969423.580190776
1.23814	6055769.538525632
1.241	6122459.625210385
1.24387	6187763.607959183
1.24673	6242466.063850021
1.24959	6290753.802208854
1.25245	6331623.325877742
1.25532	6431312.631204598
1.25818	6505947.2628736235
1.26105	6521714.925492085
1.26392	6562106.8239558535
1.26678	6622098.829200833
1.26965	6650950.363060529
1.27252	6669648.283340112
1.27538	6778338.130235164
1.27825	6810608.87333357
1.28112	6772597.54672448
1.28399	6879564.486277781
1.28686	6841236.338078082
1.28973	6716453.376683874
1.2926	6661157.658436222
1.29546	6813357.836131779
1.29833	6923467.369855485
1.3012	6705397.512595024
1.30407	6702884.914856984
1.30694	6670020.726155758
1.30981	6820972.647311553
1.31267	6634358.678459218
1.31554	6978929.161695957
1.31841	7326371.343962712
1.32128	6894986.729814992
1.32414	6289385.230206921
1.32701	6170219.606284842
1.32987	5145435.19626199
1.33274	3359653.218583432
1.3356	2362260.007963191
1.33847	887119.4228681131
1.34133	296545.33820941526
1.34419	722110.5323415422
1.34705	983657.1462937517
1.34991	492960.1868461775
1.35277	204477.59168875386
1.35563	306844.5511299211
1.35849	333234.3659276413
1.36135	139044.4224901698
1.3642	332409.9435708242
1.36706	348271.16486366844
1.36991	273195.959740886
1.37277	845492.7839511526
1.37562	1668664.0125915282
1.37847	1892910.0912314195
1.38132	717357.8251303555
1.38417	82528.32876062447
1.38701	192984.99990881555
1.38986	149073.7980680394
1.39271	188971.83737146397
1.39555	307894.66519159917
1.39839	239449.4344149516
1.40123	501628.1094998808
1.40407	910424.3468081863
1.40691	1262598.984115334
1.40974	639768.0312475816
1.41258	177328.87163673266
1.41541	479198.3058717279
1.41824	617791.0079351767
1.42107	329665.9944814046
1.4239	220305.96911157924
1.42673	522203.0651699216
1.42955	872357.7255135357
1.43237	580663.9811013582
1.43519	1057728.5235514436
1.43801	716500.3712588863
1.44083	899766.4652708054
1.44365	1455757.64189053
1.44646	1642452.0835395574
1.44927	2992036.5221386896
1.45208	3731180.8016919713
1.45489	2974396.719243375
1.45769	3601567.870697964
1.4605	4044777.9028439433
1.4633	4197530.024416065
1.4661	4425589.780484317
1.4689	3252572.0476705763
1.47169	3417827.709247355
1.47449	3265841.719681851
1.47728	3215371.5011371044
1.48007	3308242.491222845
1.48286	4614542.1438967
1.48564	5667287.480115722
1.48842	5768853.862518942
1.4912	5909902.506041184
1.49398	5639896.690380194
1.49676	4934546.137998473
1.49953	5865544.633687178
1.5023	6886870.927493787
1.50507	6812706.971450793
1.50784	6466688.481280404
1.51061	6801769.103493528
1.51337	7197306.422087016
1.51613	7809795.395511147
1.51888	8433524.646292757
1.52164	9272243.079939509
1.52439	9810844.959322533
1.52714	9508661.098503064
1.52989	9387262.723049277
1.53263	9827993.51591802
1.53538	10303371.971775653
1.53812	10426134.872688878
1.54086	10427954.675146619
1.54359	10479996.517604603
1.54632	10862994.978403678
1.54905	10912304.28423409
1.55178	11274590.042529577
1.5545	11242883.557879934
1.55723	10986622.851389462
1.55995	11112888.186537495
1.56266	11376265.216074716
1.56538	11873866.944568712
1.56809	12147101.05709207
1.5708	12105977.158121653
1.57351	11765122.044456057
1.57621	11391084.125382999
1.57891	10585247.74808339
1.58161	11160906.212090593
1.5843	12397452.96259165
1.587	12657880.345917635
1.58969	12626276.628748113
1.59238	12525509.44900212
1.59506	12279729.655991137
1.59774	12008031.74857694
1.60042	11755628.150187653
1.6031	11780667.879064351
1.60577	11981851.267908713
1.60844	12018079.853050653
1.61111	11779087.323766068
1.61378	11425295.401667258
1.61644	11220932.833918847
1.6191	10831727.206791861
1.62176	10294462.412668806
1.62441	9900248.53283526
1.62707	9483093.924462605
1.62971	8641443.867739849
1.63236	8300152.461398734
1.635	9740107.336422388
1.63764	11757403.751440408
1.64028	12413489.081280252
1.64292	12248046.416897824
1.64555	11309336.63242692
1.64818	9645539.263375487
1.65081	9573438.193460783
1.65343	10963984.150144532
1.65605	11464401.780052908
1.65867	11644310.431023616
1.66128	11351744.87618544
1.6639	9668879.92256017
1.66651	6412786.672690128
1.66911	5983489.855066297
1.67172	8732657.64481549
1.67432	10599940.676254893
1.67692	10433131.296540696
1.67951	9534835.688058592
1.68211	9662616.581886666
1.6847	9805554.134951694
1.68728	9151416.83796863
1.68987	8882661.614013564
1.69245	8331976.805402722
1.69503	6764797.946513646
1.6976	5850239.571312817
1.70018	6726970.047725531
1.70275	6699343.049757579
1.70531	7006163.020569014
1.70788	8107757.023172915
1.71044	8113107.213159308
1.713	8763709.189764563
1.71556	9394719.415824542
1.71811	9782899.527308196
1.72066	10464238.336880205
1.72321	10339877.691106316
1.72575	10007364.55880867
1.7283	9799295.307038905
1.73084	9414153.929145494
1.73337	8913887.399745572
1.73591	8579422.483044999
1.73844	8594949.468747929
1.74097	8782546.666936273
1.74349	8412430.362020642
1.74602	7808376.142654639
1.74854	7519294.388919457
1.75105	6872994.310068226
1.75357	5891890.521795402
1.75608	6711082.371494533
1.75859	8522011.810902633
1.7611	9058174.790150056
1.7636	8592981.387705835
1.7661	7111615.618797251
1.7686	5921674.613763959
1.7711	4634246.316704642
1.77359	3281236.110922507
1.77608	2006382.6975711628
1.77857	1438314.1575131118
1.78105	1761622.256681539
1.78354	2113652.0503957705
1.78602	1643391.3709222353
1.78849	1205340.2821944798
1.79097	1591333.7159166331
1.79344	2261561.3952823244
1.79591	3024151.7922053067
1.79837	3907445.314679666
1.80084	2466749.216006478
1.8033	1045874.8898523857
1.80576	476931.51476625603
1.80821	315055.141512271
1.81067	976361.7325626415
1.81312	1526146.5638790112
1.81557	814978.1998418613
1.81801	425154.77865841804
1.82046	1071568.9270727695
1.8229	1634563.7674863157
1.82533	1083733.6176767056
1.82777	349804.12686216715
1.8302	208630.67421471188
1.83263	423667.99812128907
1.83506	757934.9581393525
1.83749	1259730.0107874211
1.83991	1500173.3402846386
1.84233	1176477.3429580054
1.84475	1086530.564739663
1.84716	1300199.1220689341
1.84957	1733240.72116488
1.85198	1740242.4226482704
1.85439	889282.090646375
1.8568	597067.9893075199
1.8592	779159.052845314
1.8616	586646.5954309126
1.864	283294.3789028319
1.86639	226011.40215435778
1.86878	366129.17786245915
1.87118	706725.3382090578
1.87356	1151227.37552656
1.87595	1465643.3079027855
1.87833	2419470.569992712
1.88071	3977940.184706778
1.88309	3898100.729421444
1.88547	2926896.8916363684
1.88784	2581791.6208054433
1.89021	2330918.869770425
1.89258	3765101.6532641286
1.89494	4875367.319585452
1.89731	3079396.795841689
1.89967	1090352.686195306
1.90203	304500.7997735716
1.90439	267687.0533689408
1.90674	472765.77151359175
1.90909	517378.0452927447
1.91144	325527.73098859284
1.91379	144592.63979093687
1.91613	134313.3586199563
1.91848	259045.20789056874
1.92082	408880.0368482209
1.92315	403595.61742592626
1.92549	289393.63986511104
1.92782	335208.38242146804
1.93015	516549.22073520836
1.93248	683326.0884827944
1.93481	721114.6236352813
1.93713	630597.042525389
1.93945	669959.1474728455
1.94177	917674.6784266123
1.94409	1097865.5489866608
1.94641	1147061.778589279
1.94872	1450473.1398066639
1.95103	1809966.1925173467
1.95334	1186200.3939894615
1.95564	787629.4446540836
1.95795	928101.8088564564
1.96025	970911.3304840028
1.96255	997870.7000563866
1.96484	1235872.1956665772
1.96714	1860954.6224809252
1.96943	2713549.2772684125
1.97172	3216289.7962927567
1.97401	2928989.032189032
1.97629	3138266.1814994225
1.97858	3982380.032500514
1.98086	4506756.097081327
1.98314	5085915.503183531
1.98541	5441008.910305057
1.98769	5003089.846022658
1.98996	3926802.132315423
1.99223	3787472.9907229994
1.9945	4582249.615673423
1.99677	4346827.786945092
1.99903	4235796.450627098
2.00129	5160466.795022322
2.00355	6519465.219546793
2.00581	7341362.140787692
2.00806	7676349.168457287
2.01031	9008780.463963097
2.01256	9552429.365712436
2.01481	8656504.123940464
2.01706	7657184.615693568
2.0193	7709577.864977709
2.02154	8951632.468444783
2.02378	10198980.435509885
2.02602	10435900.020405209
2.02825	10835093.98700689
2.03049	11388018.876332399
2.03272	11961414.4902303
2.03494	12453864.37544067
2.03717	12857476.30634893
2.03939	13230174.420535143
2.04162	13929952.872617766
2.04384	14585468.043595193
2.04605	15239065.49047137
2.04827	15751222.451693743
2.05048	15653742.946820391
2.05269	14853904.865939287
2.0549	14688693.227112079
2.05711	15057295.651543014
2.05931	15610544.594948865
2.06151	16032154.694060665
2.06371	16360750.529849337
2.06591	16570122.251815522
2.06811	16730889.74490523
2.0703	16826180.481853623
2.07249	16812081.133131377
2.07468	16611545.262083387
2.07686	16554340.734362382
2.07905	16671795.75564487
2.08123	16793087.948836755
2.08341	16838409.64545012
2.08559	16831282.58674951
2.08776	16887847.02806642
2.08994	16850794.67436824
2.09211	16712795.491884949
2.09428	16544080.825414423
2.09645	16549439.849463489
2.09861	16521190.76534761
2.10077	16435505.00918455
2.10293	16306429.59781182
2.10509	16152032.208294125
2.10725	15993224.688029712
2.1094	16066809.592671266
2.11155	16112965.663631579
2.1137	16003052.127002142
2.11585	15619164.25275323
2.11799	15338689.239953347
2.12013	15196116.376750687
2.12227	15180369.525218574
2.12441	15266242.755687825
2.12655	15338612.015895976
2.12868	15325302.642187634
2.13081	15325838.45971884
2.13294	15325593.877054026
2.13507	15078197.15131815
2.13719	14625297.092068726
2.13931	14238886.008869795
2.14143	13896497.823157938
2.14355	13334587.470328154
2.14567	13041543.780965826
2.14778	12819387.249713525
2.14989	12560505.399156936
2.152	12072379.666644271
2.1541	12227814.630116696
2.15621	12436711.501346389
2.15831	12454855.167419298
2.16041	11807080.206968945
2.16251	11494010.389742833
2.1646	11310646.706294497
2.1667	11235997.649853414
2.16879	11417817.460897338
2.17087	11615443.88513874
2.17296	11747477.217847332
2.17504	11768149.935227774
2.17713	11605103.21693442
2.1792	11291102.579614552
2.18128	10871632.69729128
2.18336	10381709.377795808
2.18543	9864952.154288698
2.1875	9327625.772554085
2.18957	8702300.836485935
2.19163	7699645.407690551
2.1937	6262106.00861679
2.19576	4800316.1907045245
2.19782	3502698.440151215
2.19987	2860976.858266888
2.20193	2529269.836143671
2.20398	2455310.7807127615
2.20603	2555483.8080961946
2.20808	2805136.4169830326
2.21012	3117947.2395094726
2.21217	3466250.26479093
2.21421	3620522.273888281
2.21625	3569941.742279094
2.21828	3342180.204849499
2.22032	3214687.9597668
2.22235	3124574.301824499
2.22438	2991780.9581704
2.22641	2633320.7897763704
2.22843	2234867.4071208662
2.23046	1889883.857022371
2.23248	1679889.2178359418
2.2345	1613202.8055990795
2.23651	1563890.875160263
2.23853	1513837.5659396353
2.24054	1343552.5647849212
2.24255	1151539.4110113687
2.24456	955820.018756037
2.24657	988326.3359948411
2.24857	1134950.3019739666
2.25057	1341742.4699385804
2.25257	1419331.5914261625
2.25457	1489877.1204596784
2.25656	1555993.1755433718
2.25856	1621332.1567742554
2.26055	1524163.9280703415
2.26254	1346233.3933357133
2.26453	1145186.6844419888
2.26651	1029670.3177634405
2.2685	985812.8981090686
2.27048	1080922.6660721714
2.27246	1221642.832978346
2.27443	1353702.0807163217
2.27641	1375627.5873949297
2.27838	1313961.3056171665
2.28036	1219413.1575770976
2.28233	1152983.1175378778
2.28429	1097719.3468291597
2.28626	1044431.8526437426
2.28823	969769.3304658238
2.29019	932530.0530318657
2.29215	924253.8900918054
2.29411	977872.5041258127
2.29607	1030553.1953563112
2.29802	1082255.4234097952
2.29998	1147185.454252288
2.30193	1289318.794629131
2.30388	1520063.089522407
2.30583	1969810.6381581607
2.30778	2422576.693434301
2.30972	2844880.70180615
2.31167	2817133.1377261463
2.31361	2526525.352554793
2.31555	1769419.9729910218
2.31749	1191359.6920362932
2.31943	752009.811148823
2.32137	727325.013508022
2.32331	728556.5297880883
2.32524	750312.3862122961
2.32718	734021.0540752814
2.32911	724850.8899979073
2.33104	726696.1172622506
2.33297	717670.4552050731
2.3349	703995.7126154505
2.33683	683100.2205426132
2.33876	661734.8759527085
2.34068	638608.926751185
2.34261	590809.3757992167
2.34453	546280.2725983601
2.34646	504962.9090353965
2.34838	533542.2246764242
2.3503	600732.6055162422
2.35223	745826.636898917
2.35415	888704.691223174
2.35607	1028231.2824294949
2.35799	1128212.0029463943
2.35991	1226141.317846543
2.36183	1321594.7983816273
2.36375	1271092.2942802536
2.36566	1147421.9501575509
2.36758	862071.7099234392
2.3695	630897.4027977949
2.37142	434451.25792120845
2.37334	456081.3662920539
2.37526	495265.087321966
2.37718	561801.8953033041
2.3791	630127.9105222892
2.38101	704072.2152725289
2.38293	817913.1000530988
2.38485	924313.8985616874
2.38677	1023117.9774030718
2.3887	1005573.5470296104
2.39062	971228.3786227779
2.39254	938143.7756930747
2.39446	950935.9427995208
2.39639	993356.0893319196
2.39831	1047297.5402967846
2.40024	1072708.4251893875
2.40216	1043615.752695488
2.40409	1068961.648425522
2.40602	1130430.6855635191
2.40795	1355765.846175547
2.40989	1555111.9619347379
2.41182	1720203.205107662
2.41376	1800141.8783304242
2.4157	1883556.9763418646
2.41764	2068237.6814737855
2.41958	2191428.538580231
2.42152	2264622.9771986892
2.42347	2043052.7253907146
2.42542	1868605.8860288637
2.42737	1876608.5071205376
