#wavelength	surface flux
0.8	10231.655204928258
0.8002000000000001	10259.959590309205
0.8004000500000003	10290.757738494187
0.8006001500125003	10321.58870420034
0.8008003000500035	10352.427377647922
0.8010005001250161	10383.27376076388
0.8012007502500472	10414.127855475572
0.8014010504376099	10443.302624472008
0.8016014007002193	10471.919580556556
0.8018018010503944	10500.543690880126
0.8020022515006572	10529.17495723129
0.8022027520635323	10557.813381399015
0.8024033027515483	10586.682681502689
0.8026039035772362	10615.778432215804
0.8028045545531306	10644.8814568666
0.8030052556917691	10673.991757273572
0.803206007005692	10703.10933525562
0.8034068085074435	10732.820840085293
0.8036076602095705	10764.184231654403
0.8038085621246229	10795.55546407138
0.8040095142651542	10826.934539296479
0.8042105166437206	10858.321459290375
0.8044115692728815	10889.702952613401
0.8046126721651998	10920.521378952806
0.8048138253332411	10951.34750989877
0.8050150287895745	10982.181347377498
0.805216282546772	11013.022893315589
0.8054175866174087	11043.872149640149
0.8056189410140631	11074.621733889684
0.8058203457493168	11105.34860878841
0.8060218008357541	11136.083165405824
0.8062233062859632	11166.825405662405
0.8064248621125346	11197.57533147903
0.806626468328063	11229.350820167625
0.8068281249451449	11262.008484552107
0.8070298319763813	11294.674313352723
0.8072315894343755	11327.348308610517
0.8074333973317341	11360.030472367138
0.8076352556810671	11391.314071827748
0.8078371644949874	11419.219246536988
0.8080391237861113	11447.131397539912
0.8082411335670578	11475.05052658057
0.8084431938504498	11502.976635403516
0.8086453046489125	11530.775856353814
0.8088474659750746	11556.089618722977
0.8090496778415686	11581.409709532765
0.809251940261029	11606.73613036524
0.8094542532460944	11632.068882802942
0.8096566168094059	11657.407968428726
0.8098590309636085	11684.0667294797
0.8100614957213493	11711.039553324721
0.8102640110952797	11738.019120375708
0.8104665770980536	11765.005432318467
0.8106691937423283	11791.998490839222
0.8108718610407639	11820.016895547627
0.8110745790060241	11848.821173226459
0.8112773476507757	11877.632651974736
0.8114801669876885	11906.451333592691
0.8116830370294355	11935.277219881036
0.8118859577886929	11963.09119576047
0.8120889292781401	11988.795374809302
0.8122919515104597	12014.505979902897
0.8124950244983374	12040.223012647764
0.8126981482544621	12065.946474650815
0.8129013227915257	12092.038591480336
0.8131045481222237	12122.284751070689
0.8133078242592543	12152.538472200942
0.8135111512153191	12182.799756761471
0.813714529003123	12213.068606643144
0.8139179576353739	12243.345023737293
0.8141214371247829	12294.8554545133
0.8143249674840641	12350.494927525539
0.814528548725935	12406.148310405995
0.8147321808631167	12461.81560663225
0.8149358639083326	12517.496819682543
0.8151395978743097	12562.689546497655
0.8153433827737784	12600.797704994184
0.8155472186194719	12638.915390530325
0.8157511054241268	12677.04260548784
0.815955043200483	12715.179352249123
0.8161590319612831	12751.769143937086
0.8163630717192736	12785.516006232272
0.8165671624872033	12819.271305242992
0.8167713042778252	12853.035043078498
0.8169754971038948	12886.80722184848
0.8171797409781707	12919.791394250791
0.8173840359134155	12946.42551036994
0.8175883819223938	12973.066285018087
0.8177927790178745	12999.713719859912
0.8179972272126291	13026.367816560454
0.8182017265194322	13053.028576785146
0.8184062769510622	13097.152441372344
0.8186108785203001	13143.973624546086
0.8188155312399301	13190.80651301556
0.8190202351227402	13237.651109707203
0.819224990181521	13284.50741754799
0.8194297964290664	13322.982493538926
0.8196346538781738	13356.408355028929
0.8198395625416434	13389.84257298429
0.8200445224322789	13423.285149494153
0.820249533562887	13456.736086648136
0.8204545959462778	13491.664679212221
0.8206597095952644	13528.966790820456
0.8208648745226633	13566.278227956624
0.8210700907412941	13603.598992952067
0.8212753582639793	13640.929088138724
0.8214806771035456	13675.078135066966
0.8216860472728215	13689.579086652811
0.8218914687846397	13704.083663476553
0.822096941651836	13718.591866444509
0.822302465887249	13733.103696463199
0.8225080415037209	13747.6191544394
0.8227136685140968	13788.429865081796
0.8229193469312254	13832.235427195637
0.8231250767679583	13876.051940700021
0.8233308580371503	13919.879408332758
0.8235366907516598	13963.717832832433
0.8237425749243477	14010.863390532291
0.8239485105680789	14059.767764571308
0.824154497695721	14108.684364703802
0.824360536320145	14157.61319398634
0.8245666264542252	14206.554255476196
0.8247727681108388	14252.577355859801
0.8249789613028664	14294.41536931399
0.8251852060431922	14336.26384227158
0.825391502344703	14378.122777347391
0.8255978502202894	14419.99217715701
0.8258042496828445	14461.610214562848
0.8260107007452654	14501.967061840198
0.8262172034204517	14542.333998329324
0.8264237577213068	14582.711026552586
0.8266303636607373	14623.09814903292
0.8268370212516525	14663.495368293854
0.8270437305069654	14692.868454104153
0.8272504914395923	14721.38662960917
0.8274573040624523	14749.91193465807
0.8276641683884679	14778.444371033207
0.8278710844305652	14806.983940517472
0.8280780522016729	14844.930808027992
0.8282850717147234	14887.183959416368
0.8284921429826521	14929.447674092547
0.8286992660183978	14971.72195469743
0.8289064408349024	15014.006803872433
0.8291136674451112	15051.904023653473
0.8293209458619727	15084.264807165953
0.8295282760984382	15116.633680874269
0.829735658167463	15149.010646801049
0.8299430920820048	15181.39570696927
0.8301505778550254	15213.614769071217
0.8303581154994891	15245.14702448084
0.8305657050283641	15276.687162954348
0.8307733464546212	15308.23518646245
0.8309810397912352	15339.79109697648
0.8311887850511829	15371.354896468076
0.8313965822474458	15428.820292072705
0.8316044313930077	15487.501917854015
0.8318123325008561	15546.198214041826
0.8320202855839813	15604.909184303655
0.8322282906553774	15663.634832308053
0.8324363477280413	15708.151744812681
0.8326444568149735	15746.953489075051
0.8328526179291771	15785.76493377344
0.8330608310836596	15824.586081333062
0.8332690962914304	15863.416934179524
0.8334774135655034	15900.933002315454
0.833685782918895	15936.978947935693
0.8338942043646247	15973.033905042315
0.834102677915716	16009.097875888241
0.834311203585195	16045.170862726847
0.8345197813860912	16085.782445436807
0.8347284113314379	16141.651162915265
0.8349370934342709	16197.53384757306
0.8351458277076294	16253.430502901952
0.8353546141645565	16309.34113239477
0.8355634528180977	16365.265739544937
0.8357723436813022	16377.757577432234
0.8359812867672226	16389.716081614268
0.8361902820889144	16401.67757542234
0.8363993296594368	16413.642059603873
0.8366084294918518	16425.60953490645
0.8368175815992247	16470.072781694715
0.8370267859946247	16525.73799133306
0.8372360426911234	16581.4171172738
0.8374453517017962	16637.110162996018
0.8376547130397217	16692.81713197966
0.8378641267179816	16742.79077971934
0.8380735927496613	16787.07415686666
0.8382831111478488	16831.368604858246
0.8384926819256358	16875.674126461803
0.8387023050961173	16919.990724445797
0.8389119806723914	16963.857431291453
0.8391217086675596	17006.43778379719
0.8393314890947265	17049.028781391025
0.8395413219670003	17091.630426734257
0.8397512072974922	17134.24272248886
0.8399611450993165	17177.229470223818
0.8401711353855914	17238.29308832639
0.8403811781694378	17299.371972333473
0.8405912734639802	17360.466126061572
0.8408014212823464	17421.57555332813
0.8410116216376671	17482.7002579515
0.8412218745430766	17539.711966591058
0.8414321800117124	17595.53675880891
0.8416425380567154	17651.375507224846
0.8418529486912297	17707.228215327897
0.8420634119284025	17763.094886607927
0.8422739277813847	17812.201417989938
0.8424844962633302	17855.3519752597
0.842695117387396	17898.51332016872
0.8429057911667428	17941.68545541397
0.8431165176145345	17984.868383693058
0.8433272967439382	18029.144217531495
0.8435381285681244	18076.07068626637
0.8437490131002665	18123.008886618412
0.8439599503535415	18169.958821520515
0.84417094034113	18216.92049390638
0.8443819830762154	18263.970954235603
0.8445930785719846	18312.585306163426
0.8448042268416277	18361.2118116792
0.8450154278983382	18409.85047382135
0.8452266817553128	18458.50129562903
0.8454379884257517	18507.16428014217
0.8456493479228583	18557.37941789908
0.845860760259839	18607.97795693808
0.846072225449904	18658.58914561184
0.8462837435062666	18709.21298708278
0.8464953144421433	18759.84948451412
0.8467069382707537	18808.576393494754
0.8469186150053215	18855.817151253632
0.847130344659073	18903.069719201965
0.8473421272452377	18950.33410029224
0.8475539627770492	18997.610297477833
0.8477658512677435	19046.07872927603
0.8479777927305605	19097.065735191318
0.8481897871787432	19148.06548785807
0.848401834625538	19199.07799046302
0.8486139350841944	19250.10324619359
0.8488260885679657	19301.07070687211
0.8490382950901076	19351.190913309303
0.8492505546638802	19401.323649798134
0.8494628673025462	19451.468919471074
0.8496752330193721	19501.6267254615
0.8498876518276269	19551.797070903358
0.8501001237405839	19600.354344651394
0.8503126487715191	19648.59925655717
0.850525226933712	19696.856229690893
0.8507378582404455	19745.1252670679
0.8509505427050057	19793.406371704277
0.8511632803406821	19843.48486391561
0.8513760711607672	19894.79849117806
0.8515889151785576	19946.124946847398
0.8518018124073523	19997.464234130613
0.8520147628604541	20048.816356235617
0.8522277665511693	20100.891285838887
0.8524408234928071	20154.292236886085
0.8526539336986805	20207.706538171064
0.8528670971821053	20261.13419303136
0.8530803139564007	20314.575204805315
0.8532935840348901	20368.048196179563
0.8535069074308987	20421.691805703664
0.8537202841577566	20475.348826130194
0.8539337142287962	20529.019260811834
0.8541471976573534	20582.70311310211
0.8543607344567677	20636.40038635547
0.8545743246403821	20690.70557667031
0.8547879682215422	20745.11875552503
0.8550016652135977	20799.545537674458
0.8552154156299011	20853.985926519425
0.8554292194838088	20908.439925461644
0.8556430767886797	20961.977849267612
0.855856987557877	21014.96467516938
0.8560709518047664	21067.964747777594
0.8562849695427177	21120.978070403977
0.8564990407851035	21174.00464636103
0.8567131655452999	21227.308221767256
0.8569273438366862	21281.057274455507
0.8571415756726455	21334.81976440694
0.8573558610665638	21388.59569498088
0.8575702000318304	21442.385069537402
0.8577845925818384	21496.297610588055
0.857999038729984	21550.90897600865
0.8582135384896665	21605.533994270583
0.858428091874289	21660.17266878709
0.8586426988972576	21714.825002972208
0.8588573595719821	21769.491000240894
0.8590720739118751	21824.185619736247
0.8592868419303532	21878.895676211432
0.8595016636408359	21933.619410200736
0.8597165390567462	21988.35682512352
0.8599314681915105	22043.107924400047
0.8601464510585584	22097.87714027113
0.860361487671323	22152.66239923279
0.8605765780432408	22207.46135450918
0.8607917221877518	22262.274009524433
0.8610069201182988	22317.100367703424
0.8612221718483286	22371.274353248038
0.8614374773912907	22424.50163894709
0.8616528367606385	22477.742231467557
0.8618682499698288	22530.99613413619
0.8620837170323213	22584.263350280475
0.8622992379615795	22638.390119585452
0.8625148127710699	22696.718120102978
0.8627304414742627	22755.060702620638
0.8629461240846313	22813.417870783935
0.8631618606156526	22871.78962823928
0.8633776510808066	22930.175978633975
0.8635934954935769	22986.59826215871
0.8638093938674504	23042.872456632012
0.8640253462159173	23099.16071965393
0.8642413525524714	23155.4630547416
0.8644574128906095	23211.779465413034
0.8646735272438323	23270.052191901632
0.8648896956256433	23329.2426804609
0.8651059180495498	23388.447966642307
0.8653221945290621	23447.668054145204
0.8655385250776946	23506.902946670063
0.8657549097089641	23566.841722173624
0.8659713484363913	23627.677648894227
0.8661878412735006	23688.52878459654
0.866404388233819	23749.39513308277
0.8666209893308775	23810.276698156093
0.8668376445782103	23870.56467068192
0.8670543539893549	23928.38284053956
0.8672711175778525	23986.215464939705
0.8674879353572469	24044.062547495883
0.8677048073410862	24101.924091822722
0.8679217335429217	24159.80010153568
0.8681387139763074	24216.144719190757
0.8683557486548015	24272.42662856122
0.8685728375919655	24328.722608409098
0.8687899808013633	24385.032662251815
0.8690071782965637	24441.356793608065
0.869224430091138	24505.195418828345
0.8694417361986609	24572.101912204307
0.8696590966327107	24639.025132203602
0.869876511406869	24705.965083007897
0.8700939805347206	24772.921768799864
0.8703115040298544	24839.40929341052
0.870529081905862	24905.357915233424
0.8707467141763385	24971.323024211757
0.8709644008548827	25037.30462446733
0.8711821419550964	25103.30272012293
0.8713999374905854	25168.707463592982
0.871617787474958	25232.023748404263
0.8718356919218269	25295.355862286808
0.8720536508448075	25358.703809197825
0.8722716642575187	25422.067593095533
0.8724897321735832	25485.447217939243
0.8727078546066265	25547.677459040537
0.8729260315702784	25609.90553075205
0.873144263078171	25672.149159481425
0.8733625491439405	25734.408349117988
0.8735808897812266	25796.683103551983
0.8737992850036719	25855.559559726516
0.874017734824923	25913.24159947559
0.8742362392586293	25970.938059734577
0.874454798318444	26028.648944108627
0.8746734120180236	26086.374256203762
0.8748920803710283	26145.251070978527
0.875110803391121	26205.285253317463
0.8753295810919689	26265.334444202017
0.875548413487242	26325.39864738429
0.8757673005906139	26385.477866617362
0.8759862424157616	26448.0165450719
0.8762052389763657	26517.643959007954
0.8764242902861098	26587.288779797444
0.8766433963586814	26656.95101179215
0.8768625572077712	26726.630659344875
0.8770817728470732	26796.23893334506
0.8773010432902849	26858.93183975803
0.8775203685511077	26921.640419397696
0.8777397486432454	26984.36467618219
0.8779591835804065	27047.10461403096
0.8781786733763015	27109.860236864108
0.8783982180446457	27169.108265726365
0.878617817599157	27227.32299579526
0.8788374720535569	27285.552279546646
0.8790571814215703	27343.796120618954
0.8792769457169257	27402.05452265153
0.879496764953355	27452.328882176556
0.8797166391445934	27495.424537143328
0.8799365683043796	27538.53096602385
0.8801565524464557	27581.648171511584
0.8803765915845676	27624.776156300733
0.8805966857324639	27680.36023806634
0.880816834903897	27767.217116130207
0.881037039112623	27854.095708413624
0.8812572983724012	27940.9960203451
0.8814776126969944	28027.918057354604
0.8816979821001687	28113.52032073308
0.8819184065956938	28167.56475141573
0.8821388861973429	28221.622693206107
0.8823594209188923	28275.69414948188
0.882580010774122	28329.779123621694
0.8828006557768155	28383.877619005078
0.8830213559407598	28444.35792795459
0.8832421112797452	28506.45504629305
0.8834629218075651	28568.56768891106
0.8836837875380171	28630.69585968974
0.8839047084849018	28692.839562511122
0.884125684662023	28759.150406328168
0.8843467160831886	28828.804809098794
0.8845678027622095	28898.476625470114
0.8847889447129001	28968.16585979554
0.8850101419490785	29037.872516429532
0.8852313944845657	29106.691323160536
0.885452702333187	29173.545795220663
0.8856740655087704	29240.416980898794
0.8858954840251476	29307.304884373327
0.8861169578961539	29374.2095098237
0.886338487135628	29439.698694261508
0.886560071757412	29486.14581983497
0.8867817117753515	29532.604557189818
0.8870034072032955	29579.074909229028
0.8872251580550963	29625.556878856198
0.8874469643446101	29672.050468975798
0.8876688260856963	29750.340742771903
0.8878907432922178	29835.22891471056
0.8881127159780409	29920.13830869214
0.8883347441570356	30005.068930022324
0.8885568278430749	30090.02078400775
0.8887789670500358	30172.496005844594
0.8890011617917983	30253.21992326164
0.8892234120822464	30333.964021658074
0.8894457179352669	30414.728306079043
0.8896680793647509	30495.51278157118
0.8898904963845921	30568.340411244673
0.8901129690086883	30625.96584183011
0.8903354972509405	30683.605678773187
0.8905580811252535	30741.25992567554
0.8907807206455347	30798.92858613954
0.8910034158256963	30856.083877246027
0.8912261666796527	30908.53664809211
0.8914489732213227	30961.002532130922
0.8916718354646282	31013.481532640795
0.8918947534234944	31065.973652900746
0.8921177271118502	31118.47889619073
0.8923407565436284	31149.696625145167
0.8925638417327644	31177.447444850684
0.8927869826931977	31205.205202261135
0.8930101794388711	31232.96989911094
0.8932334319837308	31260.74153713495
0.8934567403417267	31285.60975458803
0.8936801045268123	31308.67574078597
0.8939035245529441	31331.747493480445
0.8941270004340824	31354.825014113103
0.894350532184191	31377.90830412591
0.8945741198172371	31456.531324788662
0.8947977633471915	31627.270449283067
0.8950214627880284	31798.052258558593
0.8952452181537254	31968.876763286335
0.8954690294582639	32139.743974140358
0.8956928967156286	32297.132085903926
0.8959168199398075	32366.80777640295
0.8961407991447926	32436.500885824622
0.8963648343445789	32506.211418523646
0.896588925553165	32575.939378855805
0.8968130727845534	32645.684771178054
0.8970372760527496	32711.01188043216
0.8972615353717629	32775.8003236374
0.8974858507556059	32840.60496395344
0.8977102222182949	32905.42580542954
0.8979346497738496	32970.26285211605
0.8981591334362931	33096.11302291863
0.8983836732196523	33255.352434744156
0.8986082691379572	33414.63165642254
0.8988329212052417	33573.95069790634
0.8990576294355432	33733.309569150646
0.8992823938429022	33864.43365738927
0.8995072144413631	33953.54975581438
0.8997320912449734	34042.68813326408
0.8999570242677847	34131.848795308106
0.9001820135238516	34221.03174751765
0.9004070590272328	34307.272066759455
0.9006321607919896	34377.99077828014
0.9008573188321878	34448.72716947878
0.9010825331618959	34519.48124477518
0.9013078037951865	34590.25300859042
0.9015331307461353	34661.04246534658
0.9017585140288219	34741.46821810708
0.9019839536573292	34822.742552138036
0.9022094496457435	34904.037204752436
0.9024350020081551	34985.35218103008
0.9026606107586572	35066.687486051764
0.902886275911347	35173.159523513845
0.9031119974803249	35291.76603138039
0.9033377754796951	35410.40219087391
0.903563609923565	35529.06800940724
0.903789500826046	35647.76349439529
0.9040154482012526	35752.65555286882
0.904241452063303	35839.65426064034
0.9044675124263188	35926.67471808878
0.9046936293044254	36013.71693065158
0.9049198027117517	36100.78090376756
0.9051460326624297	36186.37612398744
0.9053723191705955	36265.64576683321
0.9055986622503881	36344.93522708962
0.9058250619159507	36424.2445097111
0.9060515181814298	36503.57361965328
0.9062780310609752	36582.92256187289
0.9065046005687405	36602.554322072785
0.906731226718883	36618.85843852204
0.9069579095255627	36635.166631000386
0.907184649002944	36651.478900526854
0.907411445165195	36667.79524812072
0.9076382980264862	36779.765653536204
0.907865207600993	36931.487310569595
0.9080921739028933	37083.2468980172
0.9083191969463691	37235.04442536164
0.9085462767456058	37386.87990208799
0.9087734133147922	37507.93664192517
0.9090006066681211	37593.429980366425
0.909227856819788	37678.94469214219
0.9094551637839932	37764.48078259601
0.9096825275749393	37850.03825707242
0.9099099482068329	37939.07289835099
0.9101374256938848	38040.411691211
0.9103649600503083	38141.775818769165
0.9105925512903209	38243.1652873592
0.9108201994281437	38344.5801033165
0.9110479044780008	38446.020272977665
0.9112756664541204	38546.75201394503
0.911503485370734	38647.4921415528
0.9117313612420768	38748.25745419248
0.9119592940823873	38849.047958160285
0.912187283905908	38949.86365975411
0.9124153307268845	38995.83473757859
0.9126434345595664	39021.90276794688
0.9128715954182063	39047.97731532274
0.9130998133170609	39074.05838133546
0.9133280882703902	39100.14596761468
0.913556420292458	39172.17773069111
0.9137848093975312	39291.603683495036
