#wavelength	surface flux
0.8	1244101.0652903044
0.8002000000000001	1250689.4742469995
0.8004000500000003	1257757.2083188756
0.8006001500125003	1264831.5343425192
0.8008003000500035	1271907.628947669
0.8010005001250161	1278985.4925764734
0.8012007502500472	1286065.1256711748
0.8014010504376099	1292005.985198225
0.8016014007002193	1297566.282720596
0.8018018010503944	1303127.9703173477
0.8020022515006572	1308691.048336001
0.8022027520635323	1314255.5171241544
0.8024033027515483	1319848.674082731
0.8026039035772362	1325469.97937886
0.8028045545531306	1331092.6900013133
0.8030052556917691	1336716.806301425
0.803206007005692	1342342.3286306069
0.8034068085074435	1348136.961120169
0.8036076602095705	1354403.1405621774
0.8038085621246229	1360670.8865490416
0.8040095142651542	1366940.1994724064
0.8042105166437206	1373211.079724
0.8044115692728815	1379457.1622378174
0.8046126721651998	1384570.7814780704
0.8048138253332411	1389685.6791231295
0.8050150287895745	1394801.8554926044
0.805216282546772	1399919.3109061706
0.8054175866174087	1405038.0456835874
0.8056189410140631	1410182.130956139
0.8058203457493168	1415334.3158508486
0.8060218008357541	1420487.7887917752
0.8062233062859632	1425642.5501009398
0.8064248621125346	1430798.6001004279
0.806626468328063	1436497.9324698998
0.8068281249451449	1442664.1963993171
0.8070298319763813	1448832.0018947243
0.8072315894343755	1455001.3493415006
0.8074333973317341	1461172.239125141
0.8076352556810671	1466221.7540442687
0.8078371644949874	1468569.4812038261
0.8080391237861113	1470917.7952951738
0.8082411335670578	1473266.696465043
0.8084431938504498	1475616.184860207
0.8086453046489125	1477922.3646033967
0.8088474659750746	1479411.8555668134
0.8090496778415686	1480901.718902973
0.809251940261029	1482391.9547049655
0.8094542532460944	1483882.5630659098
0.8096566168094059	1485373.5440789426
0.8098590309636085	1487698.0451674948
0.8100614957213493	1490218.132316849
0.8102640110952797	1492738.8494879908
0.8104665770980536	1495260.1968384264
0.8106691937423283	1497782.1745257007
0.8108718610407639	1500949.4918621413
0.8110745790060241	1504610.576280122
0.8112773476507757	1508272.5759692101
0.8114801669876885	1511935.4911582198
0.8116830370294355	1515599.3220760245
0.8118859577886929	1518759.2363181366
0.8120889292781401	1520871.3810839448
0.8122919515104597	1522984.0538859442
0.8124950244983374	1525097.2548561443
0.8126981482544621	1527210.9841265867
0.8129013227915257	1529436.9971840107
0.8131045481222237	1532943.1826412869
0.8133078242592543	1536450.2446449276
0.8135111512153191	1539958.1834140683
0.813714529003123	1543466.9991679017
0.8139179576353739	1546976.692125674
0.8141214371247829	1560864.8976004315
0.8143249674840641	1576768.9731211818
0.814528548725935	1592677.0246608027
0.8147321808631167	1608589.05321333
0.8149358639083326	1624505.0597729906
0.8151395978743097	1634838.832945481
0.8153433827737784	1641400.9100941422
0.8155472186194719	1647964.6277620883
0.8157511054241268	1654529.98635945
0.815955043200483	1661096.9862964656
0.8161590319612831	1666701.1815144976
0.8163630717192736	1670539.547188139
0.8165671624872033	1674378.8724531946
0.8167713042778252	1678219.15754957
0.8169754971038948	1682060.4027172215
0.8171797409781707	1685307.5269371911
0.8173840359134155	1683804.7449456623
0.8175883819223938	1682301.5872586374
0.8177927790178745	1680798.05378219
0.8179972272126291	1679294.1444223728
0.8182017265194322	1677789.8590852174
0.8184062769510622	1683934.0113681145
0.8186108785203001	1691256.7389080664
0.8188155312399301	1698581.2971298932
0.8190202351227402	1705907.6864912838
0.819224990181521	1713235.90745001
0.8194297964290664	1721734.7886535039
0.8196346538781738	1730940.303695259
0.8198395625416434	1740148.120115771
0.8200445224322789	1749358.2384903918
0.820249533562887	1758570.6593946035
0.8204545959462778	1766458.6538553461
0.8206597095952644	1772213.2849230673
0.8208648745226633	1777969.3546485598
0.8210700907412941	1783726.863391483
0.8212753582639793	1789485.8115115857
0.8214806771035456	1793460.941216059
0.8216860472728215	1786437.6994216852
0.8218914687846397	1779412.7018168624
0.822096941651836	1772385.947962635
0.822302465887249	1765357.437419948
0.8225080415037209	1758327.1697496213
0.8227136685140968	1765314.4735934162
0.8229193469312254	1773895.0111164236
0.8231250767679583	1782477.6937738147
0.8233308580371503	1791062.5221018654
0.8235366907516598	1799649.4966370044
0.8237425749243477	1809182.7836287604
0.8239485105680789	1819218.878368041
0.824154497695721	1829257.482131
0.824360536320145	1839298.5955449017
0.8245666264542252	1849342.2192371562
0.8247727681108388	1858225.0888732946
0.8249789613028664	1865444.1648598933
0.8251852060431922	1872665.0456154947
0.825391502344703	1879887.731591282
0.8255978502202894	1887112.2232385697
0.8258042496828445	1893857.6880373314
0.8260107007452654	1898269.6400143972
0.8262172034204517	1902682.694979453
0.8264237577213068	1907096.853208251
0.8266303636607373	1911512.1149766082
0.8268370212516525	1915928.4805604054
0.8270437305069654	1915335.8886218765
0.8272504914395923	1914351.6447813762
0.8274573040624523	1913367.1548799158
0.8276641683884679	1912382.4188559805
0.8278710844305652	1911397.4366480382
0.8280780522016729	1914933.6461463678
0.8282850717147234	1920537.4806118885
0.8284921429826521	1926142.7160360198
0.8286992660183978	1931749.3527690116
0.8289064408349024	1937357.3911611827
0.8291136674451112	1940973.1829751013
0.8293209458619727	1942075.9877681301
0.8295282760984382	1943179.0682623554
0.829735658167463	1944282.4245267056
0.8299430920820048	1945386.0566301206
0.8301505778550254	1946701.776970174
0.8303581154994891	1948863.2312704558
0.8305657050283641	1951025.225934315
0.8307733464546212	1953187.7610968386
0.8309810397912352	1955350.8368931564
0.8311887850511829	1957514.4534584188
0.8313965822474458	1969245.4026194443
0.8316044313930077	1981423.3299260885
0.8318123325008561	1993604.3017145707
0.8320202855839813	2005788.318745994
0.8322282906553774	2017975.381781676
0.8324363477280413	2023325.7237468744
0.8326444568149735	2025923.736896465
0.8328526179291771	2028522.3995493404
0.8330608310836596	2031121.7118678829
0.8332690962914304	2033721.6740145013
0.8334774135655034	2035708.450721247
0.833685782918895	2037010.0497884927
0.8338942043646247	2038311.9742555046
0.834102677915716	2039614.2242036343
0.834311203585195	2040916.7997142498
0.8345197813860912	2044440.5792956175
0.8347284113314379	2055440.9242945053
0.8349370934342709	2066444.0193796367
0.8351458277076294	2077449.865238526
0.8353546141645565	2088458.4625588981
0.8355634528180977	2099469.8120285957
0.8357723436813022	2090095.2764208044
0.8359812867672226	2080466.6494513594
0.8361902820889144	2070835.615325177
0.8363993296594368	2061202.17344046
0.8366084294918518	2051566.3231952689
0.8368175815992247	2056813.4452773284
0.8370267859946247	2067188.557346144
0.8372360426911234	2077566.2631929738
0.8374453517017962	2087946.5634662642
0.8376547130397217	2098329.4588146214
0.8378641267179816	2105342.842310159
0.8380735927496613	2109011.971853273
0.8382831111478488	2112682.018678771
0.8384926819256358	2116352.983015973
0.8387023050961173	2120024.8650942626
0.8389119806723914	2123636.812928004
0.8391217086675596	2127078.405731426
0.8393314890947265	2130520.8589330465
0.8395413219670003	2133964.1727479678
0.8397512072974922	2137408.347391345
0.8399611450993165	2141035.8101482056
0.8401711353855914	2153723.4428624786
0.8403811781694378	2166414.247484926
0.8405912734639802	2179108.2248085327
0.8408014212823464	2191805.3756264765
0.8410116216376671	2204505.7007321226
0.8412218745430766	2215290.3556845807
0.8414321800117124	2225519.396883224
0.8416425380567154	2235750.995342172
0.8418529486912297	2245985.1517007374
0.8420634119284025	2256221.8665983835
0.8422739277813847	2262745.052482651
0.8424844962633302	2265995.851268063
0.842695117387396	2269247.462753166
0.8429057911667428	2272499.887141141
0.8431165176145345	2275753.124635215
0.8433272967439382	2279112.3307250813
0.8435381285681244	2282728.8795196246
0.8437490131002665	2286346.332451366
0.8439599503535415	2289964.689746338
0.84417094034113	2293583.951630636
0.8443819830762154	2297318.766872582
0.8445930785719846	2303364.1205015103
0.8448042268416277	2309410.985468842
0.8450154278983382	2315459.3621524153
0.8452266817553128	2321509.250930159
0.8454379884257517	2327560.6521800975
0.8456493479228583	2333985.9014848936
0.845860760259839	2340502.4198941574
0.846072225449904	2347020.567433023
0.8462837435062666	2353540.3445087746
0.8464953144421433	2360061.751528799
0.8467069382707537	2365081.698510493
0.8469186150053215	2368931.2876824597
0.847130344659073	2372781.8392517203
0.8473421272452377	2376633.3534588697
0.8475539627770492	2380485.8305445747
0.8477658512677435	2384851.2967769783
0.8479777927305605	2390305.0742205293
0.8481897871787432	2395760.21510844
0.848401834625538	2401216.7197815753
0.8486139350841944	2406674.5885808757
0.8488260885679657	2411944.65947742
0.8490382950901076	2414910.2257547826
0.8492505546638802	2417876.533423716
0.8494628673025462	2420843.582669566
0.8496752330193721	2423811.373677731
0.8498876518276269	2426779.906633645
0.8501001237405839	2418979.1444651564
0.8503126487715191	2409026.5435170736
0.850525226933712	2399071.4544187593
0.8507378582404455	2389113.8765481706
0.8509505427050057	2379153.8092831085
0.8511632803406821	2372902.449621992
0.8513760711607672	2369191.0179086374
0.8515889151785576	2365478.658337349
0.8518018124073523	2361765.3706761706
0.8520147628604541	2358051.154693079
0.8522277665511693	2362083.662895096
0.8524408234928071	2380445.5264520976
0.8526539336986805	2398811.9804749936
0.8528670971821053	2417183.0261113965
0.8530803139564007	2435558.664509187
0.8532935840348901	2453702.053540138
0.8535069074308987	2469849.7159213824
0.8537202841577566	2486001.4152182355
0.8539337142287962	2502157.152439915
0.8541471976573534	2518316.92859589
0.8543607344567677	2534480.7446959065
0.8545743246403821	2543317.868775474
0.8547879682215422	2550992.9979536203
0.8550016652135977	2558670.04591406
0.8552154156299011	2566349.0131364902
0.8554292194838088	2574029.9001007313
0.8556430767886797	2580237.277303262
0.855856987557877	2585550.3642325657
0.8560709518047664	2590864.779433598
0.8562849695427177	2596180.523238432
0.8564990407851035	2601497.5959792193
0.8567131655452999	2606733.3709796807
0.8569273438366862	2611835.067812951
0.8571415756726455	2616938.0400704304
0.8573558610665638	2622042.288070976
0.8575702000318304	2627147.812133516
0.8577845925818384	2632352.5674303314
0.857999038729984	2638170.4860162893
0.8582135384896665	2643989.8590818928
0.858428091874289	2649810.686990763
0.8586426988972576	2655632.9701066087
0.8588573595719821	2661456.7087932355
0.8590720739118751	2666070.357515919
0.8592868419303532	2670542.314769251
0.8595016636408359	2675015.3900118964
0.8597165390567462	2679489.583523351
0.8599314681915105	2683964.8955831844
0.8601464510585584	2687427.2903312226
0.860361487671323	2690352.3073735787
0.8605765780432408	2693278.0556701943
0.8607917221877518	2696204.5354038863
0.8610069201182988	2699131.7467575115
0.8612221718483286	2693723.1588157034
0.8614374773912907	2676294.980965106
0.8616528367606385	2658862.446070051
0.8618682499698288	2641425.5530412607
0.8620837170323213	2623984.300789216
0.8622992379615795	2609703.4421361457
0.8625148127710699	2611080.1679030606
0.8627304414742627	2612457.237851417
0.8629461240846313	2613834.6520672613
0.8631618606156526	2615212.4106366597
0.8633776510808066	2616590.5136456997
0.8635934954935769	2641489.850447267
0.8638093938674504	2668323.461916954
0.8640253462159173	2695163.7817895073
0.8642413525524714	2722010.8117420287
0.8644574128906095	2748864.553452032
0.8646735272438323	2753650.1165535203
0.8648896956256433	2748171.439579128
0.8651059180495498	2742691.3929354916
0.8653221945290621	2737209.9762801994
0.8655385250776946	2731727.1892707357
0.8657549097089641	2734526.6169694792
0.8659713484363913	2747931.5547857215
0.8661878412735006	2761339.8438364235
0.866404388233819	2774751.4849593868
0.8666209893308775	2788166.478992624
0.8668376445782103	2799747.416708395
0.8670543539893549	2803831.846435626
0.8672711175778525	2807917.2972702924
0.8674879353572469	2812003.7694676626
0.8677048073410862	2816091.2632830837
0.8679217335429217	2820179.7789719612
0.8681387139763074	2826727.971146255
0.8683557486548015	2833399.94005305
0.8685728375919655	2840073.57695208
0.8687899808013633	2846748.8822603202
0.8690071782965637	2853425.8563948963
0.869224430091138	2858648.9780574883
0.8694417361986609	2863281.1555544394
0.8696590966327107	2867914.4910957636
0.869876511406869	2872548.9849709733
0.8700939805347206	2877184.6374696493
0.8703115040298544	2882270.2856010282
0.870529081905862	2887870.3553585466
0.8707467141763385	2893471.8251335025
0.8709644008548827	2899074.695275902
0.8711821419550964	2904678.9661358334
0.8713999374905854	2910479.4593699086
0.871617787474958	2916953.7986511476
0.8718356919218269	2923429.7565172124
0.8720536508448075	2929907.3333727443
0.8722716642575187	2936386.5296224863
0.8724897321735832	2942867.345671294
0.8727078546066265	2948618.571380139
0.8729260315702784	2954360.110784391
0.873144263078171	2960103.085573488
0.8733625491439405	2965847.496106283
0.8735808897812266	2971593.3427417134
0.8737992850036719	2974031.91393951
0.874017734824923	2975299.203429773
0.8742362392586293	2976566.8097424083
0.874454798318444	2977834.7329566213
0.8746734120180236	2979102.973151638
0.8748920803710283	2981694.958299474
0.875110803391121	2985617.510370714
0.8753295810919689	2989541.043079974
0.875548413487242	2993465.5566724115
0.8757673005906139	2997391.051393247
0.8759862424157616	3003139.686438577
0.8762052389763657	3014162.261559477
0.8764242902861098	3025187.5923241503
0.8766433963586814	3036215.6794215175
0.8768625572077712	3047246.5235406626
0.8770817728470732	3058189.1496110363
0.8773010432902849	3062031.3535659835
0.8775203685511077	3065874.518071925
0.8777397486432454	3069718.643368988
0.8779591835804065	3073563.7296973797
0.8781786733763015	3077409.7772973487
0.8783982180446457	3074818.3556958507
0.878617817599157	3070310.973445215
0.8788374720535569	3065802.464349019
0.8790571814215703	3061292.8281255495
0.8792769457169257	3056782.0644930247
0.879496764953355	3052558.786335239
0.8797166391445934	3048593.934550288
0.8799365683043796	3044628.0915523907
0.8801565524464557	3040661.257093744
0.8803765915845676	3036693.4309264785
0.8805966857324639	3038466.4788744966
0.880816834903897	3054661.8163159713
0.881037039112623	3070861.2025918127
0.8812572983724012	3087064.6387142213
0.8814776126969944	3103272.125695668
0.8816979821001687	3119058.6519848593
0.8819184065956938	3124844.2576115197
0.8821388861973429	3130631.309639593
0.8823594209188923	3136419.808430668
0.882580010774122	3142209.7543464378
0.8828006557768155	3148001.1477486896
0.8830213559407598	3154765.464035377
0.8832421112797452	3161775.807233882
0.8834629218075651	3168787.903018182
0.8836837875380171	3175801.751826431
0.8839047084849018	3182817.3540968825
0.884125684662023	3183667.504564676
0.8843467160831886	3179575.6398417624
0.8845678027622095	3175482.7521526674
0.8847889447129001	3171388.84124165
0.8850101419490785	3167293.906852905
0.8852313944845657	3169046.311251102
0.885452702333187	3183600.5020022905
0.8856740655087704	3198158.3313011643
0.8858954840251476	3212719.8000573586
0.8861169578961539	3227284.9091807357
0.886338487135628	3240107.4735352015
0.886560071757412	3229696.0354200173
0.8867817117753515	3219281.994445305
0.8870034072032955	3208865.3499603444
0.8872251580550963	3198446.1013142746
0.8874469643446101	3188024.2478560368
0.8876688260856963	3196021.581078355
0.8878907432922178	3207833.539607218
0.8881127159780409	3219648.451125705
0.8883347441570356	3231466.3163720868
0.8885568278430749	3243287.136084767
0.8887789670500358	3251161.4569703387
0.8890011617917983	3256236.107835159
0.8892234120822464	3261312.0273626978
0.8894457179352669	3266389.2158701145
0.8896680793647509	3271467.673674662
0.8898904963845921	3272990.7466258747
0.8901129690086883	3267728.0099993525
0.8903354972509405	3262463.9576886753
0.8905580811252535	3257198.5893649166
0.8907807206455347	3251931.9046990834
0.8910034158256963	3245841.3377340273
0.8912261666796527	3232398.00883086
0.8914489732213227	3218951.3190954626
0.8916718354646282	3205501.2676876187
0.8918947534234944	3192047.8537669354
0.8921177271118502	3178591.076492781
0.8923407565436284	3162336.1928041633
0.8925638417327644	3145621.3469459177
0.8927869826931977	3128902.3223762023
0.8930101794388711	3112179.118050345
0.8932334319837308	3095451.73292341
0.8934567403417267	3083452.956529988
0.8936801045268123	3074392.0526671596
0.8939035245529441	3065328.8835783717
0.8941270004340824	3056263.4486973085
0.894350532184191	3047195.7474575266
0.8945741198172371	3060577.3728330266
0.8947977633471915	3111195.6333923335
0.8950214627880284	3161826.5485167783
0.8952452181537254	3212470.1213699738
0.8954690294582639	3263126.3551164134
0.8956928967156286	3307755.199053373
0.8959168199398075	3313197.4022370013
0.8961407991447926	3318640.965971427
0.8963648343445789	3324085.890596786
0.896588925553165	3329532.1764532984
0.8968130727845534	3334979.8238812755
0.8970372760527496	3333748.7077108924
0.8972615353717629	3331681.465534752
0.8974858507556059	3329613.7065480673
0.8977102222182949	3327545.4306216366
0.8979346497738496	3325476.637626223
0.8981591334362931	3348121.497886223
0.8983836732196523	3384287.6180646317
0.8986082691379572	3420462.7797730616
0.8988329212052417	3456646.985271918
0.8990576294355432	3492840.236822181
0.8992823938429022	3517132.2507806257
0.8995072144413631	3523721.256167774
0.8997320912449734	3530311.9088062667
0.8999570242677847	3536904.2091079173
0.9001820135238516	3543498.1574846436
0.9004070590272328	3549937.994972327
0.9006321607919896	3555562.8986302586
0.9008573188321878	3561189.2085141107
0.9010825331618959	3566816.924975431
0.9013078037951865	3572446.0483658677
0.9015331307461353	3578076.579037149
0.9017585140288219	3586684.4428165006
0.9019839536573292	3595550.7827365836
0.9022094496457435	3604419.3392416406
0.9024350020081551	3613290.1128858337
0.9026606107586572	3622163.104223435
0.902886275911347	3637141.25535848
0.9031119974803249	3655065.1936622523
0.9033377754796951	3672993.6129506
0.903563609923565	3690926.514343763
0.903789500826046	3708863.8989622854
0.9040154482012526	3720501.8969304254
0.904241452063303	3723976.6899426715
0.9044675124263188	3727452.3516531703
0.9046936293044254	3730928.8822790957
0.9049198027117517	3734406.2820376796
0.9051460326624297	3738890.1670279456
0.9053723191705955	3747657.3193563465
0.9055986622503881	3756426.663472821
0.9058250619159507	3765198.1999253253
0.9060515181814298	3773971.929261948
0.9062780310609752	3782747.852030899
0.9065046005687405	3768781.778338115
0.906731226718883	3753543.381985715
0.9069579095255627	3738301.176034247
0.907184649002944	3723055.15953129
0.907411445165195	3707805.331524192
0.9076382980264862	3720840.4791477956
0.907865207600993	3745627.1668578275
0.9080921739028933	3770420.051239779
0.9083191969463691	3795219.1338428226
0.9085462767456058	3820024.4162165285
0.9087734133147922	3835857.1645513987
0.9090006066681211	3841323.3204397047
0.909227856819788	3846790.842866976
0.9094551637839932	3852259.732174861
0.9096825275749393	3857729.988705071
0.9099099482068329	3864296.3555405918
0.9101374256938848	3874755.0986524206
0.9103649600503083	3885216.4564500223
0.9105925512903209	3895680.4295870713
0.9108201994281437	3906147.0187174156
0.9110479044780008	3916616.2244950305
0.9112756664541204	3926448.0949918283
0.911503485370734	3936267.7750544604
0.9117313612420768	3946089.9100371087
0.9119592940823873	3955914.5005534994
0.912187283905908	3965741.5472175227
0.9124153307268845	3954005.0404300564
0.9126434345595664	3934438.3983756523
0.9128715954182063	3914866.8646607534
0.9130998133170609	3895290.4380624155
0.9133280882703902	3875709.1173574296
0.913556420292458	3872873.2667959607
0.9137848093975312	3887311.6065106774
