#wavelength	surface flux
0.6450077295303345	142270.2175071193
0.6472567915916443	148079.21477398457
0.6494921445846558	154490.1434204054
0.6517150402069092	160984.20915516923
0.6539263725280762	167146.3598720701
0.6561272740364075	173475.322619692
0.6583186388015747	179687.60623058467
0.6605015397071838	186539.40967248142
0.6626768708229065	193139.64619454986
0.6648455858230591	199988.2765168298
0.6670085787773132	206348.72086019552
0.6691668033599854	197511.38905958968
0.6713210344314575	185666.6761228722
0.6734722256660461	225924.09392648807
0.6756211519241333	235978.04140835733
0.6777685880661011	244228.37407048466
0.6799154281616211	251795.03480065774
0.6820623278617859	259822.86491169507
0.6842101216316223	268363.23701335123
0.6863595843315125	276605.8474772369
0.688511312007904	284892.2781242076
0.6906660795211792	291950.5663048704
0.6928245425224304	297085.76794039086
0.6949873566627502	310045.9563538253
0.6971551775932312	320034.90717890346
0.6993286609649658	328932.42896177113
0.7015084028244019	337614.4410917349
0.7036949396133423	347424.5710943737
0.7058889269828796	358350.0413285107
0.7080909013748169	367755.47291935666
0.710301399230957	377726.76576793805
0.712520956993103	388499.40935119975
0.7147500514984131	397868.5269806575
0.7169892191886902	401511.3009396427
0.7192389369010925	415637.02200782095
0.7214996814727783	425420.2616745745
0.723771870136261	434741.6795620295
0.7260559797286987	442829.50886918395
0.7283523678779602	453499.7917837326
0.7306615710258484	461539.69318618224
0.7329838871955872	475671.204141931
0.7353196740150452	485519.6401655708
0.7376693487167358	495086.200489821
0.7400332689285278	505485.87987188227
0.7424117922782898	508805.1934864168
0.7448052167892456	514433.71880259394
0.7472138404846191	513447.3300306908
0.7496379613876343	506693.72282981355
0.7520779371261597	488614.92019286647
0.7545340061187744	454354.79179092206
0.7570064663887024	393909.15295785357
0.7594954967498779	298205.93637303455
0.7620013952255249	162801.69599663978
0.7645244002342224	38721.62508636719
0.7670646905899048	4908.753223479895
0.7696225643157959	6269.27069804401
0.7721980810165405	91923.47708779736
0.7747915983200073	275093.1129734926
0.7774031162261963	435856.76924647123
0.7800329327583313	492942.866203095
0.7826811671257019	648265.4067432837
0.7853479981422424	729315.6147093099
0.7880334854125977	789404.93424132
0.7907378077507019	836402.6193847822
0.7934610247612	634349.8965118615
0.7962033748626709	740526.4216238618
0.7989648580551147	960349.6377554141
0.801745593547821	998997.3551486006
0.8045456409454346	1033635.2518659645
0.8073651194572449	1066211.7263505186
0.8102040886878967	1081415.1322820352
0.8130625486373901	1101768.1640503923
0.8159406185150146	1162028.6185890844
0.8188382983207703	1196318.5834486515
0.8217556476593018	1226239.412690815
0.8246926665306091	1265091.9816042208
0.8276493549346924	1301628.1779905707
0.8306257724761963	1326706.1973440715
0.8336219191551208	1371368.9972933128
0.8366377949714661	1394887.077835802
0.8396733403205872	1435219.3812505847
0.8427285552024841	1499822.5665699397
0.8458034992218018	1543176.9495445334
0.8488980531692505	1587845.8971791184
0.8520121574401855	1619085.8971095956
0.8551458716392517	1679281.9467840006
0.8582990765571594	1727602.4857717832
0.8614717125892639	1745879.2701537488
0.8646637797355652	1784370.1162621132
0.8678751587867737	1843519.124927192
0.8711057901382446	1895354.6963121842
0.8743556141853333	1941025.9581628004
0.87762451171875	1989163.1397607422
0.8809124231338501	2013156.8209675997
0.8842192888259888	2079411.6126527209
0.8875449895858765	2115866.856893609
0.8908893465995789	2138481.656559342
0.894252359867096	2114676.2050231774
0.8976338505744934	2227202.951718623
0.9010337591171265	2333235.239115748
0.9044519662857056	2420685.577217949
0.9078882932662964	2463507.4015507866
0.9113426208496094	2548065.9048821856
0.914814829826355	2567370.151575346
0.9183048605918884	2569296.7865551612
0.9218124747276306	2714354.7542813173
0.925337553024292	2583856.035609513
0.9288799166679382	2044566.1658177036
0.9324395060539246	2261611.09119931
0.9360161423683167	2354294.163236723
0.9396095871925354	2668013.476627608
0.943219780921936	2579667.1680993014
0.9468464851379395	2410930.2295914046
0.9504896402359009	2701867.0037862887
0.9541489481925964	2758082.7387678805
0.9578243494033813	2874432.933491134
0.9615156054496765	2584195.5719829067
0.9652225375175476	2746496.911596621
0.9689450263977051	2752971.0965010016
0.9726828336715698	3398116.6152020483
0.9764357805252075	3361686.6134989345
0.9802037477493286	3552647.39399901
0.983986496925354	3674435.3278257987
0.9877838492393494	3802134.1736140866
0.9915955662727356	3999695.0106370505
0.9954215884208679	4116957.1731021353
0.9992615580558777	4234842.786673901
1.0031154155731201	4302384.74573111
1.0069829225540161	4452974.33296461
1.0108637809753418	4581863.6658400055
1.0147579908370972	4735381.194376353
1.018665075302124	4843110.3200001875
1.022585153579712	4921458.173007256
1.0265177488327026	4966292.532077609
1.0304628610610962	4947507.680271978
1.0344202518463135	5272774.4590125615
1.0383895635604858	5377646.264503547
1.0423706769943237	5490624.466974676
1.0463634729385376	5594250.192741564
1.0503677129745483	5653186.244111823
1.0543830394744873	5800171.635049475
1.058409333229065	5923206.934410163
1.0624464750289917	6028841.412929203
1.0664942264556885	6139090.828924855
1.0705522298812866	6210010.601695145
1.0746204853057861	6361698.306396275
1.0786986351013184	6454479.314634919
1.0827864408493042	6582379.1097046295
1.086883783340454	6663499.876283663
1.0909905433654785	6612654.1043736385
1.0951062440872192	6618325.224618836
1.0992310047149658	6217773.800986966
1.10336434841156	4908825.423329418
1.1075061559677124	5199430.804430097
1.1116561889648438	5042578.002139311
1.115814208984375	4396889.450657647
1.1199802160263062	4415883.272227571
1.124153733253479	4892405.719252123
1.1283347606658936	5261346.12089077
1.1325229406356812	4140812.3217024226
1.1367181539535522	5299102.874301948
1.1409201622009277	5811974.254387166
1.145128846168518	6474339.830200591
1.1493438482284546	5994359.81800875
1.1535650491714478	3329595.7792846635
1.1577922105789185	4400001.190280458
1.1620250940322876	4657374.889346371
1.1662636995315552	6352512.3054852905
1.170507550239563	5892076.828903731
1.174756646156311	7032463.7891922835
1.1790107488632202	7997530.221472663
1.1832695007324219	8568248.809435388
1.1875330209732056	8699130.755663527
1.191800832748413	9125170.768640831
1.1960728168487549	9540290.888590056
1.2003488540649414	9842800.57373706
1.2046287059783936	9801691.343949655
1.2089121341705322	10107398.909621112
1.2131990194320679	10225215.777173826
1.2174891233444214	10551765.664407076
1.2217823266983032	10734563.842387227
1.2260783910751343	10959795.429160442
1.230377197265625	11116380.888059726
1.2346785068511963	11260244.453553814
1.238982081413269	11463084.995529806
1.2432878017425537	11613252.518428508
1.2475954294204712	11749532.116406271
1.2519049644470215	11784442.626953084
1.256216049194336	12075663.342213422
1.2605286836624146	12163737.593826305
1.2648425102233887	12245886.190679837
1.2691574096679688	12365542.5690029
1.2734732627868652	12443161.667776166
1.2777899503707886	12634858.447557006
1.2821072340011597	12617660.766737225
1.2864248752593994	12736956.817266012
1.2907428741455078	12486346.486033978
1.2950609922409058	12636042.320984485
1.2993791103363037	12767295.56019578
1.303696870803833	12536341.837838955
1.3080145120620728	12641921.003052276
1.3123314380645752	12648489.975123024
1.3166478872299194	13289680.459055968
1.3209635019302368	13035519.258261288
1.3252781629562378	11912423.812926827
1.3295916318893433	10676756.923412917
1.3339040279388428	6427045.993955108
1.3382149934768677	2492749.9271865822
1.3425244092941284	1225794.97496294
1.3468321561813354	2856032.414917824
1.3511382341384888	1405539.5257820738
1.3554422855377197	973237.3609713238
1.3597444295883179	942505.50645026
1.3640443086624146	1296742.9440801544
1.3683418035507202	1152565.7191944774
1.3726370334625244	2681068.1636031065
1.3769296407699585	5055188.534683377
1.381219506263733	2328738.6965611493
1.3855066299438477	580239.0573612221
1.3897908926010132	735025.2636422226
1.3940720558166504	1134401.6305412804
1.3983501195907593	882702.7023945057
1.4026249647140503	2152738.008357287
1.4068963527679443	3650625.567720039
1.4111642837524414	1129280.0323541623
1.4154287576675415	1608215.28857845
1.419689416885376	1711549.2530648464
1.4239463806152344	924472.1082777522
1.4281994104385376	2630790.9563694326
1.4324485063552856	1779538.7519385046
1.436693549156189	2528880.458190306
1.440934419631958	2600494.121887742
1.4451709985733032	3626173.584644192
1.449403166770935	6482146.104344762
1.453631043434143	6883753.189062722
1.4578542709350586	7539358.128110136
1.4620729684829712	7719697.468656391
1.4662868976593018	8616608.369483937
1.4704961776733398	6971008.559587899
1.4747005701065063	7258194.572693
1.4788999557495117	7242730.880018418
1.4830944538116455	9528981.626531873
1.4872838258743286	10877038.770342728
1.491468071937561	11015650.64525684
1.4956470727920532	10053256.872046765
1.4998208284378052	11550454.316062257
1.5039892196655273	12910215.646999609
1.5081522464752197	12160858.005172752
1.5123097896575928	12779491.785693036
1.5164618492126465	13946844.461904489
1.5206083059310913	15669929.68208375
1.5247491598129272	16912212.765828535
1.5288842916488647	16025638.497610329
1.5330137014389038	16911582.64418187
1.5371372699737549	17632065.515578594
1.541254997253418	17454234.81418305
1.545366883277893	17997626.951895952
1.5494728088378906	18399055.73964702
1.5535727739334106	18941313.79282636
1.5576666593551636	18217379.063072033
1.561754584312439	18473942.80240122
1.5658363103866577	19675355.73776128
1.5699119567871094	20062110.40018093
1.5739814043045044	19482278.774320718
1.5780447721481323	18441188.722319067
1.582101821899414	19314586.59307505
1.5861525535583496	20972112.58199291
1.5901970863342285	20885921.752151743
1.5942351818084717	20730706.16126709
1.5982669591903687	20262085.625768702
1.6022924184799194	20300572.96652522
1.606311559677124	20735045.54702225
1.6103241443634033	20650230.82861514
1.6143304109573364	20309529.816675868
1.6183301210403442	20195795.30177747
1.6223233938217163	19725667.806255884
1.6263102293014526	19668660.169384215
1.6302905082702637	18657432.963175908
1.634264349937439	19312192.97896875
1.638231635093689	21808044.772738162
1.6421923637390137	22060762.446320236
1.646146535873413	21105233.445613794
1.6500942707061768	19768760.74502758
1.6540353298187256	21367950.199857265
1.6579699516296387	21689998.278863743
1.661897897720337	21134328.051790893
1.6658192873001099	17107257.04635483
1.6697341203689575	16697752.046590604
1.6736423969268799	21000930.541299816
1.677544116973877	20933685.18804728
1.6814392805099487	20479257.609938376
1.6853278875350952	20622008.18369194
1.6892099380493164	19926940.730981316
1.6930854320526123	18643473.36518449
1.696954369544983	16290771.147237651
1.7008168697357178	17459899.992618967
1.7046726942062378	17206672.032675996
1.708522081375122	18685827.738973554
1.712364912033081	18682681.00250173
1.7162011861801147	19609122.94960256
1.7200311422348022	20665497.012018047
1.723854422569275	20323218.870192286
1.7276713848114014	19823657.45401736
1.731481909751892	18739563.072766695
1.7352858781814575	17589500.904725775
1.7390835285186768	17211914.54594618
1.7428747415542603	16681108.107271312
1.7466596364974976	14998354.988346523
1.7504380941390991	13975312.316176461
1.7542102336883545	11519072.114715997
1.7579760551452637	15644991.107717382
1.7617355585098267	17668783.13330344
1.7654887437820435	15111806.401274398
1.7692357301712036	11524155.850678403
1.7729763984680176	8298313.614284875
1.776710867881775	4565125.022411661
1.7804391384124756	4247917.046084849
1.7841613292694092	5407809.033587076
1.7878772020339966	3532086.9061857406
1.7915871143341064	4616372.385695278
1.7952908277511597	6349715.717043219
1.7989884614944458	7357771.761687924
1.8026801347732544	3444551.7640341045
1.806365728378296	1336259.9925753595
1.8100452423095703	2177087.1879424565
1.8137187957763672	3616473.131994309
1.817386507987976	1131650.756646357
1.8210482597351074	3393045.699949079
1.8247040510177612	3666036.915852941
1.828354001045227	1009436.5103516388
1.8319982290267944	1377067.4856643756
1.8356364965438843	2692687.7145739333
1.8392690420150757	4428665.381327458
1.8428958654403687	3464259.814213723
1.8465168476104736	3546099.3439799314
1.8501322269439697	4428823.423320964
1.8537418842315674	2455492.5915044877
1.8573459386825562	1869380.9684883333
1.860944390296936	1986095.6882567527
1.864537239074707	960563.5835025886
1.8681244850158691	1298103.240408227
1.871706247329712	2744842.2521502646
1.8752825260162354	3922211.129216306
1.8788533210754395	6205727.57265668
1.8824186325073242	8039944.533118197
1.8859784603118896	6250555.847056354
1.8895330429077148	5564612.292958783
1.8930821418762207	8416276.831827886
1.8966259956359863	7787187.392092019
1.9001644849777222	2224778.6990489005
1.9036977291107178	1070580.3934400287
1.9072256088256836	2137767.743283755
1.9107483625411987	1722187.9573882218
1.9142658710479736	639913.6444827714
1.9177782535552979	886690.3478362963
1.9212853908538818	1605899.957896228
1.9247875213623047	1263931.2392996775
1.9282845258712769	1425535.6093505062
1.9317764043807983	2233307.500160012
1.9352631568908691	2426536.223018569
1.9387450218200684	2026073.3177918051
1.942221760749817	2782731.119988744
1.9456936120986938	2922229.005958787
1.9491604566574097	3646033.754451549
1.952622413635254	3259204.250643672
1.956079363822937	2089390.0674217301
1.959531545639038	2672154.5253518177
1.962978720664978	2736932.5478788675
1.966421127319336	3775284.277485006
1.9698586463928223	6004496.010790521
1.9732913970947266	6270330.591794398
1.9767193794250488	6697857.228949355
1.9801424741744995	8548313.206098968
1.9835609197616577	9805302.368217828
1.9869745969772339	10132449.754999612
1.990383505821228	7668480.655747407
1.9937876462936401	8188798.091727136
1.9971871376037598	8090424.789041172
2.000581979751587	8752812.514943458
2.003972291946411	11861700.293839172
2.007357597351074	12787469.231591482
2.0107386112213135	15069161.626541093
2.0141148567199707	15179947.478243105
2.017486572265625	13048404.431285976
2.0208535194396973	14543642.147570629
2.0242159366607666	17229087.862296592
2.027573823928833	17880934.8841285
2.0309269428253174	18763518.66906745
2.034275770187378	20158806.143686667
2.0376198291778564	21008826.033641066
2.040959596633911	21749250.652234633
2.044294595718384	22947538.291517276
2.0476250648498535	24366637.30414837
2.0509510040283203	24212551.305818733
2.054272413253784	23233190.481516674
2.057589530944824	23906694.806029554
2.0609018802642822	24882912.4678886
2.0642096996307373	25601910.617667086
2.0675129890441895	26053910.066251617
2.0708119869232178	26286830.262357388
2.074106216430664	26043919.381245952
2.0773961544036865	25917135.97625268
2.080681324005127	26311114.500519715
2.0839622020721436	26577658.573586468
2.087238311767578	26776121.512177568
2.090510129928589	26723747.65206299
2.0937774181365967	26401188.50387126
2.0970399379730225	26552798.35637194
2.1002981662750244	26543039.770089075
2.1035518646240234	26256591.859656345
2.1068007946014404	25844667.02070226
2.1100454330444336	26269552.1668566
2.1132853031158447	26756632.618817296
2.116520881652832	26331036.934382066
2.1197516918182373	26135793.138859294
2.1229779720306396	26350346.97246471
2.12619948387146	26558872.966913983
2.1294167041778564	26569556.313340783
2.132629156112671	26675598.311273262
2.1358368396759033	26341041.19298615
2.139039993286133	25720841.164782625
2.1422386169433594	25246150.881635904
2.145432472229004	24826149.689478353
2.1486217975616455	24568492.395710744
2.151806354522705	23997317.58853635
2.1549863815307617	24149638.95206473
2.1581614017486572	24348580.25874094
2.16133189201355	23701031.677980624
2.1644976139068604	23489409.784986787
2.167658567428589	23463843.84151416
2.1708147525787354	23582580.90165759
2.173966407775879	23495638.27921884
2.1771130561828613	23302617.451815624
2.1802549362182617	23029193.46794557
2.183391809463501	22502206.19122349
2.1865241527557373	21749418.352163967
2.1896514892578125	20738993.291926734
2.1927738189697266	18441313.972552422
2.1958916187286377	14903776.239152528
2.1990041732788086	12026186.83018837
2.2021119594573975	10772897.57113557
2.2052149772644043	10589726.288445232
2.208312749862671	11203073.409409638
2.2114057540893555	12377286.710286856
2.214493751525879	13129074.519484727
2.217576742172241	12722207.687924493
2.2206547260284424	12366391.816135734
2.2237277030944824	12099386.210814022
2.2267956733703613	10713674.73804243
2.2298583984375	9037961.714005375
2.2329163551330566	8211557.115170573
2.235969066619873	8046895.85703945
2.2390167713165283	7699134.289749898
2.2420592308044434	6633190.942582669
2.2450966835021973	5674250.2121618865
2.248128890991211	6093584.36586777
2.2511560916900635	7127534.071102439
2.254178285598755	7577816.725461566
2.257194995880127	7919087.036846997
2.260206699371338	7789205.281154303
2.2632133960723877	6669353.908471899
2.266214609146118	5576972.401725079
2.2692108154296875	5388701.751900632
2.2722020149230957	6090410.227363274
2.2751877307891846	6731245.156740063
2.278168201446533	6551940.545376316
2.2811436653137207	5958746.811594576
2.284113883972168	5531017.728985593
2.287078857421875	5146564.755266363
2.290038824081421	4732512.984289937
2.2929933071136475	4480025.631283962
2.295942783355713	4331322.246670331
2.298887014389038	4193303.354328374
2.301826238632202	4213940.878658257
2.304760217666626	4575776.966645035
2.3076889514923096	5231708.655399377
2.310612440109253	5765356.105920572
2.3135311603546143	5382246.402577304
2.3164443969726562	3793317.8486428345
2.319352865219116	2570813.1113819242
2.322256088256836	2458101.8528877837
2.3251543045043945	2493654.244323811
2.328047275543213	2449175.49997156
2.330935478210449	2509444.229947423
2.3338186740875244	2554350.9320888976
2.3366971015930176	2568982.3767159204
2.3395702838897705	2561672.8400132474
2.3424389362335205	2469008.331286374
2.3453025817871094	2341419.2811469883
2.348161458969116	2364376.8448041454
2.351015567779541	2708966.5449688304
2.353865146636963	3274965.2920533535
2.3567099571228027	3767067.6636350406
2.3595502376556396	4166769.862256477
2.3623859882354736	4602752.223737595
2.3652172088623047	4377966.588991712
2.368043899536133	3030502.8031624015
2.370866537094116	2054676.1221911244
2.3736846446990967	2003061.0758323942
2.3764986991882324	2150577.2411939227
2.3793084621429443	2275025.2953223153
2.3821144104003906	2592601.934257704
2.384916305541992	3188895.483166216
2.387714147567749	3741550.3586261906
2.3905084133148193	3837125.1615033317
2.393299102783203	3717833.213394279
2.3960859775543213	3596236.892802792
2.398869514465332	3548086.1646025055
2.4016497135162354	3417471.705483348
2.4044265747070312	3448491.5555888657
2.407200336456299	3872697.413469183
2.409970998764038	4521582.122391724
2.4127390384674072	4980466.492052184
2.415503978729248	5241314.961431152
2.418266534805298	5826770.978477284
2.4210267066955566	6075213.683066627
2.4237842559814453	5596890.780011504
2.426539897918701	5234020.189872212
2.429293394088745	5487691.944168478
2.4320452213287354	6114332.947797327
2.4347951412200928	6416353.35748871
2.4375438690185547	6319281.942744024
2.440291166305542	6154421.781254225
2.443037271499634	5702608.076848727
2.445782423019409	4985658.664561597
2.4485268592834473	4369328.488263325
2.451270818710327	4354293.049700865
2.454014539718628	5164772.4076297255
2.4567582607269287	5962495.599018723
2.4595019817352295	5783301.1017002985
2.4622461795806885	5980339.1878770795
2.4649908542633057	5613460.979524076
2.4677364826202393	4532034.782550335
2.4704833030700684	3208915.7795536984
2.473231554031372	2313902.0166791673
2.4759814739227295	1821982.0079354825
2.4787333011627197	1749670.131130625
