#wavelength	surface flux
0.676892	45532.581634680035
0.678297	46668.1462457986
0.679702	47815.45013309968
0.681109	48977.22124374575
0.682517	50160.81498665782
0.683926	51360.43814095048
0.685337	52572.90679856321
0.686749	53808.98970019167
0.688164	55057.56030846243
0.689581	56281.20751262747
0.691	57276.65460908256
0.692422	57872.54631255698
0.693847	59503.10682712819
0.695274	61385.39759801515
0.696705	62929.274646897626
0.698139	64247.324185215766
0.699576	65639.66073093849
0.701017	66980.78712898892
0.702461	68179.82172031834
0.70391	69964.81905415993
0.705362	71735.69223914597
0.706819	73177.42160620142
0.70828	74670.26379639572
0.709745	76157.39992585895
0.711216	77939.3553179466
0.71269	79558.78180866988
0.71417	81082.8979684633
0.715655	82045.96177370026
0.717145	82467.82565601208
0.71864	84887.29641883174
0.72014	86768.54225857943
0.721647	88228.63630911103
0.723158	89481.45011933519
0.724676	90551.54927338264
0.726199	91849.13729692018
0.727728	93747.87883529835
0.729264	94498.99156123989
0.730805	96379.2161767101
0.732353	99114.66283725717
0.733907	100613.48306670538
0.735468	102269.25606598111
0.737035	103657.41022374752
0.738609	105457.61263277456
0.74019	106838.85754405415
0.741777	107130.36877295982
0.743372	107762.4251792602
0.744973	108330.24058176269
0.746582	107941.5703502471
0.748197	106955.12091267318
0.74982	105078.11100759148
0.751451	101922.80561928358
0.753088	97052.70920630996
0.754734	90210.69861700434
0.756386	80882.50034087374
0.758047	68270.29276852275
0.759715	52790.22514277209
0.76139	34836.15489048363
0.763074	17143.337268291343
0.764765	5237.630287424924
0.766464	923.851662605211
0.768172	1224.3402029890544
0.769887	1419.3498275076113
0.77161	9751.48441985466
0.773341	29831.54104822238
0.775081	54966.1655776752
0.776829	79069.17558686485
0.778585	93779.24687852876
0.780349	103885.51472124844
0.782121	131700.3055454247
0.783902	150369.27625597408
0.785691	163430.22294395178
0.787489	174721.26145173187
0.789295	184349.92639407926
0.79111	191886.9232370401
0.792933	170137.8677685668
0.794764	100473.90954347214
0.796604	190452.61169440724
0.798453	224319.87381749094
0.80031	232303.8237329853
0.802176	239362.98615137424
0.804051	246128.40060631634
0.805934	252965.42184814162
0.807826	258958.2645419074
0.809727	261787.14327470583
0.811636	264515.8319170128
0.813554	269555.4113537639
0.81548	282859.66236217105
0.817416	291023.2805479944
0.81936	298668.45174192253
0.821313	304376.20134519396
0.823274	307463.7408742607
0.825244	319099.13273397065
0.827223	326233.73788938124
0.829211	330317.83663984574
0.831208	335529.86201142747
0.833213	345741.35784048657
0.835227	352404.30451167136
0.837249	355970.5253368934
0.83928	364836.0786675854
0.841321	378785.6419891688
0.843369	390344.2316589531
0.845427	399154.6933677384
0.847493	408645.53801438096
0.849567	417070.75580560585
0.851651	423453.8267869755
0.853742	434656.5655199691
0.855843	446260.75208160206
0.857952	455816.5562890274
0.86007	464994.604815654
0.862196	472540.02016374335
0.864331	482354.1945586637
0.866474	493073.4592924014
0.868626	502882.4053525946
0.870786	514763.8606435835
0.872955	525743.460168312
0.875132	533608.4153083661
0.877317	543352.7680876008
0.879511	549072.6712026466
0.881713	557021.6912910772
0.883923	564785.6099516161
0.886142	572122.3579584832
0.888369	579331.2424512301
0.890604	587388.7175982313
0.892847	576931.0253947243
0.895099	583138.2859008239
0.897358	608036.3715595374
0.899626	639192.220976835
0.901901	657743.2286646364
0.904185	679087.7714393844
0.906476	687692.8985022422
0.908776	700670.0536166632
0.911083	722450.0502671406
0.913398	725508.0346414788
0.915721	729610.9585606217
0.918051	726299.541820165
0.92039	769977.9611394788
0.922736	780266.168420169
0.925089	745918.4866711396
0.927451	651640.7695514989
0.929819	527796.9036697777
0.932195	612357.3250252333
0.934579	605337.2264777044
0.93697	657921.1440805874
0.939369	749737.0835266946
0.941774	762699.0622982229
0.944187	662828.1591989504
0.946607	630938.7850787379
0.949035	739578.4111526168
0.951469	727300.6135520228
0.953911	752014.1327741619
0.956359	884692.2731513033
0.958814	763332.2195085814
0.961277	717378.2498955528
0.963746	750604.7638429711
0.966222	779150.1658225973
0.968705	786874.845439087
0.971194	959983.972294384
0.97369	1030692.7824063284
0.976193	1006035.4817248147
0.978702	1068697.2165212403
0.981217	1089198.557322639
0.983739	1126520.4368284403
0.986268	1150121.545024229
0.988802	1201050.3033570717
0.991343	1248832.7943229564
0.99389	1271673.4144105036
0.996444	1312328.5526551902
0.999003	1341461.869097179
1.00157	1361138.070872038
1.00414	1387768.5004865152
1.00672	1422597.6186882795
1.0093	1452640.8205762557
1.01189	1482578.4512541483
1.01448	1518983.9531528822
1.01708	1547011.109771178
1.01969	1572459.9178617303
1.0223	1593642.0136780737
1.02492	1592679.703642361
1.02754	1627938.6172552027
1.03017	1612133.8215063852
1.0328	1694964.6134221274
1.03544	1731699.7402257079
1.03808	1760939.46673202
1.04073	1790249.3028107204
1.04339	1818915.2919096602
1.04604	1846465.7174026705
1.04871	1865410.8314866486
1.05138	1889302.209224856
1.05405	1925225.8555315563
1.05673	1959438.1197158494
1.05941	1989339.005842014
1.0621	2017251.8064928302
1.06479	2046303.3723114538
1.06749	2073751.0164694726
1.07019	2092200.7771495658
1.07289	2125382.0703100753
1.0756	2161782.971968155
1.07832	2187322.8684800896
1.08104	2221187.5791308857
1.08376	2255518.27405383
1.08649	2275356.283193719
1.08922	2276925.4243650897
1.09195	2277321.4385922495
1.09469	2275857.080746776
1.09743	2297693.4963481775
1.10018	1975378.733199645
1.10293	1665118.4459783114
1.10568	1434957.042431795
1.10844	1898400.212900241
1.1112	1745723.6825206715
1.11396	1425377.230769707
1.11673	1390722.0194377485
1.1195	1412406.9680999464
1.12228	1125184.3633212908
1.12505	1548157.7698911
1.12783	1563405.3918834291
1.13062	1643249.198833473
1.13341	990336.3504047089
1.1362	1474693.0957313424
1.13899	1993991.9142689258
1.14178	1853528.4099821635
1.14458	2099884.9915045346
1.14738	2298647.2753008525
1.15019	1620821.6396702328
1.153	837677.2615956604
1.1558	1059163.0948562925
1.15862	1151437.253731452
1.16143	1244923.1511974481
1.16425	1690840.4559283121
1.16707	2161361.5523945857
1.16989	1935323.440558245
1.17271	2144486.4240868194
1.17554	2567037.6807370237
1.17837	2848724.259439825
1.1812	2951655.0181881324
1.18403	3181716.4377407553
1.18686	3197876.8755603554
1.1897	3226770.7546438887
1.19253	3436754.2338243295
1.19537	3550581.641318083
1.19822	3624808.7409252888
1.20106	3700916.416036502
1.2039	3690165.9114357587
1.20675	3784555.8545305966
1.2096	3842159.2574709244
1.21245	3863215.3920985027
1.2153	3957120.963766837
1.21815	4022401.5870120805
1.221	4075068.6431195275
1.22385	4141146.755826209
1.22671	4209269.76327306
1.22957	4254379.127013697
1.23242	4279950.463757767
1.23528	4335391.835811982
1.23814	4399626.739327731
1.241	4450832.911681906
1.24387	4500668.84278651
1.24673	4542654.299729803
1.24959	4583166.264135429
1.25245	4624750.97191916
1.25532	4690053.001496261
1.25818	4744382.946135468
1.26105	4761306.758611403
1.26392	4795917.018122481
1.26678	4842846.72572345
1.26965	4867204.47247967
1.27252	4886898.326042755
1.27538	4966548.520914072
1.27825	4993947.354792423
1.28112	4973743.38314567
1.28399	5053072.012332204
1.28686	5029213.635026417
1.28973	4949087.357161593
1.2926	4915247.647827414
1.29546	5024199.0512304595
1.29833	5105181.917657111
1.3012	4956780.951135881
1.30407	4960656.5147886695
1.30694	4940589.05385933
1.30981	5041141.929365767
1.31267	4904065.388917319
1.31554	5161333.427533177
1.31841	5426810.24905954
1.32128	5116052.236451221
1.32414	4691651.429204439
1.32701	4626353.391916296
1.32987	3853841.021464508
1.33274	2599562.443706722
1.3356	1874091.8529232987
1.33847	715983.3896381934
1.34133	238925.47807648126
1.34419	575759.7309723226
1.34705	780525.631889544
1.34991	384740.7359741628
1.35277	155620.14301254862
1.35563	239829.85504192638
1.35849	257823.5621759052
1.36135	103466.90843104078
1.3642	250692.34501680854
1.36706	262342.9109062132
1.36991	204872.3376786129
1.37277	649971.6059290823
1.37562	1292182.3632776341
1.37847	1458980.5688837417
1.38132	549109.0981266133
1.38417	61162.107907105266
1.38701	146402.66883780842
1.38986	112984.31302830747
1.39271	142556.11425097543
1.39555	234751.84677477923
1.39839	190068.30946131915
1.40123	399107.65768671245
1.40407	710787.1691157218
1.40691	987017.7701488874
1.40974	500745.0816246249
1.41258	136751.38782118843
1.41541	376706.99724459404
1.41824	485891.8234509437
1.42107	256128.99163995293
1.4239	170959.3523178271
1.42673	407340.20093946805
1.42955	683318.2920258548
1.43237	459597.4215947652
1.43519	851749.6451130623
1.43801	573695.2272661668
1.44083	718387.0199065851
1.44365	1167715.657666265
1.44646	1335010.9473930858
1.44927	2418894.588729687
1.45208	3005714.7386405226
1.45489	2418015.7773750084
1.45769	2900618.0884428415
1.4605	3251124.6746361153
1.4633	3375525.5952208615
1.4661	3539265.1036635917
1.4689	2609172.56156551
1.47169	2733834.912817491
1.47449	2601442.5963092297
1.47728	2537682.6907057213
1.48007	2627362.909938748
1.48286	3664842.742914497
1.48564	4496947.292159107
1.48842	4609215.328094283
1.4912	4720039.8524943255
1.49398	4497220.387885339
1.49676	3926762.7992907823
1.49953	4621500.050357853
1.5023	5410833.324481652
1.50507	5368717.968012783
1.50784	5124723.168592885
1.51061	5400255.38120274
1.51337	5704865.248047267
1.51613	6182268.435071517
1.51888	6640300.80937555
1.52164	7237612.036576783
1.52439	7644106.53717119
1.52714	7455235.961910685
1.52989	7376964.619245429
1.53263	7692180.677821324
1.53538	8023782.156482576
1.53812	8133979.9843958
1.54086	8159551.336746484
1.54359	8196034.662721938
1.54632	8467531.611779634
1.54905	8500401.047118759
1.55178	8761392.4947315
1.5545	8748909.47239235
1.55723	8572207.267687451
1.55995	8667202.344619337
1.56266	8858006.15938946
1.56538	9223523.7776435
1.56809	9427671.360053653
1.5708	9402250.25351164
1.57351	9154323.445414452
1.57621	8858690.954173047
1.57891	8206667.328428956
1.58161	8642199.032095077
1.5843	9612169.686406923
1.587	9820703.81381977
1.58969	9801467.687629128
1.59238	9724504.439760806
1.59506	9541841.60100377
1.59774	9336787.930519767
1.60042	9125509.04293933
1.6031	9143610.502199199
1.60577	9310139.431818888
1.60844	9338619.604785182
1.61111	9146812.613136612
1.61378	8872499.788866177
1.61644	8707972.5566709
1.6191	8396114.55132496
1.62176	7963111.695383425
1.62441	7625441.171793569
1.62707	7281690.309452637
1.62971	6607807.406891022
1.63236	6331824.757773291
1.635	7478309.272557397
1.63764	9094034.760050016
1.64028	9624838.64688622
1.64292	9492535.14128145
1.64555	8726403.301270219
1.64818	7377699.730024072
1.65081	7329864.863740014
1.65343	8466373.847208785
1.65605	8876551.161116645
1.65867	9033921.43980719
1.66128	8809160.200306103
1.6639	7476664.100774211
1.66651	4911093.195739831
1.66911	4586041.212163135
1.67172	6753209.960646613
1.67432	8206445.950535234
1.67692	8050176.260060858
1.67951	7318555.360628092
1.68211	7427238.427484658
1.6847	7546282.09108745
1.68728	7022070.063649113
1.68987	6830348.94574611
1.69245	6424807.487479333
1.69503	5193975.567104367
1.6976	4459840.532971416
1.70018	5135880.206567137
1.70275	5111260.332898336
1.70531	5363264.687589723
1.70788	6252120.842337583
1.71044	6284326.689784118
1.713	6830324.707785152
1.71556	7345591.152817321
1.71811	7657846.036466358
1.72066	8207128.796076187
1.72321	8115097.564739822
1.72575	7848640.396353986
1.7283	7699537.600201585
1.73084	7427751.889109962
1.73337	7065677.210196349
1.73591	6831903.865453182
1.73844	6875688.724170859
1.74097	7050994.092621284
1.74349	6795814.9204543745
1.74602	6350234.49852307
1.74854	6137276.788653106
1.75105	5636595.075161739
1.75357	4862388.397208441
1.75608	5497387.58345096
1.75859	6884640.106144458
1.7611	7254671.063266187
1.7636	6870236.730517249
1.7661	5769265.028135824
1.7686	4888636.674593458
1.7711	3850254.9426023173
1.77359	2727642.907174037
1.77608	1674592.5166766974
1.77857	1205720.8450731512
1.78105	1474020.7628093415
1.78354	1763725.8114468558
1.78602	1368311.3303041223
1.78849	1002894.546875061
1.79097	1323829.1225043675
1.79344	1878751.2836018717
1.79591	2499441.0951671265
1.79837	3218441.3590951734
1.80084	2028339.037379658
1.8033	856975.3341189078
1.80576	388092.2992075238
1.80821	253394.742468465
1.81067	791508.2728633479
1.81312	1238039.0476593075
1.81557	657507.9520448523
1.81801	343894.73224637844
1.82046	882680.2375099023
1.8229	1348691.9138240232
1.82533	890404.3665464162
1.82777	282264.5060355954
1.8302	163186.14248683324
1.83263	336663.72039987374
1.83506	609754.8032161514
1.83749	1021091.3419670898
1.83991	1217255.0288869324
1.84233	954740.5339326875
1.84475	887546.482152186
1.84716	1071334.7404981267
1.84957	1445867.4829273243
1.85198	1460713.397657297
1.85439	745127.711212016
1.8568	501347.1455607005
1.8592	657240.9694473547
1.8616	491928.4289184392
1.864	230612.36661175787
1.86639	175634.00296996237
1.86878	286554.1722633612
1.87118	567440.5122711223
1.87356	937549.0873872039
1.87595	1205123.550401187
1.87833	2027810.3765884864
1.88071	3376791.8712701774
1.88309	3329689.578372676
1.88547	2495251.6785402293
1.88784	2177671.259184209
1.89021	1946463.7354669564
1.89258	3133615.748427422
1.89494	4046859.42802977
1.89731	2538195.045150681
1.89967	882211.8137224787
1.90203	235464.6283234118
1.90439	204227.80388937594
1.90674	364825.21504281176
1.90909	399454.1066402649
1.91144	249887.30895370373
1.91379	109404.09327197743
1.91613	102807.5033173161
1.91848	203496.61253761384
1.92082	324889.0194632609
1.92315	321302.1099817662
1.92549	228687.37897875367
1.92782	265532.23834357713
1.93015	414623.1785817065
1.93248	554348.662041527
1.93481	588029.4726535382
1.93713	514914.00724353606
1.93945	551752.5281242515
1.94177	763918.2847061898
1.94409	919468.5929242382
1.94641	967340.4648311381
1.94872	1233140.6739203369
1.95103	1543505.9221267027
1.95334	1007204.6091481459
1.95564	665536.194039933
1.95795	787032.6365312086
1.96025	823471.1195529255
1.96255	848752.0966579143
1.96484	1059989.1482090184
1.96714	1609979.393401858
1.96943	2359663.8826788077
1.97172	2804225.5632326556
1.97401	2552861.149342999
1.97629	2718770.3263879726
1.97858	3445359.1148114996
1.98086	3910409.0978737515
1.98314	4410977.034478361
1.98541	4703451.6115878085
1.98769	4316420.76908157
1.98996	3401022.514232487
1.99223	3302142.0770620015
1.9945	4010335.3216731837
1.99677	3811726.0910283905
1.99903	3702229.0514139207
2.00129	4477243.579717894
2.00355	5637062.041252354
2.00581	6354314.378070678
2.00806	6656770.984391641
2.01031	7767726.689976724
2.01256	8197532.383378394
2.01481	7437857.398439726
2.01706	6604846.902070655
2.0193	6642916.174788331
2.02154	7646339.750939126
2.02378	8625342.443092022
2.02602	8805484.292468766
2.02825	9169631.269058755
2.03049	9646626.580019092
2.03272	10095737.557131568
2.03494	10449554.87104825
2.03717	10756949.11380246
2.03939	11100930.387609363
2.04162	11683979.069018528
2.04384	12216301.276543029
2.04605	12727188.639589539
2.04827	13110083.630349262
2.05048	13011744.272038445
2.05269	12385568.12071312
2.0549	12252310.482645353
2.05711	12544523.301584093
2.05931	12985064.236174941
2.06151	13317986.39820358
2.06371	13567653.143056143
2.06591	13722658.43217026
2.06811	13843588.164525477
2.0703	13921421.419352824
2.07249	13921385.778582498
2.07468	13776558.98986859
2.07686	13731741.838343015
2.07905	13819478.99073447
2.08123	13906006.024438974
2.08341	13929382.359442774
2.08559	13909288.959679237
2.08776	13951059.432104219
2.08994	13928383.198725568
2.09211	13828583.529578324
2.09428	13700929.70372318
2.09645	13700675.853472777
2.09861	13674269.044967927
2.10077	13604313.25911257
2.10293	13503826.498892412
2.10509	13387354.198336616
2.10725	13263934.389772352
2.1094	13303032.569763845
2.11155	13315352.541827625
2.1137	13207324.06732137
2.11585	12893588.435707387
2.11799	12664815.683601497
2.12013	12539480.669503957
2.12227	12514352.18237824
2.12441	12574645.996923558
2.12655	12632912.241456106
2.12868	12621948.979590477
2.13081	12622727.671082234
2.13294	12622706.498382388
2.13507	12418572.825502176
2.13719	12048857.674197173
2.13931	11734174.798161376
2.14143	11452427.896061476
2.14355	10978049.092061682
2.14567	10733218.84510321
2.14778	10543502.377185786
2.14989	10319259.529029606
2.152	9904169.6354659
2.1541	10040364.829118526
2.15621	10223382.069303859
2.15831	10244192.522740325
2.16041	9696027.555714
2.16251	9432823.142824471
2.1646	9282564.698263595
2.1667	9228557.834480198
2.16879	9399362.129089098
2.17087	9592348.709202705
2.17296	9732782.689711083
2.17504	9778591.147241645
2.17713	9655716.287452461
2.1792	9397709.353662545
2.18128	9047527.61029043
2.18336	8638931.138241205
2.18543	8210401.286007543
2.1875	7763468.239437016
2.18957	7240606.847867247
2.19163	6396150.5694842
2.1937	5183784.405514149
2.19576	3950777.96570681
2.19782	2856491.6172737097
2.19987	2318839.2686565886
2.20193	2049671.2285630454
2.20398	2004058.0187692388
2.20603	2110604.73037143
2.20808	2334714.580131751
2.21012	2602071.665465733
2.21217	2885347.0981071517
2.21421	2998341.066974473
2.21625	2942673.6980028013
2.21828	2742290.7135417084
2.22032	2628343.7707952172
2.22235	2551114.440765614
2.22438	2442381.2702174946
2.22641	2149522.3916745577
2.22843	1819920.2271683852
2.23046	1532811.6046280598
2.23248	1356016.4201234682
2.2345	1298357.58215439
2.23651	1255599.121047124
2.23853	1212790.419086463
2.24054	1071104.8384210018
2.24255	910237.598684538
2.24456	745219.1723950085
2.24657	769416.0733235761
2.24857	891465.8483590491
2.25057	1065660.1288384818
2.25257	1133204.4704251653
2.25457	1193630.5530496966
2.25656	1249572.3655553022
2.25856	1304359.8754099882
2.26055	1224222.2530826586
2.26254	1077829.2095408477
2.26453	915517.2512687839
2.26651	822813.5684216049
2.2685	788623.7961548083
2.27048	868234.6759783486
2.27246	985651.2555957343
2.27443	1095900.2408900457
2.27641	1114927.158107445
2.27838	1063903.7682976238
2.28036	985539.1975566423
2.28233	931702.4134685085
2.28429	887462.5289849242
2.28626	844703.3813658695
2.28823	782043.186748704
2.29019	750341.9868732545
2.29215	742696.8505986861
2.29411	787365.8556833642
2.29607	829959.0628286679
2.29802	870662.9857201728
2.29998	920509.753752875
2.30193	1040055.4553920258
2.30388	1239547.7328614404
2.30583	1639361.295071973
2.30778	2042395.4991229991
2.30972	2418404.3455706914
2.31167	2394640.285123704
2.31361	2140404.430626007
2.31555	1480747.1159147988
2.31749	982263.4193651518
2.31943	606580.2466318009
2.32137	589549.1346224751
2.32331	593704.33471771
2.32524	614621.7363546104
2.32718	600802.3171579607
2.32911	592401.3059288263
2.33104	592502.1830966396
2.33297	583470.4092523663
2.3349	570568.1520762107
2.33683	551709.1278129093
2.33876	532763.7866652615
2.34068	512530.15023440577
2.34261	471958.81208765536
2.34453	434285.6378467558
2.34646	399478.45854090137
2.34838	423290.81134499016
2.3503	479293.77975240507
2.35223	600113.1882240898
2.35415	718750.8503048262
2.35607	834438.5793967966
2.35799	917274.007014581
2.35991	998562.7242063152
2.36183	1077984.7219183163
2.36375	1034905.8810969029
2.36566	931088.7205424787
2.36758	693884.162509009
2.3695	503407.43503011146
2.37142	342884.4450862293
2.37334	362177.32270126115
2.37526	396302.2497345147
2.37718	453578.18524351594
2.3791	513542.0096210698
2.38101	578397.9588292931
2.38293	675263.0882169012
2.38485	764370.1314354497
2.38677	845555.7603550437
2.3887	827201.627019972
2.39062	795044.6938032286
2.39254	765665.6333983683
2.39446	776583.5411867562
2.39639	813524.2414345641
2.39831	860566.243643571
2.40024	883207.1616472858
2.40216	859209.7104596217
2.40409	882390.4476908019
2.40602	936835.5672965012
2.40795	1132835.518412042
2.40989	1306133.645887625
2.41182	1449519.207191432
2.41376	1517775.9898876369
2.4157	1589038.899335257
2.41764	1749367.074057708
2.41958	1857450.2883106987
2.42152	1923053.9552661055
2.42347	1732446.0603685295
2.42542	1584651.6316582935
2.42737	1600046.3929713927
2.42932	1815717.5211667374
2.43128	2130852.857566615
2.43324	2223955.486106421
