#wavelength	surface flux
0.8	415209.32255916536
0.8002000000000001	417097.6072534843
0.8004000500000003	419427.27379099955
0.8006001500125003	421761.97636796493
0.8008003000500035	424097.2626205747
0.8010005001250161	426433.13269474875
0.8012007502500472	428769.5867364379
0.8014010504376099	430532.8607138237
0.8016014007002193	432104.3820392726
0.8018018010503944	433676.29624505277
0.8020022515006572	435248.6034293851
0.8022027520635323	436821.30369051226
0.8024033027515483	438413.20532235556
0.8026039035772362	440023.93622833356
0.8028045545531306	441635.06981703814
0.8030052556917691	443246.60618914064
0.803206007005692	444858.54544533475
0.8034068085074435	446586.18459284335
0.8036076602095705	448637.44979133434
0.8038085621246229	450689.22780612326
0.8040095142651542	452741.51876541716
0.8042105166437206	454794.32279745024
0.8044115692728815	456838.0544946976
0.8046126721651998	458470.0063419011
0.8048138253332411	460102.36617706507
0.8050150287895745	461735.1341021894
0.805216282546772	463368.3102192945
0.8054175866174087	465001.89463042805
0.8056189410140631	466577.52293197805
0.8058203457493168	468137.0242000622
0.8060218008357541	469696.91534346144
0.8062233062859632	471257.19645964727
0.8064248621125346	472817.8676461111
0.806626468328063	474652.8165113396
0.8068281249451449	476723.4603523797
0.8070298319763813	478794.62185438257
0.8072315894343755	480866.30114675936
0.8074333973317341	482938.49835896003
0.8076352556810671	484481.4079321397
0.8078371644949874	484749.372473154
0.8080391237861113	485017.4040053035
0.8082411335670578	485285.50254533597
0.8084431938504498	485553.6681100037
0.8086453046489125	485793.21613033395
0.8088474659750746	485498.7684423052
0.8090496778415686	485204.2471423541
0.809251940261029	484909.65221207816
0.8094542532460944	484614.98363306944
0.8096566168094059	484320.24138691626
0.8098590309636085	484450.14190762374
0.8100614957213493	484679.48325708066
0.8102640110952797	484908.881941875
0.8104665770980536	485138.3379763406
0.8106691937423283	485367.8513748149
0.8108718610407639	485905.72696813755
0.8110745790060241	486679.4815417421
0.8112773476507757	487453.4295539908
0.8114801669876885	488227.57105324225
0.8116830370294355	489001.9060878681
0.8118859577886929	489490.60313017364
0.8120889292781401	489385.7376644238
0.8122919515104597	489280.84598230757
0.8124950244983374	489175.9280772708
0.8126981482544621	489070.98394275777
0.8129013227915257	489039.38806203223
0.8131045481222237	489847.93340862193
0.8133078242592543	490656.68089154846
0.8135111512153191	491465.63056134543
0.813714529003123	492274.78246856
0.8139179576353739	493084.13666375144
0.8141214371247829	499575.5025301521
0.8143249674840641	507170.2896346294
0.814528548725935	514766.97543587815
0.8147321808631167	522365.56040858757
0.8149358639083326	529966.0450275377
0.8151395978743097	534611.5122555819
0.8153433827737784	537260.3233177331
0.8155472186194719	539909.796582649
0.8157511054241268	542559.9322158805
0.815955043200483	545210.7303830222
0.8161590319612831	547402.3973657427
0.8163630717192736	548752.0960194153
0.8165671624872033	550102.1320977497
0.8167713042778252	551452.5056851051
0.8169754971038948	552803.2168658581
0.8171797409781707	553935.8144662305
0.8173840359134155	553324.731165613
0.8175883819223938	552713.4950941711
0.8177927790178745	552102.106213711
0.8179972272126291	551490.5644860306
0.8182017265194322	550878.8698729189
0.8184062769510622	554418.9408574565
0.8186108785203001	558598.8156686928
0.8188155312399301	562779.7354486262
0.8190202351227402	566961.7004585093
0.819224990181521	571144.7109596422
0.8194297964290664	573643.1585090912
0.8196346538781738	575126.2330138482
0.8198395625416434	576609.6782872308
0.8200445224322789	578093.4944219323
0.820249533562887	579577.6815106671
0.8204545959462778	581247.4628025462
0.8206597095952644	583215.7732095601
0.8208648745226633	585184.5756941771
0.8210700907412941	587153.870379415
0.8212753582639793	589123.6573883222
0.8214806771035456	590156.8055704093
0.8216860472728215	585416.3416448587
0.8218914687846397	580674.6926033264
0.822096941651836	575931.8581495314
0.822302465887249	571187.8379871256
0.8225080415037209	566442.6318196766
0.8227136685140968	569113.453537566
0.8229193469312254	572626.951790118
0.8231250767679583	576141.3284172342
0.8233308580371503	579656.5836385053
0.8235366907516598	583172.7176735844
0.8237425749243477	587382.4898875712
0.8239485105680789	591960.4890699792
0.824154497695721	596539.6327521799
0.824360536320145	601119.921220302
0.8245666264542252	605701.3547605409
0.8247727681108388	609566.3752429672
0.8249789613028664	612404.6832748696
0.8251852060431922	615243.7008837824
0.825391502344703	618083.4282470961
0.8255978502202894	620923.8655422534
0.8258042496828445	623568.6501091946
0.8260107007452654	625260.4459231389
0.8262172034204517	626952.6646860349
0.8264237577213068	628645.3065036221
0.8266303636607373	630338.3714816645
0.8268370212516525	632031.8597259505
0.8270437305069654	630721.6069257838
0.8272504914395923	629176.2706377717
0.8274573040624523	627630.5480156871
0.8276641683884679	626084.4389629485
0.8278710844305652	624537.9433829448
0.8280780522016729	625562.8047076483
0.8282850717147234	627763.4614521583
0.8284921429826521	629964.6683608522
0.8286992660183978	632166.4255712751
0.8289064408349024	634368.7332209989
0.8291136674451112	635393.911684814
0.8293209458619727	634934.3512750953
0.8295282760984382	634474.6759752745
0.829735658167463	634014.8857566284
0.8299430920820048	633554.9805904281
0.8301505778550254	633148.3215703798
0.8303581154994891	632954.5407514042
0.8305657050283641	632760.7114872237
0.8307733464546212	632566.8337657274
0.8309810397912352	632372.9075748003
0.8311887850511829	632178.9329023259
0.8313965822474458	637979.9028690506
0.8316044313930077	644060.5824215699
0.8318123325008561	650142.782143983
0.8320202855839813	656226.5024163236
0.8322282906553774	662311.7436187329
0.8324363477280413	664500.2070134652
0.8326444568149735	665119.7760518186
0.8328526179291771	665739.4999824308
0.8330608310836596	666359.3788440266
0.8332690962914304	666979.412675337
0.8334774135655034	667229.9262121052
0.833685782918895	667067.5629239399
0.8338942043646247	666905.1590449526
0.834102677915716	666742.7145649955
0.834311203585195	666580.2294739184
0.8345197813860912	667666.057115325
0.8347284113314379	672954.2303434508
0.8349370934342709	678243.7256148804
0.8351458277076294	683534.5432601217
0.8353546141645565	688826.6836097831
0.8355634528180977	694120.1469945295
0.8357723436813022	687804.9585137952
0.8359812867672226	681344.8376241905
0.8361902820889144	674883.1017043665
0.8363993296594368	668419.7503505608
0.8366084294918518	661954.7831589144
0.8368175815992247	663859.0178835973
0.8370267859946247	668646.7244185709
0.8372360426911234	673435.6278801766
0.8374453517017962	678225.7285676473
0.8376547130397217	683017.0267802892
0.8378641267179816	686087.5158372738
0.8380735927496613	687450.0939549634
0.8382831111478488	688813.0127171816
0.8384926819256358	690176.2722090896
0.8387023050961173	691539.8725158718
0.8389119806723914	692818.1386151494
0.8391217086675596	693855.6065330006
0.8393314890947265	694893.3338178305
0.8395413219670003	695931.3205344817
0.8397512072974922	696969.5667478128
0.8399611450993165	698107.2877437562
0.8401711353855914	704172.2855902194
0.8403811781694378	710238.7996861426
0.8405912734639802	716306.8304105913
0.8408014212823464	722376.3781427239
0.8410116216376671	728447.4432617889
0.8412218745430766	733423.8550243194
0.8414321800117124	738082.5673928328
0.8416425380567154	742742.4444394407
0.8418529486912297	747403.4864553113
0.8420634119284025	752065.693731682
0.8422739277813847	754727.768876626
0.8424844962633302	755627.2886236003
0.842695117387396	756527.0332505101
0.8429057911667428	757427.0028135767
0.8431165176145345	758327.1973690345
0.8433272967439382	759384.2021337008
0.8435381285681244	760823.4257772766
0.8437490131002665	762263.009226763
0.8439599503535415	763702.9525721108
0.84417094034113	765143.255903296
0.8443819830762154	766623.1702467886
0.8445930785719846	768894.1680396175
0.8448042268416277	771165.7335818933
0.8450154278983382	773437.8670155543
0.8452266817553128	775710.5684825737
0.8454379884257517	777983.8381249601
0.8456493479228583	780567.3883184822
0.845860760259839	783226.166827692
0.846072225449904	785885.6100315291
0.8462837435062666	788545.7180961677
0.8464953144421433	791206.4911878239
0.8467069382707537	793125.3397086281
0.8469186150053215	794465.8420266875
0.847130344659073	795806.6794703268
0.8473421272452377	797147.8521233256
0.8475539627770492	798489.3600694891
0.8477658512677435	800132.1763983481
0.8479777927305605	802414.4799761588
0.8481897871787432	804697.3541298633
0.848401834625538	806980.7990021076
0.8486139350841944	809264.8147355686
0.8488260885679657	811486.6118258155
0.8490382950901076	812943.580856995
0.8492505546638802	814400.9141304329
0.8494628673025462	815858.6117371887
0.8496752330193721	817316.6737683483
0.8498876518276269	818775.1003150137
0.8501001237405839	817645.7194790973
0.8503126487715191	815999.4117132771
0.850525226933712	814352.6923705162
0.8507378582404455	812705.5613479199
0.8509505427050057	811058.0185425668
0.8511632803406821	810490.7818214999
0.8513760711607672	810663.4972031016
0.8515889151785576	810836.2557635489
0.8518018124073523	811009.0575136362
0.8520147628604541	811181.9024641609
0.8522277665511693	812993.6620016656
0.8524408234928071	817836.7689866292
0.8526539336986805	822681.0867483403
0.8528670971821053	827526.6155894923
0.8530803139564007	832373.3558128488
0.8532935840348901	837171.294982562
0.8535069074308987	841548.050502117
0.8537202841577566	845925.9002105558
0.8539337142287962	850304.844381422
0.8541471976573534	854684.8832883283
0.8543607344567677	859066.0172049621
0.8545743246403821	862025.6338242259
0.8547879682215422	864760.063210155
0.8550016652135977	867495.1762034303
0.8552154156299011	870230.972974954
0.8554292194838088	872967.4536956727
0.8556430767886797	875163.6470367512
0.855856987557877	877031.9258193809
0.8560709518047664	878900.6716717051
0.8562849695427177	880769.8847104931
0.8564990407851035	882639.5650525413
0.8567131655452999	884500.7728879227
0.8569273438366862	886347.7976569292
0.8571415756726455	888195.2841821284
0.8573558610665638	890043.2325789594
0.8575702000318304	891891.6429628878
0.8577845925818384	893776.1628148394
0.857999038729984	895883.8203738087
0.8582135384896665	897992.0048471674
0.858428091874289	900100.7163666446
0.8586426988972576	902209.955064001
0.8588573595719821	904319.7210710325
0.8590720739118751	906032.6356696404
0.8592868419303532	907699.1263431284
0.8595016636408359	909366.0336392847
0.8597165390567462	911033.3576622645
0.8599314681915105	912701.0985162505
0.8601464510585584	914265.3593427732
0.860361487671323	915774.8634519833
0.8605765780432408	917284.7449372202
0.8607917221877518	918795.0038928298
0.8610069201182988	920305.6404131778
0.8612221718483286	920672.8989537394
0.8614374773912907	919391.3707708634
0.8616528367606385	918109.522205942
0.8618682499698288	916827.3531788784
0.8620837170323213	915544.8636095584
0.8622992379615795	914782.3265161912
0.8625148127710699	916594.231025972
0.8627304414742627	918406.5885118804
0.8629461240846313	920219.3990871605
0.8631618606156526	922032.6628650845
0.8633776510808066	923846.3799589528
0.8635934954935769	927836.4908313424
0.8638093938674504	932005.9649973611
0.8640253462159173	936176.4815319212
0.8642413525524714	940348.0406956148
0.8644574128906095	944520.6427490985
0.8646735272438323	946460.0698242025
0.8648896956256433	947361.0084188938
0.8651059180495498	948262.1722482339
0.8653221945290621	949163.5613685305
0.8655385250776946	950065.1758361084
0.8657549097089641	952085.2177696861
0.8659713484363913	955537.3091627801
0.8661878412735006	958990.2635787239
0.866404388233819	962444.0812332713
0.8666209893308775	965898.7623422306
0.8668376445782103	968953.3765803773
0.8670543539893549	970372.353405323
0.8672711175778525	971791.6849744759
0.8674879353572469	973211.3713765194
0.8677048073410862	974631.412700164
0.8679217335429217	976051.8090341404
0.8681387139763074	977333.0504652053
0.8683557486548015	978607.6817051623
0.8685728375919655	979882.631602931
0.8687899808013633	981157.9002381711
0.8690071782965637	982433.4876905718
0.869224430091138	985096.4646019718
0.8694417361986609	988324.5045158745
0.8696590966327107	991553.3514397551
0.869876511406869	994783.0055753667
0.8700939805347206	998013.4671245107
0.8703115040298544	1001113.4520474791
0.870529081905862	1004064.1160994564
0.8707467141763385	1007015.5178174457
0.8709644008548827	1009967.6573858643
0.8711821419550964	1012920.5349891733
0.8713999374905854	1015695.2614531362
0.871617787474958	1017853.2723540156
0.8718356919218269	1020011.8227576221
0.8720536508448075	1022170.9127988296
0.8722716642575187	1024330.5426125462
0.8724897321735832	1026490.7123337172
0.8727078546066265	1028170.8934105326
0.8729260315702784	1029844.184114973
0.873144263078171	1031517.8931420875
0.8733625491439405	1033192.020596459
0.8735808897812266	1034866.5665826949
0.8737992850036719	1035298.4658008947
0.874017734824923	1035290.1996670542
0.8742362392586293	1035281.9314666805
0.874454798318444	1035273.6611992565
0.8746734120180236	1035265.3888642659
0.8748920803710283	1035725.8387618647
0.875110803391121	1036657.4270309095
0.8753295810919689	1037589.2481970219
0.875548413487242	1038521.3023184258
0.8757673005906139	1039453.5894533603
0.8759862424157616	1041047.5824111083
0.8762052389763657	1044555.9764888963
0.8764242902861098	1048065.2476652013
0.8766433963586814	1051575.3961593013
0.8768625572077712	1055086.422190526
0.8770817728470732	1058569.9508525007
0.8773010432902849	1059838.8921746283
0.8775203685511077	1061108.1507320884
0.8777397486432454	1062377.726604186
0.8779591835804065	1063647.6198702534
0.8781786733763015	1064917.8306096357
0.8783982180446457	1064822.6275221792
0.878617817599157	1064321.1210760176
0.8788374720535569	1063819.489253245
0.8790571814215703	1063317.7320225167
0.8792769457169257	1062815.8493524808
0.879496764953355	1060705.4111790315
0.8797166391445934	1057148.361153018
0.8799365683043796	1053590.4218644977
0.8801565524464557	1050031.5930911556
0.8803765915845676	1046471.8746106167
0.8805966857324639	1045983.4196857898
0.880816834903897	1053211.1712084874
0.881037039112623	1060440.7296690682
0.8812572983724012	1067672.0955192635
0.8814776126969944	1074905.2692109246
0.8816979821001687	1081834.059859035
0.8819184065956938	1081556.7870946927
0.8821388861973429	1081279.445012159
0.8823594209188923	1081002.033594105
0.882580010774122	1080724.5528231964
0.8828006557768155	1080447.002682095
0.8830213559407598	1081209.7628487207
0.8832421112797452	1082234.3797593461
0.8834629218075651	1083259.2528241987
0.8836837875380171	1084284.3821073177
0.8839047084849018	1085309.7676727579
0.884125684662023	1086333.7167986522
0.8843467160831886	1087356.5653600937
0.8845678027622095	1088379.6696336758
0.8847889447129001	1089403.0296833264
0.8850101419490785	1090426.6455729892
0.8852313944845657	1091851.0781343428
0.885452702333187	1094152.6451953296
0.8856740655087704	1096454.7876480808
0.8858954840251476	1098757.505636445
0.8861169578961539	1101060.799304305
0.886338487135628	1102906.9848524018
0.886560071757412	1098663.0455172255
0.8867817117753515	1094418.0451972156
0.8870034072032955	1090171.983627124
0.8872251580550963	1085924.8605416445
0.8874469643446101	1081676.6756753912
0.8876688260856963	1084731.5293801376
0.8878907432922178	1089298.824028559
0.8881127159780409	1093867.26050064
0.8883347441570356	1098436.839081844
0.8885568278430749	1103007.560057689
0.8887789670500358	1107037.444037854
0.8890011617917983	1110683.8693909906
0.8892234120822464	1114331.2063504674
0.8894457179352669	1117979.455144181
0.8896680793647509	1121628.6160000958
0.8898904963845921	1123053.0763819336
0.8901129690086883	1120231.365140034
0.8903354972509405	1117408.9484703243
0.8905580811252535	1114585.8261964452
0.8907807206455347	1111761.9981420012
0.8910034158256963	1108667.2432343944
0.8912261666796527	1103156.7602530185
0.8914489732213227	1097644.8996508955
0.8916718354646282	1092131.6610836165
0.8918947534234944	1086617.0442067015
0.8921177271118502	1081101.0486755702
0.8923407565436284	1072846.6127940228
0.8925638417327644	1064143.6241728764
0.8927869826931977	1055438.4598045717
0.8930101794388711	1046731.1191451757
0.8932334319837308	1038021.601650616
0.8934567403417267	1029653.490480599
0.8936801045268123	1021496.7841097926
0.8939035245529441	1013338.038562399
0.8941270004340824	1005177.2533286153
0.894350532184191	997014.4278985253
0.8945741198172371	1000661.0079206792
0.8947977633471915	1023896.3741286364
0.8950214627880284	1047137.5491781448
0.8952452181537254	1070384.5345214016
0.8954690294582639	1093637.3316110084
0.8956928967156286	1113886.4800568065
0.8959168199398075	1114610.3554837694
0.8961407991447926	1115334.4118795893
0.8963648343445789	1116058.6492895081
0.896588925553165	1116783.067758779
0.8968130727845534	1117507.6673326672
0.8970372760527496	1115969.256812638
0.8972615353717629	1114147.2908888878
0.8974858507556059	1112324.8694736564
0.8977102222182949	1110501.9924530718
0.8979346497738496	1108678.6597132308
0.8981591334362931	1121064.197172954
0.8983836732196523	1141223.5773127216
0.8986082691379572	1161387.997297511
0.8988329212052417	1181557.4583872964
0.8990576294355432	1201731.9618423718
0.8992823938429022	1215485.71807481
0.8995072144413631	1219688.5783475277
0.8997320912449734	1223892.489335312
0.8999570242677847	1228097.4513008422
0.9001820135238516	1232303.4645068643
0.9004070590272328	1235964.8182399322
0.9006321607919896	1236766.284197375
0.9008573188321878	1237567.950521308
0.9010825331618959	1238369.8172618218
0.9013078037951865	1239171.8844690206
0.9015331307461353	1239974.1521930208
0.9017585140288219	1242379.795008477
0.9019839536573292	1244924.124811858
0.9022094496457435	1247469.0906976876
0.9024350020081551	1250014.692824992
0.9026606107586572	1252560.9313528272
0.902886275911347	1260224.7405635517
0.9031119974803249	1270357.184145553
0.9033377754796951	1280492.1608384503
0.903563609923565	1290629.671275516
0.903789500826046	1300769.716090198
0.9040154482012526	1307661.557415917
0.904241452063303	1310344.0738122722
0.9044675124263188	1313027.2608377258
0.9046936293044254	1315711.1186599354
0.9049198027117517	1318395.647446602
0.9051460326624297	1320970.764357455
0.9053723191705955	1323077.7659901665
0.9055986622503881	1325185.2943732839
0.9058250619159507	1327293.3496384975
0.9060515181814298	1329401.9319175284
0.9062780310609752	1331511.0413421278
0.9065046005687405	1320124.8237736619
0.906731226718883	1307982.8658417799
0.9069579095255627	1295837.8724204306
0.907184649002944	1283689.8427507253
0.907411445165195	1271538.77607359
0.9076382980264862	1278826.1757793028
0.907865207600993	1294189.4180008732
0.9080921739028933	1309556.5010329944
0.9083191969463691	1324927.4258358711
0.9085462767456058	1340302.1933699562
0.9087734133147922	1349526.8869903653
0.9090006066681211	1351646.0356705198
0.909227856819788	1353765.7141378412
0.9094551637839932	1355885.9225247826
0.9096825275749393	1358006.66096382
0.9099099482068329	1360838.5268198065
0.9101374256938848	1366196.5755274901
0.9103649600503083	1371555.9637473482
0.9105925512903209	1376916.69181426
0.9108201994281437	1382278.7600631942
0.9110479044780008	1387642.1688291845
0.9112756664541204	1392545.654624088
0.911503485370734	1397439.8080428431
0.9117313612420768	1402335.1849999528
0.9119592940823873	1407231.7858013003
0.912187283905908	1412129.6107528498
0.9124153307268845	1403907.7715415766
0.9126434345595664	1390921.761238308
0.9128715954182063	1377932.5044324754
0.9130998133170609	1364940.0003124352
0.9133280882703902	1351944.2480663655
0.913556420292458	1349537.0094706262
0.9137848093975312	1358052.6102142325
0.9140132555998806	1366570.3398580234
0.9142417589137806	1375090.1989342258
0.9144703193535092	1383612.187975203
0.9146989369333476	1390051.41182494
