#wavelength	surface flux
0.428837	732.4087728793965
0.43312537	1423.9988716945325
0.43745662370000005	1665.644337931463
0.4418311899370001	1945.953282889001
0.44624950183637	2269.7490168008194
0.4507119968547338	2638.9509477161696
0.45521911682328114	3067.9387325916778
0.4597713079915139	3561.3503416878075
0.4643690210714291	4124.286331545532
0.4690127112821433	4765.35379002199
0.47370283839496474	5500.631330202564
0.47843986677891437	6325.175003063164
0.48322426544670355	7275.82561060964
0.48805650810117057	8366.836722147922
0.4929370731821824	9587.993055994437
0.49786644391400414	10956.363785276046
0.5028451083531442	12500.421303468795
0.5078735594366757	14188.399047013718
0.5129522950310424	15890.75341185338
0.5180818179813528	17489.84329783617
0.5232626361611664	20715.245538921426
0.5284952625227781	23479.047718783608
0.5337802151480058	26367.447081070317
0.5391180172994858	29529.69022884818
0.5445091974724807	32840.53914586753
0.5499542894472055	36190.72659171165
0.5554538323416777	39294.256889074466
0.5610083706650945	41634.863943300006
0.5666184543717453	41768.49622078801
0.5722846389154628	37298.32657004594
0.5780074853046174	23560.74504020368
0.5837875601576636	4628.075232753818
0.5896254357592402	73.32504700818926
0.5955216901168326	8559.027488158856
0.6014769070180009	39739.780579455095
0.607491676088181	72274.72415083594
0.6135665928490629	98987.87726392587
0.6197022587775535	122259.53045887534
0.625899281365329	144014.6117850391
0.6321582741789823	165415.80598572944
0.6384798569207721	187596.05704365458
0.6448646554899798	210565.99547243543
0.6513133020448797	235085.69011983482
0.6578264350653285	260892.61891262615
0.6644046994159818	288712.0187419946
0.6710487464101416	284443.02138889587
0.677759233874243	351364.71677701775
0.6845368262129854	386422.47210700874
0.6913821944751153	421599.46873539325
0.6982960164198664	463086.12536534667
0.7052789765840651	505540.8715318531
0.7123317663499058	550211.9291284436
0.7194550840134049	594003.9223842087
0.7266496348535388	639838.9124863719
0.7339161312020743	688268.221170096
0.741255292514095	731449.2504477598
0.748667845439236	748482.69629285
0.7561545238936284	653652.1301402127
0.7637160691325647	155311.35400095518
0.7713532298238903	118896.62720105646
0.7790667621221293	761677.7204062751
0.7868574297433505	1105541.2268585009
0.7947260040407841	911410.4031550464
0.8026732640811919	1402895.3502627397
0.8106999967220039	1512589.365970961
0.8188069966892239	1645619.0975864334
0.8269950666561161	1774283.4399562592
0.8352650173226772	1901379.0387654311
0.8436176674959041	2051752.338677688
0.852053844170863	2195242.151976479
0.8605743826125718	2349498.2353336457
0.8691801264386976	2507197.967889947
0.8778719277030844	2671530.319643748
0.8866506469801153	2838102.7302702875
0.8955171534499164	2965487.5138202407
0.9044723249844157	3225986.1631146036
0.9135170482342599	3418632.228578605
0.9226522187166025	3601878.2264029314
0.9318787409037684	3339325.551462667
0.941197528312806	3793693.1396096963
0.9506095035959342	3885072.5235315785
0.9601155986318936	4019773.4811319835
0.9697167546182125	4323420.393346147
0.9794139221643946	4856942.995212552
0.9892080613860387	5229924.78290146
0.9991001419998989	5582724.291997918
1.0090911434198981	5917959.263397633
1.019182054854097	6284569.197267171
1.0293738754026378	6525854.290798057
1.0396676141566643	6952455.982999949
1.050064290298231	7275639.62757925
1.0605649332012133	7645863.675817329
1.0711705825332256	7979879.255065057
1.0818822883585577	8359534.620406519
1.0927011112421434	8573172.562901126
1.1036281223545648	7510241.638221195
1.1146644035781104	7357098.200203168
1.1258110476138916	7944001.639845881
1.1370691580900303	8010472.395985871
1.1484398496709307	9010107.500936354
1.1599242481676402	7753290.25231341
1.1715234906493166	9469329.86728354
1.1832387255558097	11318730.511230627
1.1950711128113678	12176178.300437216
1.2070218239394814	12724115.545561256
1.2190920421788762	13343693.371444829
1.2312829626006652	13890528.475476524
1.2435957922266716	14414457.818076598
1.2560317501489384	14897137.070514655
1.2685920676504279	15325235.088844882
1.281277988326932	15734840.162634231
1.2940907682102014	15950163.387005517
1.3070316758923035	16170489.049133584
1.3201019926512265	16686135.979830839
1.3333030125777388	11580549.462235717
1.3466360427035162	6016491.051130199
1.3601024031305513	3247415.0934562483
1.373703427161857	7852186.510967432
1.3874404614334754	2839266.201991516
1.4013148660478103	4760736.723830145
1.4153280147082883	4375184.898059572
1.4294812948553712	5815471.250514888
1.443776107803925	8037242.593343643
1.4582138688819641	13201891.318710681
1.4727960075707838	13331251.122823363
1.4875239676464918	16796042.310006946
1.5023992073229566	18388463.52394528
1.5174231993961862	20218784.01072921
1.532597431390148	22177891.01226241
1.5479234057040496	23431154.145260546
1.5634026397610903	24149701.239569377
1.579036666158701	24167570.880515695
1.594827032820288	25591269.84420395
1.610775303148491	25750527.690394737
1.6268830561799759	25207365.01082122
1.6431518867417756	26807578.71215436
1.6595834056091934	26623733.404492114
1.6761792396652853	26521734.713188667
1.6929410320619382	25139903.63183991
1.7098704423825577	25322713.017091908
1.7269691468063835	26265910.80393514
1.744238838274447	23252239.016829792
1.7616812266571917	23705490.599116668
1.7792980389237634	10436762.267330801
1.7970910193130012	11268451.777087418
1.815061929506131	5699121.850515988
1.8332125488011928	5314850.612127839
1.8515446742892046	7186465.303161926
1.8700601210320964	6038987.609485454
1.8887607222424174	12890235.057176173
1.9076483294648416	5107218.122857494
1.92672481275949	4688959.930874846
1.9459920608870853	7194276.891802878
1.9654519814959561	8314663.119568542
1.9851065013109155	16078810.518497715
2.0049575663240247	18861654.897057783
2.025007141987265	24047044.376939178
2.0452572134071376	29411040.675302163
2.065709785541209	31327036.880432077
2.086366883396621	31976296.79384152
2.107230552230587	31719950.455579456
2.1283028577528933	32014584.647746578
2.1495858863304225	30719486.564537242
2.1710817451937263	30032683.267311484
2.1927925626456637	25604377.412305947
2.2147204882721203	21336989.500424176
2.2368676931548412	16580616.06089999
2.25923637008639	16123186.291902585
2.281828733787254	13942750.658150893
2.3046470211251266	10724459.01494006
2.327693491336378	6875536.697638976
2.3509704262497415	8232766.605151554
2.374480130512239	6528328.058431359
2.3982249318173614	9152054.667388355
2.4222071811355352	11936243.921538612
2.4464292529468903	10003823.362439156
2.4708935454763594	6668053.515096995
2.4956024809311232	3599603.073033999
2.5205585057404343	1875928.8116930015
2.5457640907978387	2915801.7866942417
2.5712217317058172	1271304.8242132284
2.5969339490228753	1194732.8941649892
2.622903288513104	2598979.751988374
2.6491323213982354	3528258.946299405
2.6756236446122177	623190.9885624651
2.7023798810583397	1867236.1925172335
2.729403679868923	4080654.9079536926
2.7566977166676123	2468912.9523678883
2.7842646938342885	1920812.0383814957
2.812107340772631	2086247.5039177139
2.8402284141803578	3693884.622762834
2.8686306983221614	2380723.424433512
2.897317005305383	3080246.7042468404
2.926290175358437	6227456.487126162
2.9555530771120213	6625280.994168573
2.9851086078831415	6569776.334872711
3.014959693961973	8546491.699506843
3.0451092909015927	8103984.319111443
3.0755603838106085	7642464.689022264
3.1063159876487147	5165016.560145724
3.137379147525202	3463167.253571303
3.168752939000454	2588561.453643033
3.200440468390459	2161737.8619715176
3.232444873074363	1633318.0169853563
3.264769321805107	4479636.804027604
3.297417015023158	4902195.664689965
3.330391185173389	896692.6613618867
3.3636950970251234	3194487.8206128553
3.397332047995375	2909394.6246201103
3.4313053684753285	2201413.950947565
3.465618422160081	2310047.101219283
3.5002746063816828	3040394.557396015
3.5352773524454997	4219676.869821706
3.570630125969955	5527263.295984145
3.606336427229654	7935092.500500492
3.6423997915019504	10258069.235069493
3.67882378941697	12417340.812073004
3.7156120273111397	12778008.290781558
3.7527681475842516	13122680.240250688
3.7902958290600934	12569614.15860164
3.8281987873506953	12778378.572436552
3.8664807752242023	8787809.9108235
3.905145582976444	9712028.505592542
3.9441970388062084	9644436.029405396
3.983639009194271	12145518.89469993
4.023475399286213	12485255.749976508
4.063710153279075	12455714.702932127
4.1043472548118665	13190525.805625502
4.145390727359985	13264836.42270372
4.186844634633585	12934102.937253729
4.2287130809799205	12608018.204685021
4.27100021178972	12058111.263986578
4.313710213907617	11759310.79865224
4.356847316046694	9798215.612322867
4.40041578920716	6945694.102484423
4.444419947099232	5215263.355901841
4.488864146570225	4232435.064087108
4.533752788035927	3673212.327151973
4.579090315916286	3893856.084818969
4.624881219075449	4142183.500960734
4.671130031266204	4856970.795134897
4.717841331578866	4173060.5368526336
4.765019744894654	3687298.353907821
4.812669942343601	3982414.6940034465
4.8607966417670365	4661996.299896974
4.9094046081847065	4177674.6004754803
4.958498654266554	3502504.2493738243
5.008083640809219	4127234.0893950807
5.058164477217312	4831445.97104192
5.108746121989485	4429515.262697679
5.15983358320938	3633778.8402715377
5.211431919041474	2735074.5922524864
5.263546238231889	3540829.1029413473
5.316181700614208	4156615.366589701
5.36934351762035	2419300.6224783747
5.423036952796553	1828604.1181181355
5.4772673223245185	2086323.5758056827
5.532039995547764	2210643.189004505
5.587360395503242	1698610.1379014226
5.643233999458275	1478583.1552279447
5.6996663394528575	1342846.9281415697
5.756663002847385	1357704.2243801868
5.814229632875859	1448464.1281849518
5.872371929204618	1194494.3727759123
5.931095648496664	1284675.1243361416
5.990406604981631	1690053.5368348553
6.050310671031448	1320957.7449225218
6.110813777741763	2071473.1482028454
6.17192191551918	1455933.286450488
6.233641134674372	2965931.492221915
6.295977546021115	3171980.548484677
6.358937321481327	2208941.7402917687
6.42252669469614	914409.155847431
6.486751961643101	822880.9825841172
6.551619481259532	947394.9506970892
6.617135676072128	780867.9381726233
6.683307032832849	1131832.2657437222
6.750140103161177	1241789.9636232494
6.81764150419279	1189311.1607143625
6.885817919234718	1007134.0873288213
6.954676098427065	1198725.6366800112
7.024222859411336	870617.6938982704
7.094465088005449	1112522.6048559747
7.165409738885503	871364.8744727507
7.237063836274358	882344.9407195732
7.309434474637103	806576.3071454866
7.382528819383473	749702.3214842513
7.456354107577308	699753.5980960969
7.530917648653081	905101.4640503057
7.606226825139612	861911.3572349313
7.682289093391009	585286.484554219
7.759111984324918	722307.4867270342
7.836703104168168	819603.7534058266
7.91507013520985	785337.0166520161
7.994220836561947	892694.3410642953
8.074163044927568	839261.8456747883
8.154904675376844	846836.7224512516
8.23645372213061	923972.2358626488
8.318818259351918	989029.8613433122
8.402006441945437	1014985.0511756142
8.486026506364892	1153098.06291709
8.57088677142854	1233568.5665306225
8.656595639142825	1339108.8543479245
8.743161595534254	1382311.644205623
8.830593211489598	1502437.4213082022
8.918899143604493	1517391.5623744363
9.00808813504054	1496101.4522947436
9.098169016390944	1576120.3147406175
9.189150706554853	1591198.9987396775
9.281042213620402	1574852.808836975
9.373852635756606	1468502.7192237093
9.467591162114172	1462148.013706153
9.562267073735315	1541044.0206950912
9.657889744472667	1428450.447433311
9.754468641917395	1475504.3894089032
9.852013328336568	1236200.1654877956
9.950533461619933	1368027.2844319206
10.050038796236134	1301341.1843784943
10.150539184198495	1286427.3663870927
10.252044576040479	1185078.6353753621
10.354565021800884	1026202.7249226926
10.458110672018893	1020373.9464083285
10.562691778739081	1075856.4241490543
10.668318696526473	1063820.9668002245
10.775001883491738	1018372.5363031151
10.882751902326655	912486.6998928892
10.991579421349924	720442.2240006583
11.101495215563421	924876.2157477884
11.212510167719055	860649.9576605728
11.324635269396246	812501.7980086781
11.43788162209021	830345.8028509862
11.552260438311112	661705.1604487789
11.667783042694223	655680.1493478179
11.784460873121166	630241.2850956753
11.902305481852377	683461.2033226704
12.0213285366709	675568.7467464014
12.14154182203761	679246.0953447261
12.262957240257986	531157.8771990839
12.385586812660566	442201.049610689
12.509442680787172	462766.7453005309
12.634537107595044	514171.6032034151
12.760882478670995	481702.6134214951
12.888491303457704	486478.9090031289
13.01737621649228	390690.71980222804
13.147549978657205	406055.1763181436
13.279025478443776	319552.7108343224
13.411815733228213	311599.2573161462
13.545933890560496	360676.93060714274
13.681393229466101	323735.98763934796
13.818207161760762	348770.5358476923
13.956389233378369	311966.8918483587
14.095953125712155	328705.73866304226
14.236912656969274	282492.50745433144
14.379281783538968	228291.0730685769
14.523074601374358	217567.90785163463
14.6683053473881	259865.90379806238
14.814988400861985	232518.2642316324
14.963138284870602	210168.49895788744
15.11276966771931	234482.2907632259
15.263897364396504	252995.7279376525
15.41653633804047	192889.8400280229
15.570701701420873	158656.37887628234
15.726408718435081	145519.12044786804
15.883672805619431	227041.4414601469
16.042509533675627	166199.958462899
16.202934629012383	155043.41045613404
16.36496397530251	142001.65627388548
16.528613615055534	139728.06524491202
16.69389975120609	121471.99502648856
16.86083874871815	124396.1897739187
17.02944713620533	135493.42149759494
17.199741607567383	103802.08928645946
17.37173902364306	94644.84568026524
17.54545641387949	107314.98594268784
17.720910978018285	94986.88051325885
17.898120087798468	89862.75708177232
18.077101288676452	94621.66100856384
18.257872301563214	92569.3236613972
18.44045102457885	85522.76789138807
18.62485553482464	75079.75827361389
18.811104090172883	111974.59911925049
18.999215131074614	68762.43200624266
19.189207282385357	71416.40506228576
19.381099355209216	57798.01107882072
19.574910348761303	59373.216009217154
19.77065945224892	64863.74973141734
19.968366046771408	76998.12447940497
20.16804970723912	63361.099719345475
20.369730204311512	53486.1591359552
20.573427506354626	49125.521763452525
20.779161781418175	55364.4656158271
20.98695339923236	43796.67158485121
21.19682293322468	44555.2085271178
21.408791162556927	56312.682754607944
21.622879074182496	39474.33751522983
21.839107864924323	38154.10439124962
22.057498943573567	38199.35446919784
22.278073933009303	40145.27972410054
22.500854672339393	32503.930327147977
22.72586321906279	53003.90645808691
22.953121851253417	30158.006606819483
23.18265306976595	48918.92228507828
23.41447960046361	38228.99929239756
23.648624396468247	26777.724796476738
23.88511064043293	24682.616501945762
24.12396174683726	40803.866346447256
24.365201364305634	36915.91040243
24.608853377948687	34294.36805151618
24.854941911728176	28950.613729730885
25.103491330845458	19978.425144607143
25.354526244153913	19793.90349579637
25.608071506595454	27735.858130040524
25.864152221661406	26603.506159290646
26.122793743878024	23512.778177038923
26.384021681316803	24944.002926772806
26.64786189812997	15760.175517738358
26.91434051711127	21047.93384102847
27.18348392228238	22712.25244578313
27.455318761505207	28193.13935128383
27.72987194912026	21533.736980842325
28.007170668611465	14483.23978262497
28.28724237529758	12979.582810661825
28.57011479905055	12809.260456788574
28.855815947041062	17752.340080261627
29.144374106511474	13597.077816804975
29.435817847576587	14147.117417413938
29.730176026052348	13446.5757588987
30.027477786312875	14564.112246029525
30.327752564176006	10909.029123671095
30.631030089817763	11442.488637872942
30.93734039071594	10403.069969774886
31.246713794623105	11531.953254317054
31.559180932569333	13360.130927540014
31.874772741895026	10416.968940716577
32.19352046931398	12635.89059193524
32.51545567400712	12641.237083445161
32.84061023074719	7587.086513240564
33.169016333054664	8053.865142996442
33.500706496385206	8196.255480981961
33.83571356134906	11976.879512087851
34.17407069696255	8249.724184613675
34.51581140393218	6863.936614999324
34.8609695179715	7032.658068123629
35.209579213151216	6442.141314921185
35.56167500528272	5768.662235737119
35.917291755335555	5448.514298709226
36.27646467288891	6959.983283923153
36.639229319617804	6193.88836774644
37.005621612813975	7854.372336924898
37.37567782894212	5092.236281397442
37.74943460723154	5704.38320462306
38.12692895330385	7141.453001589078
38.5081982428369	6513.4481746296005
38.893280225265265	4538.19443871885
39.28221302751791	3882.4589780659458
39.6750351577931	5321.150226822461
40.071785509371026	3742.852867836143
40.47250336446474	3756.542093073377
40.87722839810939	3690.115605885728
41.28600068209048	4910.919947312522
41.69886068891139	4958.937545803116
42.1158492958005	4346.797620334063
42.53700778875851	3955.802801227959
42.962377866646094	3037.1930918800276
43.392001645312554	2884.61694758424
43.825921661765676	2690.901571837517
44.264180878383335	2726.562516143505
44.70682268716717	2649.256470701825
45.15389091403884	2758.4912913445746
45.60542982317923	3130.824649960813
46.06148412141103	2665.966414589751
46.52209896262513	2246.574880712351
46.98731995225138	2171.8132347196565
47.4571931517739	2840.1965116643382
47.93176508329164	2016.891676880897
48.411082734124555	2479.0101606411286
48.8951935614658	1870.5031370421216
49.38414549708046	1700.4344839782377
49.877986952051266	1754.243896169352
50.37676682157178	1690.5557169905974
50.88053448978749	1629.1416990337825
51.38933983468537	1569.898624297419
51.903233233032225	1512.7762330223545
52.422265565362544	1457.6859046447635
52.946488221016175	1404.5569975393114
53.47595310322633	1353.3353553002466
54.010712634258596	1303.937789595656
54.550819760601186	1256.3112913278835
55.0963279582072	1210.3906528702616
55.647291237789275	1166.112917676838
56.20376415016716	1123.4322871149272
56.765801791668835	1082.2776676070073
57.33345980958552	1042.6075997809526
57.906794407681375	1004.3664166984387
58.48586235175819	967.4989681400887
59.070720975275776	931.9640960116261
59.661428185028534	897.7107263581132
60.25804246687882	864.6953703999071
60.860622891547614	832.8726944771303
61.46922912046309	802.2023292421784
62.083921411667724	772.6435479566934
62.7047606257844	744.1522702886888
63.331808232042235	716.7008545697103
63.965126314362664	690.2429204216596
64.60477757750628	664.746221731487
65.25082535328136	640.1781620009951
65.90333360681416	616.5007131442602
66.56236694288232	593.6902756142945
67.22799061231113	571.7089401015253
67.90027051843424	550.5295608812387
68.57927322361859	530.1241763529883
69.26506595585477	510.46252420972223
69.95771661541333	491.52216866571314
70.65729378156746	473.2732136697566
71.36386671938313	455.69279052676814
72.07750538657696	438.7566220339808
72.79828044044274	422.4403721621438
73.52626324484716	406.7243735928674
74.26152587729563	391.5837248659194
75.00414113606858	377.00095049955706
75.75418254742928	362.95353514953536
76.51172437290357	349.4221225224931
77.27684161663261	336.3904254760044
78.04961003279894	323.8366130902307
78.83010613312693	311.7476977465824
79.6184071944582	300.1035526464075
80.41459126640278	288.88864930923097
81.2187371790668	278.08907080500745
82.03092455085748	267.68738698083513
82.85123379636605	257.6713843326694
83.6797461343297	248.02488599729145
84.51654359567301	238.73555401555518
85.36170903162974	229.79083963899984
86.21532612194603	221.17654183229615
87.0774793831655	212.88284537127453
87.94825417699715	204.89600794160125
88.82773671876713	197.2058893324239
89.71601408595481	189.80162791109626
90.61317422681435	182.67151233615022
91.5193059690825	175.8078359155203
92.43449902877332	169.19814341664957
