#wavelength	surface flux
0.676892	186339.07486876313
0.678297	193994.67065557602
0.679702	201380.79033139936
0.681109	208641.84062135383
0.682517	215856.57535607298
0.683926	222992.10832174588
0.685337	230011.34297507416
0.686749	236977.22722047896
0.688164	243818.87157677332
0.689581	250233.81755425554
0.691	254605.50389063405
0.692422	256643.01885233735
0.693847	265292.57342109433
0.695274	275239.4903825618
0.696705	282622.7801991456
0.698139	288264.02040972334
0.699576	293926.1940949837
0.701017	298943.783935941
0.702461	302574.75382221973
0.70391	309222.27128850383
0.705362	315417.5554006304
0.706819	319078.8314143831
0.70828	322573.5625940381
0.709745	325419.2989070601
0.711216	329453.773117974
0.71269	331642.36870300263
0.71417	332561.44972880004
0.715655	329423.2713009285
0.717145	322863.2091002851
0.71864	326629.72594057757
0.72014	326437.58768914174
0.721647	324091.7149659354
0.723158	319382.1506031848
0.724676	311725.65632315015
0.726199	304946.41955228255
0.727728	300444.98646792624
0.729264	289394.34287824546
0.730805	281362.91396924126
0.732353	275211.145890639
0.733907	263487.977000119
0.735468	251808.40724855018
0.737035	237958.7897253133
0.738609	223945.0223762312
0.74019	208244.27742104014
0.741777	189537.40000018923
0.743372	171277.5311576851
0.744973	153130.16189414234
0.746582	133757.70372779216
0.748197	114500.85947557077
0.74982	95607.6719653928
0.751451	77418.24783254294
0.753088	60741.16274550215
0.754734	45753.189342627615
0.756386	32848.80736221118
0.758047	22425.69036798571
0.759715	14470.492908896791
0.76139	8592.358960219999
0.763074	4556.848095846151
0.764765	1884.6175411369845
0.766464	617.1288493338611
0.768172	775.6579383633716
0.769887	689.1442505043475
0.77161	3015.1633225717437
0.773341	7672.535938935207
0.775081	14764.676071372669
0.776829	24688.48753350837
0.778585	32830.153302960825
0.780349	42200.280790561046
0.782121	75566.21383072746
0.783902	109618.42670417573
0.785691	144050.70217665713
0.787489	182176.68277155334
0.789295	222736.15564153573
0.79111	258904.58532169161
0.792933	211071.8725624357
0.794764	110159.62685688124
0.796604	333895.63655372115
0.798453	464660.31463214284
0.80031	532971.1538323094
0.802176	594262.5090715276
0.804051	655609.6290784829
0.805934	716851.9854259238
0.807826	774970.1353848376
0.809727	818989.9127996833
0.811636	862723.1468157527
0.813554	916952.7092500804
0.81548	1010645.3642671795
0.817416	1071615.8391204383
0.81936	1127948.9654355177
0.821313	1202542.98948236
0.823274	1246045.2723269293
0.825244	1338154.2676785428
0.827223	1400322.664991387
0.829211	1444461.128153108
0.831208	1499566.716489259
0.833213	1576863.8603567255
0.835227	1632197.5100361612
0.837249	1671855.6497500476
0.83928	1741265.3995925367
0.841321	1849322.1093482254
0.843369	1944353.0255525925
0.845427	2010106.9807470664
0.847493	2084235.4734247788
0.849567	2073231.5068545956
0.851651	1894225.273024639
0.853742	2112183.5279190773
0.855843	2365632.341968135
0.857952	2459372.4696871443
0.86007	2527307.0767517784
0.862196	2535147.1311816233
0.864331	2606939.6104750982
0.866474	2699800.647137832
0.868626	2786429.6742824405
0.870786	2868313.970172219
0.872955	2945324.5930923778
0.875132	3012708.206344498
0.877317	3092791.6591602233
0.879511	3136136.4378021336
0.881713	3174094.740251468
0.883923	3229204.8060929393
0.886142	3287979.8051511855
0.888369	3305291.4482320584
0.890604	3296966.2497260757
0.892847	3015125.402397144
0.895099	3012073.0440740814
0.897358	3359289.5276242862
0.899626	3655169.974397415
0.901901	3812288.150150563
0.904185	3962399.692630353
0.906476	4008625.7124597942
0.908776	4089979.395938596
0.911083	4230519.801082354
0.913398	4196557.564011382
0.915721	4200884.177326137
0.918051	4131204.2587727252
0.92039	4439517.273398581
0.922736	4477666.250209168
0.925089	4055628.977246971
0.927451	3152108.5884537743
0.929819	2326361.724072851
0.932195	2950334.1756331925
0.934579	2864823.1369407345
0.93697	3193925.5721069584
0.939369	3805483.4595301505
0.941774	3890740.9960241793
0.944187	3167170.253490583
0.946607	2939576.7282478
0.949035	3591465.448445128
0.951469	3460147.0838013887
0.953911	3681438.0695181466
0.956359	4502622.494504731
0.958814	3557574.8597210767
0.961277	3150198.244195911
0.963746	3268588.2840693975
0.966222	3401885.8880063966
0.968705	3367459.153175899
0.971194	4571921.967574088
0.97369	5186458.446909169
0.976193	4945766.630716583
0.978702	5354297.201978655
0.981217	5456452.669033776
0.983739	5655255.466580178
0.986268	5761467.057062016
0.988802	6121516.969944237
0.991343	6505209.169679895
0.99389	6548386.984353242
0.996444	6788045.117593715
0.999003	6921629.615980376
1.00157	6980083.043436577
1.00414	7137742.056646356
1.00672	7375379.022182087
1.0093	7561630.326849261
1.01189	7745209.16817097
1.01448	8013804.911249889
1.01708	8146810.31246966
1.01969	8275810.001572206
1.0223	8359991.6643500915
1.02492	8372320.157798021
1.02754	8475458.292712145
1.03017	8578876.272773404
1.0328	8886230.154578239
1.03544	9033015.851837164
1.03808	9156985.953190705
1.04073	9281459.518873097
1.04339	9383868.767697038
1.04604	9487980.432181729
1.04871	9559489.2029428
1.05138	9662966.32461001
1.05405	9813537.267732562
1.05673	9952377.536856377
1.05941	10070682.702979075
1.0621	10165331.564213993
1.06479	10256660.819436386
1.06749	10360872.715891872
1.07019	10357459.889707517
1.07289	10498711.172148688
1.0756	10658382.26025814
1.07832	10722308.32289828
1.08104	10850877.336617483
1.08376	10982663.410164615
1.08649	10992439.865295524
1.08922	10719121.912386512
1.09195	10377443.881890608
1.09469	10154760.344278451
1.09743	10219340.828808773
1.10018	7648679.769213711
1.10293	5536985.027239354
1.10568	4420711.290575178
1.10844	6797652.276045629
1.1112	5795816.860418022
1.11396	4496805.202407337
1.11673	4477469.2302501965
1.1195	4530871.036031239
1.12228	3487757.3380135335
1.12505	5226873.548609177
1.12783	5234968.310470817
1.13062	5277271.294095242
1.13341	2733401.058511545
1.1362	4735019.7495070705
1.13899	6929573.128426925
1.14178	6109260.55414415
1.14458	7095119.426160436
1.14738	8251622.6852676105
1.15019	5368379.530153796
1.153	2224601.702302256
1.1558	2912054.6214439706
1.15862	3146825.5568762943
1.16143	3269115.401831452
1.16425	4905416.668145106
1.16707	6679137.00398072
1.16989	5495655.667852147
1.17271	6254285.523874434
1.17554	8122808.348725191
1.17837	9604526.119394716
1.1812	10351255.013959162
1.18403	11926230.570846323
1.18686	11748986.086341154
1.1897	11689484.235504813
1.19253	13193694.523282344
1.19537	13901197.905602757
1.19822	14197565.451494113
1.20106	14715279.591496
1.2039	14631213.087490438
1.20675	14961121.595600901
1.2096	15019344.212474935
1.21245	14992873.086952306
1.2153	15714911.34120114
1.21815	16071969.649596741
1.221	16331253.711578298
1.22385	16653744.783755666
1.22671	16984403.266753092
1.22957	17194802.920567833
1.23242	17197668.858398825
1.23528	17444272.193295777
1.23814	17729009.78224473
1.241	17848176.398819357
1.24387	17982022.093977917
1.24673	18231986.243793465
1.24959	18278531.662560094
1.25245	18122019.681217667
1.25532	18653170.51482825
1.25818	18923365.886528697
1.26105	18862220.136187702
1.26392	18855198.28843254
1.26678	18995772.962851245
1.26965	19052579.662675522
1.27252	18902131.166857984
1.27538	19296453.35966207
1.27825	19257642.323408466
1.28112	18844417.08829836
1.28399	19214402.239788882
1.28686	19003008.028599396
1.28973	18184403.48776148
1.2926	17741842.908647638
1.29546	18404765.751778945
1.29833	18815437.506306015
1.3012	17654026.022242982
1.30407	17486716.448857654
1.30694	17132542.59643602
1.30981	17863925.747808326
1.31267	17053624.333633065
1.31554	18251062.38575076
1.31841	19396809.80333833
1.32128	17471080.113480076
1.32414	14741102.705634976
1.32701	13851137.600639796
1.32987	11114471.585174246
1.33274	5493543.566266899
1.3356	3184174.7157616117
1.33847	1064634.296230774
1.34133	350792.6635215197
1.34419	844623.9337978328
1.34705	1148921.9281778203
1.34991	581772.5986689731
1.35277	251691.18283837283
1.35563	358951.14985135605
1.35849	397481.86546215654
1.36135	178964.08315216648
1.3642	421511.23406953167
1.36706	446162.2842814878
1.36991	349750.42113525653
1.37277	1062198.956083794
1.37562	2162350.296580195
1.37847	2534155.3886763426
1.38132	942515.3357446992
1.38417	111364.60215538862
1.38701	245644.0982885919
1.38986	194344.57346795517
1.39271	241270.41684648523
1.39555	381717.1863521138
1.39839	287655.77229305555
1.40123	593796.1139964276
1.40407	1124279.5417667637
1.40691	1550908.4708458297
1.40974	772932.1068180351
1.41258	223731.2122119584
1.41541	576196.0953774246
1.41824	739274.6702812153
1.42107	407220.23928683106
1.4239	275985.61683602846
1.42673	634089.757103536
1.42955	1054934.275338216
1.43237	705829.6094310933
1.43519	1265849.3456612057
1.43801	860937.9112244205
1.44083	1083365.2709251936
1.44365	1746959.8420529847
1.44646	1925185.9683808587
1.44927	3738671.7082825587
1.45208	4801849.696283976
1.45489	3664678.005664807
1.45769	4681552.629131466
1.4605	5353545.257615168
1.4633	5620120.1115301065
1.4661	6113174.172569123
1.4689	4204202.971750838
1.47169	4428653.331227468
1.47449	4222689.710750399
1.47728	4199305.198030263
1.48007	4245897.991244789
1.48286	6265754.943704923
1.48564	7900152.12965889
1.48842	7711068.901949196
1.4912	7745104.4770819545
1.49398	7268940.9356638575
1.49676	6332695.875841862
1.49953	8048336.550627713
1.5023	10089075.64554854
1.50507	10171541.145036248
1.50784	9320850.700340783
1.51061	9603612.5922309
1.51337	10547323.450609645
1.51613	11775233.036595523
1.51888	13196575.165753396
1.52164	15585207.039156254
1.52439	17022211.21123489
1.52714	16175742.286099473
1.52989	15918697.62910286
1.53263	16852794.67652901
1.53538	17894453.159764998
1.53812	18546008.942132697
1.54086	19046658.929255724
1.54359	19600501.6451435
1.54632	20934161.75880675
1.54905	21015084.030592177
1.55178	21800298.522407953
1.5545	21966468.141118705
1.55723	21587094.69080351
1.55995	22569099.414175853
1.56266	23671569.416996654
1.56538	24542238.314586207
1.56809	24916759.718300104
1.5708	24795156.769217554
1.57351	24260510.935608167
1.57621	24205279.832247563
1.57891	23820631.45989345
1.58161	24686890.471848566
1.5843	25938313.649954747
1.587	26274781.828791924
1.58969	26063645.851003245
1.59238	25684824.241990518
1.59506	25140969.73736551
1.59774	24642715.515485022
1.60042	24659943.25377289
1.6031	24248674.097031653
1.60577	23745741.334518954
1.60844	23662129.949436013
1.61111	23689945.094277203
1.61378	22988334.49997132
1.61644	21972427.59249841
1.6191	21059325.30598593
1.62176	19846838.692763466
1.62441	18308703.148187846
1.62707	17209658.41547555
1.62971	15414981.069161076
1.63236	14760539.424662704
1.635	17965497.77798242
1.63764	22466167.609761376
1.64028	23993629.448912874
1.64292	23615163.196841985
1.64555	21403506.63242625
1.64818	17597874.055041313
1.65081	17181170.33053765
1.65343	19920204.906745117
1.65605	20869976.72412787
1.65867	21182431.81285447
1.66128	20436279.009893153
1.6639	16981375.66205221
1.66651	10491002.054211019
1.66911	9003665.511356117
1.67172	14155206.879561989
1.67432	18192990.5402659
1.67692	18021471.037574172
1.67951	16167552.914254345
1.68211	16215835.522089193
1.6847	16344367.02273309
1.68728	14915370.148746269
1.68987	14146125.871574823
1.69245	12908991.195607506
1.69503	10013028.69532841
1.6976	8456858.234021293
1.70018	9989278.555557955
1.70275	9931767.37364327
1.70531	10572599.95436198
1.70788	12458045.355464535
1.71044	12216845.92731781
1.713	13198628.318200504
1.71556	14160387.815283798
1.71811	14718396.774697525
1.72066	15903101.681018401
1.72321	15536167.481508879
1.72575	14823169.512279144
1.7283	14286528.548779212
1.73084	13352579.052647738
1.73337	12235886.193073435
1.73591	11508738.27390073
1.73844	11385797.154071148
1.74097	11551100.704050777
1.74349	10810433.313326923
1.74602	9747835.40067468
1.74854	9238153.181809
1.75105	8284076.046092919
1.75357	6909484.615015807
1.75608	8085274.101621365
1.75859	10774623.598476972
1.7611	11681185.272477673
1.7636	11035815.661861459
1.7661	8577811.170001462
1.7686	6706586.560223575
1.7711	5152572.763463849
1.77359	3656229.6224232847
1.77608	2264374.127227171
1.77857	1638387.2688624207
1.78105	1954837.23582367
1.78354	2306137.51043905
1.78602	1824055.4992760122
1.78849	1387780.5188201652
1.79097	1791264.2904278445
1.79344	2483635.6822377658
1.79591	3357658.575413951
1.79837	4369303.281270867
1.80084	2774647.082322189
1.8033	1201009.4848047607
1.80576	566279.5382562359
1.80821	377012.04007773416
1.81067	1066225.0628959897
1.81312	1650029.5843161212
1.81557	907546.426604742
1.81801	471995.94226903573
1.82046	1083923.7349438001
1.8229	1640346.6786901213
1.82533	1114060.1816503392
1.82777	391309.5799475026
1.8302	271482.0829580539
1.83263	529904.0604964859
1.83506	890081.4068182427
1.83749	1403476.0627898122
1.83991	1667762.0464842892
1.84233	1359975.7786394882
1.84475	1282655.1764302913
1.84716	1490558.408299986
1.84957	1903374.5244436862
1.85198	1875531.2155784257
1.85439	977189.2545482778
1.8568	694535.1244486066
1.8592	913040.1886815497
1.8616	703155.4381320698
1.864	362234.57875045104
1.86639	308080.88996319677
1.86878	477945.67991729616
1.87118	853840.6505138694
1.87356	1335134.7899856432
1.87595	1662476.1806769574
1.87833	2614084.523552035
1.88071	4157300.66260336
1.88309	4046979.527074197
1.88547	3085971.192824681
1.88784	2750653.145350999
1.89021	2513802.1803194643
1.89258	4045911.7657804145
1.89494	5235663.904345782
1.89731	3364953.9583604876
1.89967	1256592.7413183262
1.90203	394506.5829012154
1.90439	349315.20434623497
1.90674	596658.0615099476
1.90909	657768.4718810486
1.91144	426514.2078216085
1.91379	201120.70822061523
1.91613	186795.16300980654
1.91848	342475.97337387904
1.92082	527510.0914643852
1.92315	518538.49053186993
1.92549	376053.07122210594
1.92782	429553.50100978476
1.93015	628839.1034037175
1.93248	787680.8408332487
1.93481	813688.0836112676
1.93713	720639.158601503
1.93945	729788.3119283913
1.94177	927246.1480817085
1.94409	1103558.612351693
1.94641	1193870.0268293647
1.94872	1485228.5274611795
1.95103	1803736.7452018238
1.95334	1221001.7237187917
1.95564	863407.6465000187
1.95795	1012574.5393404631
1.96025	1080608.378202083
1.96255	1143095.872146592
1.96484	1380349.3796614606
1.96714	1929059.4879125035
1.96943	2657796.7136762124
1.97172	3082698.8003837876
1.97401	2792390.3488104795
1.97629	2807637.1343953577
1.97858	3394736.088595463
1.98086	3914885.30525807
1.98314	4577463.210674695
1.98541	5004512.613872423
1.98769	4667006.297177677
1.98996	3749172.8362822114
1.99223	3645772.95253051
1.9945	4404875.613459719
1.99677	4206747.956230489
1.99903	4111813.864071519
2.00129	4932988.135113611
2.00355	6133649.57640844
2.00581	6842531.755034584
2.00806	7103829.77531392
2.01031	8353201.584247945
2.01256	8906461.852117093
2.01481	7992424.604384745
2.01706	6903418.391120151
2.0193	6686977.841435345
2.02154	7440992.287494265
2.02378	8163997.240820804
2.02602	8510906.803288184
2.02825	9357001.166427221
2.03049	10126782.057869948
2.03272	10601021.291283328
2.03494	10861660.330755932
2.03717	11212611.97015254
2.03939	12012227.810541807
2.04162	12996279.24445966
2.04384	13822981.776031543
2.04605	14710373.738539094
2.04827	15534101.59973946
2.05048	15578424.895047288
2.05269	14406036.43535053
2.0549	13937113.350943627
2.05711	14321900.95979357
2.05931	15095059.613852348
2.06151	15723087.328461066
2.06371	16126034.02741488
2.06591	16400035.268271277
2.06811	16538896.73543249
2.0703	16520753.908456199
2.07249	16343757.230270246
2.07468	16028556.588895455
2.07686	15962929.982122999
2.07905	16092377.399842141
2.08123	16226968.953409534
2.08341	16279142.946604207
2.08559	16275709.61305036
2.08776	16304144.02768657
2.08994	16213216.433582438
2.09211	16011052.451300118
2.09428	15780584.751317216
2.09645	15738293.902293395
2.09861	15641180.530749422
2.10077	15488116.668806976
2.10293	15268351.880219907
2.10509	14981090.53084215
2.10725	14664234.685450384
2.1094	14761368.04565153
2.11155	14894547.90004057
2.1137	14870889.519159084
2.11585	14505005.940336715
2.11799	14220850.973084858
2.12013	14069548.127984004
2.12227	14035799.963151593
2.12441	14091589.706959719
2.12655	14130191.822484208
2.12868	14076927.686627535
2.13081	14020568.804502329
2.13294	13950755.8640522
2.13507	13659467.029693652
2.13719	13215028.203918885
2.13931	12856164.357766531
2.14143	12556941.248570608
2.14355	12067161.579373712
2.14567	11778358.908669008
2.14778	11559308.422090212
2.14989	11317460.460000541
2.152	10870812.687482826
2.1541	10962789.674990278
2.15621	11106342.625178443
2.15831	11094386.755211327
2.16041	10516243.653412672
2.16251	10215030.188873649
2.1646	10017489.992012285
2.1667	9905516.432493832
2.16879	10004815.223354375
2.17087	10141348.963294342
2.17296	10231822.70407217
2.17504	10228974.364989005
2.17713	10005695.262339467
2.1792	9628101.940973904
2.18128	9170556.91714262
2.18336	8706353.485774243
2.18543	8281768.253025457
2.1875	7835999.887033323
2.18957	7317472.337522734
2.19163	6526945.532986607
2.1937	5449679.801999711
2.19576	4362017.54559116
2.19782	3390607.598286111
2.19987	2878192.6884993925
2.20193	2601875.7450232133
2.20398	2519650.866615503
2.20603	2554711.1904210728
2.20808	2705282.1870515267
2.21012	2925270.979694911
2.21217	3211833.470299724
2.21421	3368102.742258657
2.21625	3353578.8456306634
2.21828	3186679.396303191
2.22032	3076997.2653698297
2.22235	3005955.187504417
2.22438	2907096.4078170406
2.22641	2633658.6196321845
2.22843	2315398.0826079547
2.23046	2034458.25943962
2.23248	1858014.6155983147
2.2345	1800177.4235559325
2.23651	1752546.3073416464
2.23853	1698864.833946321
2.24054	1504863.229650296
2.24255	1264740.4852363132
2.24456	1000072.4610148405
2.24657	982287.4144473796
2.24857	1130257.1779239632
2.25057	1373210.294362612
2.25257	1485768.5170731223
2.25457	1568058.5798649914
2.25656	1637944.1300357396
2.25856	1731349.8905671434
2.26055	1673065.241424152
2.26254	1533862.7776058125
2.26453	1350082.642567834
2.26651	1239346.3417532477
2.2685	1194574.7172379552
2.27048	1287131.376867902
2.27246	1423422.2333113041
2.27443	1551204.0432914905
2.27641	1572584.0474181313
2.27838	1510635.6386217598
2.28036	1414654.604734159
2.28233	1340915.945744653
2.28429	1279271.4094946634
2.28626	1221361.551511018
2.28823	1150425.2816813819
2.29019	1121484.346711671
2.29215	1124228.1290547606
2.29411	1186773.8087292195
2.29607	1235089.0877005938
2.29802	1271262.2362589585
2.29998	1284316.5280122766
2.30193	1387754.2586913141
2.30388	1594563.4664618135
2.30583	2058150.7931618704
2.30778	2514750.7920226995
2.30972	2918124.7918251655
2.31167	2888746.0265062633
2.31361	2610555.928110449
2.31555	1895423.3113882067
2.31749	1341911.7090330576
2.31943	917914.7706347246
2.32137	898709.4051198576
2.32331	906376.8769127472
2.32524	935293.2636865542
2.32718	920998.4952245
2.32911	913759.7930488045
2.33104	917574.6662462555
2.33297	906771.7734366313
2.3349	889952.2505273065
2.33683	864152.7382328323
2.33876	837317.0322338827
2.34068	808071.0262666455
2.34261	748310.7691025387
2.34453	695437.6971815015
2.34646	649782.6232923492
2.34838	688948.871577629
2.3503	771912.7554631999
2.35223	941137.5601988966
2.35415	1104671.9592287675
2.35607	1262491.7153932524
2.35799	1369854.197705532
2.35991	1471670.5394245202
2.36183	1566793.2631860704
2.36375	1506847.941347878
2.36566	1367887.3270433643
2.36758	1052572.9732577172
2.3695	792204.3582030763
2.37142	567057.3705401507
2.37334	594851.909689353
2.37526	643611.8240757225
2.37718	725106.8618781976
2.3791	803334.7898741062
2.38101	885516.3757476221
2.38293	1008104.6685117674
2.38485	1124544.314122418
2.38677	1234705.8673763163
2.3887	1222822.9682644955
2.39062	1192715.5806465216
2.39254	1162195.2724922418
2.39446	1179565.4718678505
2.39639	1227885.0751707172
2.39831	1287229.527608038
2.40024	1314927.394682088
2.40216	1282246.2351746017
2.40409	1305375.0459668497
2.40602	1366008.9962286125
2.40795	1600165.9879952248
2.40989	1807602.0689213136
2.41182	1979790.1781134454
2.41376	2055834.1530596667
2.4157	2129487.8477071947
2.41764	2289687.1683251467
2.41958	2395644.1301611057
2.42152	2457497.491865926
