#wavelength	surface flux
0.676892	41825.269502205505
0.678297	42910.48469529868
0.679702	44003.541806874025
0.681109	45108.066884159096
0.682517	46232.30745394785
0.683926	47370.04208678611
0.685337	48516.208572253025
0.686749	49684.723705645854
0.688164	50861.09579898923
0.689581	51999.34377255519
0.691	52851.36813045318
0.692422	53204.9693784648
0.693847	54814.52171490849
0.695274	56730.18431542991
0.696705	58224.08568805994
0.698139	59429.126143230635
0.699576	60717.464064123065
0.701017	61933.002020575244
0.702461	62963.39870538665
0.70391	64708.16105924966
0.705362	66423.33699219124
0.706819	67724.08713632257
0.70828	69079.86001582467
0.709745	70416.68736331917
0.711216	72104.40428058626
0.71269	73575.96449905429
0.71417	74912.8114450694
0.715655	75553.67625931869
0.717145	75523.8464416423
0.71864	77915.88338270069
0.72014	79642.87851063676
0.721647	80867.33213331293
0.723158	81788.15390230372
0.724676	82450.31157264388
0.726199	83400.81860427924
0.727728	85071.08693862092
0.729264	85342.7297266545
0.730805	86944.8802427828
0.732353	89540.0895514317
0.733907	90620.2333486978
0.735468	91890.53909762482
0.737035	92800.21538859743
0.738609	94132.77554056537
0.74019	94961.06656681685
0.741777	94489.24763072495
0.743372	94375.96862471088
0.744973	94164.39331459142
0.746582	92837.62092566538
0.748197	90822.38318606462
0.74982	87842.75268150287
0.751451	83547.35822844444
0.753088	77624.66888407365
0.754734	69999.62327174004
0.756386	60446.34682822375
0.758047	48745.16798816364
0.759715	35776.39136720535
0.76139	22308.868454088268
0.763074	10572.002321544587
0.764765	3276.38960796842
0.766464	664.8102918199049
0.768172	867.5890430137906
0.769887	936.5614970101733
0.77161	6050.100090759239
0.773341	18809.056957631376
0.775081	36663.1431293939
0.776829	55696.70051978326
0.778585	68143.31303381722
0.780349	77471.16751427033
0.782121	104297.32909113029
0.783902	123288.12504615528
0.785691	137127.028603092
0.787489	149286.49584703674
0.789295	159709.63852066512
0.79111	167802.1432848866
0.792933	145285.1515451693
0.794764	82451.50896113491
0.796604	169590.38235398708
0.798453	202759.8755903258
0.80031	211408.9095466707
0.802176	218847.5804888891
0.804051	225891.1411787371
0.805934	232978.1287109398
0.807826	239000.18769170262
0.809727	241127.30573424743
0.811636	243060.9188352102
0.813554	247763.0107787645
0.81548	262577.4997778161
0.817416	271037.4871636849
0.81936	278833.5631059315
0.821313	284253.7180930661
0.823274	286332.87314051867
0.825244	298929.63978488796
0.827223	305908.6121925889
0.829211	309090.34365246183
0.831208	313616.99270781426
0.833213	324281.3901172792
0.835227	330545.30608790414
0.837249	332963.79104041646
0.83928	341869.25857611065
0.841321	357089.2619540911
0.843369	369381.4524959068
0.845427	378031.7490026737
0.847493	387610.8272653312
0.849567	395580.7731821856
0.851651	400572.6889505501
0.853742	412389.0020753199
0.855843	424743.27710354765
0.857952	434161.8060489702
0.86007	443012.5280382992
0.862196	449906.3435359368
0.864331	459449.4698237294
0.866474	470048.802141447
0.868626	479634.9302044751
0.870786	491587.5559241169
0.872955	502362.3013533947
0.875132	509429.81353023666
0.877317	518655.07314103167
0.879511	522947.6468844961
0.881713	529175.8342063164
0.883923	535265.5677020994
0.886142	541337.7125785224
0.888369	546823.7986039484
0.890604	553663.2259582425
0.892847	537621.3103248467
0.895099	541606.1473787442
0.897358	568898.4724301493
0.899626	604664.8218905863
0.901901	624278.5029754095
0.904185	647286.8622944816
0.906476	654134.3741139875
0.908776	666679.3774734422
0.911083	690160.8385692724
0.913398	689801.3258461121
0.915721	691151.473123844
0.918051	683063.2234503805
0.92039	733327.7154352883
0.922736	741986.3666688434
0.925089	695713.2977593442
0.927451	581481.6523328972
0.929819	444248.3230246942
0.932195	533527.6537970604
0.934579	517654.0336058376
0.93697	573225.6076429923
0.939369	676863.308468328
0.941774	687906.5955686229
0.944187	570773.8823762357
0.946607	531420.9879190421
0.949035	650888.9426415479
0.951469	635371.3036706641
0.953911	660153.9468630035
0.956359	810095.8884279387
0.958814	667011.2205626651
0.961277	610709.3534515395
0.963746	643567.0731668272
0.966222	671884.5697850211
0.968705	677893.6590574206
0.971194	873970.0932202569
0.97369	952348.9405967538
0.976193	917950.3937692026
0.978702	988712.076708756
0.981217	1008209.5573918781
0.983739	1048526.2027173274
0.986268	1071428.0099365732
0.988802	1128687.843369637
0.991343	1182370.3295985938
0.99389	1204235.7368545434
0.996444	1248523.5974786931
0.999003	1278572.1814916574
1.00157	1296741.5745691422
1.00414	1323537.127939738
1.00672	1360261.0176843724
1.0093	1391051.2704518186
1.01189	1421834.8774820408
1.01448	1460644.3468743812
1.01708	1488573.6674106296
1.01969	1513365.2788356023
1.0223	1533010.3528505135
1.02492	1526699.7400308696
1.02754	1562034.3781043615
1.03017	1541024.661907777
1.0328	1631622.0404547874
1.03544	1669102.9298378057
1.03808	1697906.680215158
1.04073	1726747.906643503
1.04339	1754575.60803217
1.04604	1781003.5797849642
1.04871	1797005.3068682493
1.05138	1819184.0495694105
1.05405	1855702.3365951898
1.05673	1889972.2114692505
1.05941	1919106.0370597036
1.0621	1945651.747212072
1.06479	1973463.0460170722
1.06749	1999322.4944583012
1.07019	2013297.787055832
1.07289	2046163.1691902261
1.0756	2083103.419207788
1.07832	2106072.605054916
1.08104	2139139.831325478
1.08376	2173226.8861227185
1.08649	2188944.6962195532
1.08922	2180733.0799397626
1.09195	2171643.148954286
1.09469	2160427.200605315
1.09743	2178765.1932430216
1.10018	1788104.607923953
1.10293	1426742.843395617
1.10568	1181582.87964342
1.10844	1686912.0420811428
1.1112	1509062.3880865448
1.11396	1168031.7499483987
1.11673	1143803.6783144888
1.1195	1139702.4978298612
1.12228	846930.5462188051
1.12505	1252089.778230695
1.12783	1259433.528879794
1.13062	1347993.2478024608
1.13341	740256.8481040974
1.1362	1223701.3687958696
1.13899	1716517.0214880742
1.14178	1544154.9874883362
1.14458	1810813.6955853514
1.14738	2028579.872271437
1.15019	1312942.722557345
1.153	563368.7952578352
1.1558	747295.9536227509
1.15862	829831.4988666002
1.16143	915958.3942012164
1.16425	1348638.3910429296
1.16707	1824977.3032232674
1.16989	1583154.3611085662
1.17271	1804284.342368229
1.17554	2261789.67117144
1.17837	2576234.053971721
1.1812	2690371.1308155446
1.18403	2956726.5955911055
1.18686	2966411.5146088223
1.1897	2991902.985297757
1.19253	3238333.1714935903
1.19537	3367658.2133443323
1.19822	3448979.398527825
1.20106	3532097.3336744825
1.2039	3511951.691180792
1.20675	3615256.362255041
1.2096	3672731.3724035188
1.21245	3686625.9376796046
1.2153	3792005.2859671647
1.21815	3861516.8967425404
1.221	3915462.3415664216
1.22385	3986494.8200742234
1.22671	4059895.756855596
1.22957	4104418.6077429852
1.23242	4123676.15126082
1.23528	4180841.2281048023
1.23814	4249099.6826032335
1.241	4300466.096841841
1.24387	4350064.512389189
1.24673	4389978.975818894
1.24959	4428028.366466105
1.25245	4467204.06295885
1.25532	4535091.182531074
1.25818	4589947.46857752
1.26105	4598516.281811971
1.26392	4628992.368903889
1.26678	4674871.123401504
1.26965	4692442.816283904
1.27252	4702712.056041897
1.27538	4789720.95496448
1.27825	4810367.707680772
1.28112	4770145.158589774
1.28399	4856466.708950156
1.28686	4813779.871591878
1.28973	4699703.782684875
1.2926	4643943.453333295
1.29546	4766716.033443709
1.29833	4855010.646060177
1.3012	4657134.04299542
1.30407	4650243.598459348
1.30694	4611882.727725037
1.30981	4719505.603061703
1.31267	4537076.143772736
1.31554	4841928.724387612
1.31841	5163123.827926783
1.32128	4768455.029350109
1.32414	4243417.47292096
1.32701	4160375.897832198
1.32987	3324603.902306633
1.33274	2044952.8592330145
1.3356	1395225.3911557156
1.33847	476027.1573688219
1.34133	139588.7083765784
1.34419	355396.7675463826
1.34705	486809.7978107092
1.34991	214290.72647304487
1.35277	79979.01158652532
1.35563	139400.54638670586
1.35849	144334.39039752766
1.36135	49645.54054837687
1.3642	131139.85507499805
1.36706	138685.21750013134
1.36991	103452.58938229093
1.37277	380665.6710419465
1.37562	832769.2630047011
1.37847	962058.493005895
1.38132	339481.53639132925
1.38417	30544.727797842464
1.38701	73526.35484708118
1.38986	56342.73805803505
1.39271	73417.98911439389
1.39555	124273.99189735949
1.39839	106736.54121602539
1.40123	238923.5800764333
1.40407	434912.5491623376
1.40691	612731.4018817359
1.40974	291640.2874892932
1.41258	73114.01682282906
1.41541	219674.48854911732
1.41824	280451.9241080355
1.42107	135209.2057593636
1.4239	89679.46311195366
1.42673	227600.2574226456
1.42955	399170.89095561934
1.43237	282449.77382500755
1.43519	571948.9110026287
1.43801	365133.6943164298
1.44083	453679.83936091885
1.44365	763723.2677884819
1.44646	899379.7579620271
1.44927	1787101.4459395737
1.45208	2294096.9542381596
1.45489	1781022.505295058
1.45769	2197268.678593552
1.4605	2511647.1562592983
1.4633	2639142.9362126584
1.4661	2773316.765202632
1.4689	1919718.9325483432
1.47169	2025319.1151545015
1.47449	1880796.647177038
1.47728	1788640.1465229765
1.48007	1880570.7789829865
1.48286	2844569.5395752755
1.48564	3625408.9338212875
1.48842	3734250.458161671
1.4912	3831284.380989057
1.49398	3606028.365818407
1.49676	3052217.062887339
1.49953	3686364.992008384
1.5023	4483762.617574307
1.50507	4477204.888451376
1.50784	4227063.493920805
1.51061	4492160.806348
1.51337	4828181.446145915
1.51613	5345799.647198231
1.51888	5826616.036492172
1.52164	6476598.529182614
1.52439	6941987.341483116
1.52714	6736494.991739367
1.52989	6641823.783383729
1.53263	6978507.425013202
1.53538	7324641.192382215
1.53812	7471066.219115238
1.54086	7530362.195735255
1.54359	7572866.835887493
1.54632	7880123.691415985
1.54905	7889668.476927143
1.55178	8180177.716526923
1.5545	8181533.300687254
1.55723	7979450.885409095
1.55995	8089318.973388605
1.56266	8311994.701999264
1.56538	8730425.299100444
1.56809	8956897.409258133
1.5708	8916556.872658623
1.57351	8621590.978543451
1.57621	8292198.855798936
1.57891	7561390.080000124
1.58161	8040920.714806517
1.5843	9128388.776919294
1.587	9360802.230632512
1.58969	9322667.897920065
1.59238	9210097.453620415
1.59506	8975367.30060789
1.59774	8720023.959514778
1.60042	8473377.32481211
1.6031	8469359.886672536
1.60577	8632168.65292362
1.60844	8653075.437144894
1.61111	8431612.03309492
1.61378	8097203.124767456
1.61644	7874237.493831937
1.6191	7506407.537074759
1.62176	6998309.999404716
1.62441	6579281.841026874
1.62707	6191409.579067756
1.62971	5458762.08544916
1.63236	5138977.2134074
1.635	6424911.071013731
1.63764	8260138.36030264
1.64028	8859587.499379637
1.64292	8689243.59020268
1.64555	7783411.7858911045
1.64818	6241687.266080884
1.65081	6178463.379522801
1.65343	7444412.86567686
1.65605	7896246.8149701515
1.65867	8075200.616237442
1.66128	7822379.588989442
1.6639	6477114.56151635
1.66651	3931671.108223172
1.66911	3455581.7431099406
1.67172	5569915.48997998
1.67432	7085371.020884748
1.67692	6885080.566156238
1.67951	6066775.847142337
1.68211	6171370.32506275
1.6847	6293143.382911636
1.68728	5715686.030467221
1.68987	5508883.078917818
1.69245	5114108.831594585
1.69503	3919789.0197259886
1.6976	3218293.2722201133
1.70018	3835023.588131367
1.70275	3818741.7667618077
1.70531	4095352.986244016
1.70788	4947389.6473733345
1.71044	4977645.289197981
1.713	5541442.553790116
1.71556	6045565.323723191
1.71811	6377826.3789552245
1.72066	6968577.736373477
1.72321	6852033.322710185
1.72575	6548530.713798119
1.7283	6386433.190775791
1.73084	6105509.825383469
1.73337	5732879.375880815
1.73591	5501459.583293595
1.73844	5558624.928899571
1.74097	5746006.786511504
1.74349	5504437.295071401
1.74602	5073412.353081131
1.74854	4872386.5391356
1.75105	4427151.612876529
1.75357	3740834.2469972097
1.75608	4336960.436605897
1.75859	5616963.389182797
1.7611	5935796.1168838255
1.7636	5572003.674348622
1.7661	4532121.408176879
1.7686	3734253.4218474533
1.7711	2833156.4508333136
1.77359	1918866.7179193432
1.77608	1130607.8581526324
1.77857	790845.5987648861
1.78105	976651.0277915187
1.78354	1182095.025414824
1.78602	909877.4807578153
1.78849	648737.3899183131
1.79097	871526.4237599417
1.79344	1287708.2027172095
1.79591	1858367.5486610709
1.79837	2517330.60366842
1.80084	1548470.373708865
1.8033	565976.8001473801
1.80576	238412.00725230362
1.80821	157807.506599016
1.81067	514416.0700020037
1.81312	806809.3778618728
1.81557	421193.22739085974
1.81801	218027.59080240174
1.82046	579595.9677584516
1.8229	881371.9607661718
1.82533	567912.7961113772
1.82777	170400.6431590476
1.8302	91265.89313221799
1.83263	193797.32879911002
1.83506	370381.614182614
1.83749	650185.2549403745
1.83991	777517.6531581114
1.84233	592750.9085815274
1.84475	544065.4245618203
1.84716	687895.0952266329
1.84957	992112.8958919563
1.85198	1028733.9062889756
1.85439	517643.3188257893
1.8568	330293.9817204448
1.8592	431234.27231304895
1.8616	319329.4844366052
1.864	141777.72601790892
1.86639	97238.74082592
1.86878	159741.51646866038
1.87118	333387.6996265079
1.87356	568574.3747738855
1.87595	771269.2717473318
1.87833	1441726.3780013751
1.88071	2503895.1234217514
1.88309	2461611.7263319846
1.88547	1796430.0001177576
1.88784	1535765.6041665263
1.89021	1364353.6550191958
1.89258	2310243.61702726
1.89494	3086441.827247721
1.89731	1916415.5960527642
1.89967	623213.3253629822
1.90203	138078.60000292517
1.90439	107546.75593080607
1.90674	195677.2618971477
1.90909	214347.19040997323
1.91144	133093.96072358792
1.91379	57520.04088098078
1.91613	55894.835656918905
1.91848	115225.90336944596
1.92082	187239.80388690133
1.92315	186091.03432311604
1.92549	131148.68441019973
1.92782	152576.39985291302
1.93015	243145.44616244762
1.93248	331204.7733691818
1.93481	355383.8700364836
1.93713	313333.8011068933
1.93945	340639.60146838
1.94177	478805.7903849779
1.94409	585682.7371063199
1.94641	640731.15758435
1.94872	855221.7259359702
1.95103	1086509.6308521298
1.95334	699913.9000061491
1.95564	447111.9643095865
1.95795	525055.722650399
1.96025	548503.0088081463
1.96255	569719.7038597495
1.96484	729066.6430956218
1.96714	1143995.8537872077
1.96943	1716975.3267347764
1.97172	2062780.2747357937
1.97401	1859963.390171506
1.97629	1963508.4235493033
1.97858	2520034.8003359414
1.98086	2906649.068722317
1.98314	3334383.054193439
1.98541	3582297.5194300367
1.98769	3269368.6240596343
1.98996	2533801.2705967957
1.99223	2472359.518783883
1.9945	3076246.271748854
1.99677	2914669.3112540734
1.99903	2819540.50349033
2.00129	3458721.783470849
2.00355	4434104.393372359
2.00581	5070835.827960779
2.00806	5391357.451620939
2.01031	6436647.96864865
2.01256	6814829.037371439
2.01481	6081305.542698701
2.01706	5284530.283470787
2.0193	5274766.830674006
2.02154	6115565.338549628
2.02378	6915468.670983257
2.02602	7093267.86097159
2.02825	7562981.61282985
2.03049	8109029.950408072
2.03272	8538406.747889215
2.03494	8817919.639024243
2.03717	9096921.439031009
2.03939	9573682.907460947
2.04162	10281689.084475629
2.04384	10893333.313602783
2.04605	11467916.312419169
2.04827	11900305.669487711
2.05048	11782830.402767336
2.05269	11032539.325077435
2.0549	10828749.939492729
2.05711	11150209.315638429
2.05931	11674622.465808196
2.06151	12081951.389685178
2.06371	12374696.580895504
2.06591	12555069.245711328
2.06811	12689862.044608472
2.0703	12770056.239956357
2.07249	12758678.02192978
2.07468	12583459.680349108
2.07686	12527039.859296052
2.07905	12623698.745307187
2.08123	12717331.604002291
2.08341	12736048.11297173
2.08559	12703635.487177597
2.08776	12746582.567411087
2.08994	12717484.579701856
2.09211	12598916.585324876
2.09428	12445793.327882899
2.09645	12436307.026876146
2.09861	12396494.703948084
2.10077	12307608.69284668
2.10293	12183144.31439136
2.10509	12038275.143307948
2.10725	11881749.447171688
2.1094	11917517.953957543
2.11155	11927386.179142982
2.1137	11802423.799639534
2.11585	11442030.025620392
2.11799	11176767.944689771
2.12013	11025729.395398231
2.12227	10987052.19764738
2.12441	11045909.703621248
2.12655	11106884.712132111
2.12868	11089198.731088707
2.13081	11084469.631788831
2.13294	11079597.60902901
2.13507	10849355.388927547
2.13719	10437532.83542251
2.13931	10090616.719530102
2.14143	9783597.008679636
2.14355	9263500.749989757
2.14567	8989043.576648848
2.14778	8779182.04939627
2.14989	8538153.69981794
2.152	8097100.472309006
2.1541	8242148.11897293
2.15621	8444955.195726484
2.15831	8480488.215187723
2.16041	7904009.625107524
2.16251	7615366.02040228
2.1646	7448541.916139992
2.1667	7388119.241037833
2.16879	7563285.783482122
2.17087	7770471.228140885
2.17296	7928305.307652328
2.17504	7991122.470657918
2.17713	7870132.225348861
2.1792	7607104.624213037
2.18128	7252074.41300695
2.18336	6846704.400196829
2.18543	6434674.693773027
2.1875	6012975.969265603
2.18957	5532788.522457047
2.19163	4788057.04121645
2.1937	3759490.387519939
2.19576	2740376.4588404107
2.19782	1869813.304671709
2.19987	1469060.3172212266
2.20193	1279822.0752757196
2.20398	1265232.7632590681
2.20603	1367145.8497537258
2.20808	1542769.081509295
2.21012	1738764.3698905893
2.21217	1932236.9405894638
2.21421	1996360.2511899895
2.21625	1940283.4426127255
2.21828	1782022.406523178
2.22032	1688718.7822691752
2.22235	1631478.1086600227
2.22438	1559400.0642822573
2.22641	1364498.6504816404
2.22843	1141687.668149955
2.23046	946442.8395060868
2.23248	825223.9883039998
2.2345	784222.0822576862
2.23651	753973.7709986203
2.23853	724600.718343621
2.24054	631738.7271730299
2.24255	524363.6175663025
2.24456	412353.64180820674
2.24657	422449.57153738104
2.24857	501295.6139728277
2.25057	617815.671940308
2.25257	667188.2918750574
2.25457	710309.800696606
2.25656	749550.8125802686
2.25856	787767.7992550259
2.26055	737297.0998455975
2.26254	644248.6748418523
2.26453	544705.9871434837
2.26651	488737.5336893477
2.2685	469341.84955289355
2.27048	520900.92026775057
2.27246	596775.5484928088
2.27443	668178.8375904289
2.27641	681485.0745128309
2.27838	648731.6313766864
2.28036	598274.9060130849
2.28233	565183.4512255483
2.28429	538961.0889886458
2.28626	513649.8182217013
2.28823	472891.82720346807
2.29019	451638.45305859885
2.29215	445630.248138471
2.29411	473633.9169313918
2.29607	497685.0480220476
2.29802	518350.32409599936
2.29998	540624.2176503444
2.30193	616232.2880931121
2.30388	752923.5804815369
2.30583	1049657.2079845662
2.30778	1352073.3705825065
2.30972	1638283.3935290263
2.31167	1628466.0580284803
2.31361	1450281.6414536503
2.31555	978823.3211086967
2.31749	628980.365642783
2.31943	369315.6182051151
2.32137	362692.8039509122
2.32331	369573.524942897
2.32524	387116.1665223625
2.32718	377973.52034684626
2.32911	371520.7912270094
2.33104	369485.4761650094
2.33297	361634.11812492664
2.3349	351348.2482410701
2.33683	337363.20525429404
2.33876	323669.68510409753
2.34068	309356.0193496375
2.34261	282274.86319951457
2.34453	257375.57815231738
2.34646	234672.42163234277
2.34838	250034.1605395484
2.3503	285943.503357321
2.35223	362977.35641869233
2.35415	437931.84636997525
2.35607	510683.44788768806
2.35799	562700.3403937706
2.35991	614202.9405955703
2.36183	665084.8431887411
2.36375	636599.4220050444
2.36566	569508.5323576959
2.36758	418570.0230667355
2.3695	299566.04081970936
2.37142	201032.9092418931
2.37334	215568.67917510716
2.37526	239883.84674780606
2.37718	279511.37075706717
2.3791	322370.86745854944
2.38101	368584.40873611916
2.38293	433437.19172232784
2.38485	491123.7552764677
2.38677	541493.2316210088
2.3887	524541.2575290161
2.39062	499013.54370566027
2.39254	477624.27994986734
2.39446	484787.4922725756
2.39639	510386.2097180578
2.39831	543220.898600206
2.40024	559704.4394603454
2.40216	544897.1992713067
2.40409	563107.2363435152
2.40602	603107.9369538904
2.40795	741163.2160309879
2.40989	863089.7645315074
2.41182	963778.3737195008
2.41376	1010266.1014468505
2.4157	1059211.6833769768
2.41764	1173667.0984070334
2.41958	1252895.1753747347
2.42152	1303480.463450626
2.42347	1170828.654338006
2.42542	1071428.3500794321
2.42737	1095275.2427472398
2.42932	1264803.367043321
2.43128	1506226.3113242195
2.43324	1569662.7632308786
