#wavelength	surface flux
0.676892	427171.3667499203
0.678297	435724.96133853926
0.679702	443859.23082273215
0.681109	452124.7663813004
0.682517	461414.8079814807
0.683926	470625.1204969832
0.685337	479573.8890491363
0.686749	488638.0110238563
0.688164	497715.2426360475
0.689581	506701.30641206773
0.691	514376.4695603909
0.692422	521901.7128866738
0.693847	533305.3356790806
0.695274	545006.510102758
0.696705	555434.1368572332
0.698139	565331.8945644735
0.699576	575492.1365461693
0.701017	585628.7986848953
0.702461	595374.1481767372
0.70391	606700.7492921003
0.705362	618202.135476158
0.706819	628784.5896133967
0.70828	639546.7051905238
0.709745	650407.4548564483
0.711216	662160.5267600083
0.71269	673590.8966597208
0.71417	684930.4740209603
0.715655	694677.9392847985
0.717145	703155.9906218888
0.71864	717279.4360554006
0.72014	729621.552440463
0.721647	741005.3130830869
0.723158	752578.6380547022
0.724676	763586.6152277156
0.726199	775001.3389297478
0.727728	788101.4451821764
0.729264	797812.4216414683
0.730805	810395.4862921578
0.732353	825188.971474663
0.733907	837115.2611977806
0.735468	849318.1791073232
0.737035	860727.0342937718
0.738609	873646.6404667575
0.74019	884922.5195108016
0.741777	892962.955991317
0.743372	901648.9547041735
0.744973	909632.5022791672
0.746582	914325.0817082828
0.748197	916296.1036081238
0.74982	914144.7512860849
0.751451	906064.5511615957
0.753088	888884.4999794143
0.754734	859755.1582850375
0.756386	813447.7164649663
0.758047	738941.2809320436
0.759715	628519.0340885645
0.76139	469219.89829371916
0.763074	262643.2579542032
0.764765	86595.05191044396
0.766464	12725.410051557044
0.768172	18079.076793671116
0.769887	22066.91266057567
0.77161	151919.7347284947
0.773341	413335.83727541356
0.775081	656997.4670766896
0.776829	842188.3994860798
0.778585	936856.2381015859
0.780349	991252.6226425662
0.782121	1147596.660970515
0.783902	1243678.8940892506
0.785691	1306271.0714231436
0.787489	1359173.6699524482
0.789295	1405030.6795261214
0.79111	1441431.9405806942
0.792933	1326005.9369502189
0.794764	846827.1898276085
0.796604	1391141.101082176
0.798453	1595903.3742461384
0.80031	1634034.5039776398
0.802176	1669275.8124123092
0.804051	1703371.7842173313
0.805934	1736819.2851889173
0.807826	1768579.8306625322
0.809727	1792327.017826722
0.811636	1817706.8165951117
0.813554	1849330.9766402831
0.81548	1897656.568813311
0.817416	1933563.5507067456
0.81936	1968030.781446252
0.821313	2002870.0951214377
0.823274	2030442.125862755
0.825244	2076481.9394384506
0.827223	2112489.7976691704
0.829211	2142691.9554949915
0.831208	2176998.952116736
0.833213	2219511.4545194022
0.835227	2255050.4177330094
0.837249	2284728.916327803
0.83928	2324746.343684053
0.841321	2376388.59530299
0.843369	2422537.9574275184
0.845427	2463815.2504710574
0.847493	2507418.764709384
0.849567	2546749.4683052055
0.851651	2579317.4360078643
0.853742	2630427.351945737
0.855843	2682933.8476579487
0.857952	2728624.2954690605
0.86007	2770671.2372681918
0.862196	2767990.6764661437
0.864331	2823015.487307862
0.866474	2882025.1274319505
0.868626	2934821.812857484
0.870786	2982557.0251834565
0.872955	3032557.2878692606
0.875132	3077968.6681838124
0.877317	3131257.981143378
0.879511	3160836.5752022127
0.881713	3214769.9141733497
0.883923	3275049.8602643325
0.886142	3319666.3995012036
0.888369	3365287.448143804
0.890604	3398625.5948929554
0.892847	3401928.299713675
0.895099	3465644.577046444
0.897358	3549246.7914043767
0.899626	3628924.2595152208
0.901901	3696808.084794194
0.904185	3769788.8652076237
0.906476	3823205.081137772
0.908776	3881082.323578122
0.911083	3950902.182128178
0.913398	3990410.0777688716
0.915721	4028151.235183109
0.918051	4059672.9832834066
0.92039	4170761.554891304
0.922736	4224609.283549365
0.925089	4181850.31574855
0.927451	4000146.0130915446
0.929819	3753433.7091441704
0.932195	4017934.035703062
0.934579	4064278.671822537
0.93697	4210900.869478879
0.939369	4416104.989240585
0.941774	4487030.320421422
0.944187	4339693.56488558
0.946607	4324076.286504113
0.949035	4563669.256101426
0.951469	4561014.2018543845
0.953911	4668090.475492293
0.956359	4931957.41477251
0.958814	4727532.974554958
0.961277	4662151.896119828
0.963746	4756559.063419215
0.966222	4854045.405431373
0.968705	4879411.970619816
0.971194	5265428.3847055985
0.97369	5477968.953276236
0.976193	5474462.061227039
0.978702	5624249.826449146
0.981217	5708570.146782835
0.983739	5809221.029573501
0.986268	5898420.4605096895
0.988802	6027782.6622120915
0.991343	6153871.954144831
0.99389	6234731.17540556
0.996444	6352040.344935721
0.999003	6434630.003107955
1.00157	6505003.365759199
1.00414	6596770.617253347
1.00672	6714010.647371612
1.0093	6816938.796951281
1.01189	6926233.963973934
1.01448	7047169.457025088
1.01708	7143953.9590205075
1.01969	7240628.363570828
1.0223	7316494.093672205
1.02492	7354545.824174996
1.02754	7463823.215293897
1.03017	7483789.020143538
1.0328	7692513.762641994
1.03544	7806082.410348501
1.03808	7904395.40708665
1.04073	8004256.9859762
1.04339	8102712.000126354
1.04604	8199714.365701728
1.04871	8278917.434282045
1.05138	8369008.766895157
1.05405	8487820.052319815
1.05673	8597317.47969885
1.05941	8695193.672862029
1.0621	8789633.300064757
1.06479	8887956.351023506
1.06749	8987124.879088206
1.07019	9065662.467025464
1.07289	9176217.749636775
1.0756	9291594.981973363
1.07832	9385906.983315308
1.08104	9497045.678272389
1.08376	9603142.019865662
1.08649	9688441.281445835
1.08922	9731402.866103886
1.09195	9755770.016195852
1.09469	9802521.791617736
1.09743	9897906.659891568
1.10018	9324102.374042392
1.10293	8750466.014413027
1.10568	8317281.295143538
1.10844	9271413.931760116
1.1112	9017557.945891734
1.11396	8561201.835269883
1.11673	8546322.597901383
1.1195	8773868.76489945
1.12228	8344329.608326513
1.12505	9339081.899223827
1.12783	9438993.935076918
1.13062	9450478.694193132
1.13341	7736019.626990575
1.1362	8869942.664014103
1.13899	10254735.399999645
1.14178	10121215.080115946
1.14458	10534629.843948724
1.14738	10978869.839925414
1.15019	9867802.093166491
1.153	8132202.929385093
1.1558	8842158.008004462
1.15862	9020173.020249816
1.16143	9200829.952625196
1.16425	10175953.45389836
1.16707	11131584.040241107
1.16989	10675061.68476841
1.17271	10987510.933902198
1.17554	11795739.748685643
1.17837	12329235.367142761
1.1812	12552622.283019913
1.18403	13022074.636699742
1.18686	13058079.810175909
1.1897	13120507.85655249
1.19253	13544121.465645492
1.19537	13779963.812325796
1.19822	13928294.173211645
1.20106	14125657.82519467
1.2039	14123567.336679203
1.20675	14323577.230010249
1.2096	14464080.066476367
1.21245	14554320.697103657
1.2153	14791868.483836262
1.21815	14955345.878953462
1.221	15094282.194152914
1.22385	15245186.080526315
1.22671	15401686.493549086
1.22957	15527392.591415139
1.23242	15624457.503335083
1.23528	15764272.941604417
1.23814	15911028.768466791
1.241	16039060.84134473
1.24387	16169241.125550056
1.24673	16294499.199191721
1.24959	16384781.9180528
1.25245	16394088.924327625
1.25532	16647867.755114239
1.25818	16810689.09921484
1.26105	16882806.120434426
1.26392	16973163.28825494
1.26678	17091355.748168983
1.26965	17185518.754232686
1.27252	17255757.510801293
1.27538	17428776.035425916
1.27825	17527457.777203362
1.28112	17555373.77130007
1.28399	17717980.564488333
1.28686	17759300.2688603
1.28973	17697841.51362443
1.2926	17716866.66078004
1.29546	17939118.54033388
1.29833	18106576.60395643
1.3012	17972286.323235698
1.30407	18021474.269850656
1.30694	18060662.211037144
1.30981	18330172.159424923
1.31267	18287702.41140807
1.31554	18616752.6952698
1.31841	18893139.482100885
1.32128	18598636.408772156
1.32414	18062269.61397676
1.32701	17870037.8461593
1.32987	16784549.90418122
1.33274	13668924.903261509
1.3356	11226379.231773943
1.33847	6573845.363893654
1.34133	3955694.7237729114
1.34419	6588222.005006691
1.34705	8283171.287472455
1.34991	6517733.650479222
1.35277	3988897.276281407
1.35563	3927610.01066504
1.35849	5093821.745134345
1.36135	3521679.7168418793
1.3642	5305816.231225254
1.36706	5816508.862443751
1.36991	5485008.991920778
1.37277	8715663.657505695
1.37562	11587853.077087356
1.37847	12194827.657127816
1.38132	6833152.981441216
1.38417	2604096.8967012893
1.38701	4193734.799126718
1.38986	3673367.1427277657
1.39271	3629683.930444577
1.39555	4658131.227688324
1.39839	3662570.7917111386
1.40123	5334862.180505104
1.40407	8375913.698090817
1.40691	10166646.173632087
1.40974	7023691.810960664
1.41258	3321691.3920199843
1.41541	5643940.5020667575
1.41824	7234799.915992562
1.42107	5627789.774336958
1.4239	4096251.7213018937
1.42673	6529907.854361545
1.42955	8680911.844980782
1.43237	5829194.476499658
1.43519	7369572.41140554
1.43801	6489582.861453821
1.44083	7537874.973284843
1.44365	10262765.46100228
1.44646	10572769.173629789
1.44927	13747912.217352139
1.45208	15285023.456504058
1.45489	13697674.593796572
1.45769	15136566.276728634
1.4605	15985426.056432515
1.4633	16128102.376592772
1.4661	16730941.773343442
1.4689	14859864.523546914
1.47169	15295649.149214812
1.47449	15336918.440019537
1.47728	15783806.336769998
1.48007	15713770.01031453
1.48286	17586702.512895994
1.48564	19133319.23687141
1.48842	18995690.046490498
1.4912	19187528.64861145
1.49398	18976514.233142767
1.49676	18303896.81886691
1.49953	19793035.464512747
1.5023	21117022.897477362
1.50507	21091428.96354233
1.50784	20613272.179720692
1.51061	20869800.4162897
1.51337	21377736.42074115
1.51613	22049835.478573907
1.51888	22841456.08056334
1.52164	23936411.25843316
1.52439	24475463.238753915
1.52714	24056324.846652567
1.52989	23943078.73872053
1.53263	24467681.30208492
1.53538	25078519.581265826
1.53812	25165746.462828472
1.54086	25098971.1580113
1.54359	25221548.76938193
1.54632	25709008.95328959
1.54905	25833908.793170065
1.55178	26260412.041079823
1.5545	26232363.703398168
1.55723	25934360.61905011
1.55995	26005574.388565943
1.56266	26374147.030585304
1.56538	26979276.846061617
1.56809	27293528.892234128
1.5708	27299949.396737717
1.57351	27061412.735573325
1.57621	26855730.863477256
1.57891	26328592.249897335
1.58161	26906974.296541482
1.5843	27935558.41193714
1.587	28159778.7872949
1.58969	28166847.51521145
1.59238	28183723.86402389
1.59506	28088367.07802808
1.59774	27951749.387772176
1.60042	27952090.51714111
1.6031	28137678.724485494
1.60577	28332660.337905865
1.60844	28424568.54985221
1.61111	28365346.990990154
1.61378	28257013.07226689
1.61644	28319765.315100025
1.6191	28201425.518337935
1.62176	28052065.15185478
1.62441	28180938.686143033
1.62707	28123432.986378476
1.62971	27755048.6835484
1.63236	27621784.376219943
1.635	28366626.956632044
1.63764	29332147.140845355
1.64028	29658487.051076736
1.64292	29675766.65217187
1.64555	29424703.201045275
1.64818	28797089.428542748
1.65081	28757668.720723554
1.65343	29366629.597557105
1.65605	29637967.480504483
1.65867	29703343.758880995
1.66128	29517993.825569846
1.6639	28486188.39525833
1.66651	26356892.051954534
1.66911	26314377.613240145
1.67172	28347859.083035525
1.67432	29666936.993769765
1.67692	29734214.83613431
1.67951	29406485.235666648
1.68211	29520093.489390887
1.6847	29641715.652428214
1.68728	29387324.243104666
1.68987	29136029.657571655
1.69245	28564270.453604862
1.69503	27395461.58387726
1.6976	26812585.696316972
1.70018	27717631.667117465
1.70275	27802800.405935563
1.70531	27842468.21665528
1.70788	28443703.23312633
1.71044	28335156.76849682
1.713	28563160.066250287
1.71556	28916285.229981072
1.71811	29286413.943846203
1.72066	29662957.057984397
1.72321	29511236.174905803
1.72575	29341849.489971023
1.7283	29074236.980536997
1.73084	28512704.886545993
1.73337	27857730.409853317
1.73591	27333181.86458002
1.73844	27094287.99977336
1.74097	27052657.28232804
1.74349	26294596.737213116
1.74602	25293186.19369194
1.74854	24796404.895390727
1.75105	23614518.191068973
1.75357	21833568.331042007
1.75608	23108930.288022075
1.75859	26240818.84050394
1.7611	27574663.962346062
1.7636	27102531.25517548
1.7661	24658083.964300454
1.7686	22211690.208848502
1.7711	19838369.9260663
1.77359	16845107.33007858
1.77608	12913059.568108361
1.77857	10887489.84065027
1.78105	12204636.002768353
1.78354	13471212.656621004
1.78602	11420535.113906262
1.78849	9919174.357208114
1.79097	11509609.11794886
1.79344	13379684.686907629
1.79591	13996120.16091197
1.79837	14641762.42427955
1.80084	10837154.257770121
1.8033	7987103.00729348
1.80576	4965508.578464101
1.80821	3598061.0325518837
1.81067	6877696.78267999
1.81312	10126351.71331521
1.81557	6881971.415964496
1.81801	4546283.853135616
1.82046	7680138.350871134
1.8229	11137891.556860492
1.82533	8615472.750011114
1.82777	4365479.257329344
1.8302	3963673.0373699595
1.83263	6108770.860915826
1.83506	8083355.142647788
1.83749	10116402.295905968
1.83991	11650225.66791762
1.84233	10741695.871743266
1.84475	10309824.042583289
1.84716	10699902.827359755
1.84957	11113202.342975564
1.85198	9667636.53537539
1.85439	5818813.726919164
1.8568	5222351.820047604
1.8592	6617874.678822104
1.8616	5554129.618712217
1.864	3913736.942507627
1.86639	4438344.015248326
1.86878	6324360.429894011
1.87118	8634318.118148165
1.87356	10959158.741268596
1.87595	11841609.673881803
1.87833	13496995.778089918
1.88071	16929609.19128583
1.88309	16556403.632816387
1.88547	14239428.613222588
1.88784	13792900.492690805
1.89021	13210396.272720478
1.89258	16710716.802508233
1.89494	19030978.312821247
1.89731	14674507.409877159
1.89967	9046381.146046497
1.90203	5508391.432569388
1.90439	5136174.531081203
1.90674	7292605.383158259
1.90909	8084860.999785598
1.91144	5933358.117688684
1.91379	3514505.984504233
1.91613	3202954.5443578037
1.91848	4692095.693219601
1.92082	6410000.81255305
1.92315	6210336.848555324
1.92549	4855106.0772442175
1.92782	5423494.118484609
1.93015	7135219.571708354
1.93248	8318068.036998888
1.93481	8384455.889210621
1.93713	7419291.847335472
1.93945	6949296.532133683
1.94177	7796760.735527379
1.94409	8593080.796198692
1.94641	8444886.640285235
1.94872	8972079.241020242
1.95103	10052336.42986586
1.95334	7590911.0848532
1.95564	6359585.593221342
1.95795	7461169.643448728
1.96025	7908604.299182603
1.96255	8006588.397606134
1.96484	8754632.404433805
1.96714	10731398.151419373
1.96943	13253675.799338097
1.97172	14508223.777313717
1.97401	13574958.220843207
1.97629	14080222.323563853
1.97858	16210175.117083626
1.98086	17456447.376637187
1.98314	18681680.712400798
1.98541	19380887.438456453
1.98769	18350739.63270205
1.98996	15882534.82679875
1.99223	15331543.949281866
1.9945	16829368.56678211
1.99677	16333126.915641997
1.99903	16127073.414175333
2.00129	18079104.828200895
2.00355	20785061.333896946
2.00581	22104274.14065633
2.00806	22201905.95115595
2.01031	24193243.818496555
2.01256	25366397.56831579
2.01481	24299356.45483744
2.01706	22799099.953109607
2.0193	22722281.54224194
2.02154	24532895.61051686
2.02378	26606074.29788532
2.02602	27202633.337555867
2.02825	27632432.60328926
2.03049	28202673.877681885
2.03272	28927504.582158044
2.03494	29636662.697059475
2.03717	30082732.893369142
2.03939	30276933.501816723
2.04162	30934619.72674006
2.04384	31539858.00166615
2.04605	32187575.29054986
2.04827	32793490.227922216
2.05048	32877584.34932604
2.05269	32120238.075902447
2.0549	31960800.906375013
2.05711	32313365.367064305
2.05931	32857118.105906893
2.06151	33296309.23477334
2.06371	33653490.89099108
2.06591	33904704.50548459
2.06811	34097446.68251108
2.0703	34190093.41101421
2.07249	34147358.46553501
2.07468	33948472.77893911
2.07686	33934095.94635677
2.07905	34074536.46783647
2.08123	34245285.18398769
2.08341	34386341.111899994
2.08559	34509955.06543948
2.08776	34601223.29741501
2.08994	34562157.22773707
2.09211	34441103.388609454
2.09428	34332947.10870909
2.09645	34424115.79349909
2.09861	34464146.732975475
2.10077	34435710.18549542
2.10293	34326917.02741916
2.10509	34145336.40706727
2.10725	33980894.37515626
2.1094	34237363.2453361
2.11155	34534029.89102916
2.1137	34687163.422120914
2.11585	34529621.263020456
2.11799	34402488.58785872
2.12013	34411951.28401294
2.12227	34513085.616009854
2.12441	34651502.2930091
2.12655	34706717.817700386
2.12868	34712281.7820058
2.13081	34733755.59290838
2.13294	34766422.10346892
2.13507	34669958.32339245
2.13719	34434378.50269207
2.13931	34232844.83048472
2.14143	34078391.4936162
2.14355	33886659.14533896
2.14567	33785993.07229258
2.14778	33694598.69993407
2.14989	33567424.171957396
2.152	33321906.154906392
2.1541	33376968.527007043
2.15621	33476153.01805394
2.15831	33508047.200387303
2.16041	33251004.70686534
2.16251	33141197.382575363
2.1646	33065957.45108259
2.1667	33010966.047671977
2.16879	33041056.45785165
2.17087	33024244.702291884
2.17296	32953124.38455283
2.17504	32825903.42983839
2.17713	32733027.35581773
2.1792	32635150.397106178
2.18128	32500328.785429366
2.18336	32288082.738456924
2.18543	31992400.783961274
2.1875	31660294.374812607
2.18957	31223198.456197035
2.19163	30370058.18725949
2.1937	28889474.383005206
2.19576	27201514.35323551
2.19782	25467866.281186327
2.19987	24459286.804424856
2.20193	23821444.257599335
2.20398	23498839.579140544
2.20603	23403121.605836477
2.20808	23778589.91649162
2.21012	24388938.997104637
2.21217	25174320.39743383
2.21421	25569056.96721312
2.21625	25579058.23345682
2.21828	25259244.66205536
2.22032	25147363.640832953
2.22235	25003506.13402556
2.22438	24675915.844841916
2.22641	23747600.72913207
2.22843	22700118.987986445
2.23046	21787840.48797717
2.23248	21227808.009761423
2.2345	21102806.984025855
2.23651	20993096.817233305
2.23853	20833499.027335424
2.24054	19977203.10754152
2.24255	18963822.81847225
2.24456	17889206.503710665
2.24657	17959958.454305828
2.24857	18626672.449835245
2.25057	19628606.1358946
2.25257	20112258.371455066
2.25457	20467789.26208194
2.25656	20742566.920860063
2.25856	20974176.804811772
2.26055	20503118.177606564
2.26254	19616028.97082426
2.26453	18355334.9455487
2.26651	17532867.730105124
2.2685	17119688.59894177
2.27048	17587387.29101293
2.27246	18340365.828459848
2.27443	19057090.280130446
2.27641	19154746.985697925
2.27838	18754233.116343323
2.28036	18146899.3293924
2.28233	17658178.27619508
2.28429	17274172.94969534
2.28626	16917715.425799098
2.28823	16411011.588240659
2.29019	15862758.090065405
2.29215	15280485.195214832
2.29411	14629861.637136932
2.29607	13942215.098893603
2.29802	13228430.611588836
2.29998	12704293.682977905
2.30193	12364462.842038045
2.30388	12232211.337861434
2.30583	12436254.034546768
2.30778	12788938.242813742
2.30972	13341352.019243147
2.31167	13512283.766382944
2.31361	13210867.077616774
2.31555	11779242.88741336
2.31749	10341193.271148777
2.31943	9044282.497495148
2.32137	8767484.342158072
2.32331	8621826.950934468
2.32524	8580808.992748648
2.32718	8535265.219695296
2.32911	8594961.687869323
2.33104	8806282.309469173
2.33297	9028255.66028275
2.3349	9246394.346950296
2.33683	9445544.937631905
2.33876	9620686.166342562
2.34068	9773985.31207717
2.34261	9799587.735299965
2.34453	9830451.040771253
2.34646	9867619.605073867
2.34838	10039687.251987806
2.3503	10339413.698135158
2.35223	10933959.124683611
2.35415	11475279.638349291
2.35607	11984545.833929861
2.35799	12380333.897510795
2.35991	12923125.839573056
2.36183	13643336.255664224
2.36375	13534731.905185342
2.36566	12880704.7321836
2.36758	10862469.630491965
2.3695	9298181.94818125
2.37142	8024886.201371407
2.37334	8533393.388798546
2.37526	8806668.237626834
2.37718	8672341.17016651
2.3791	8457551.857530352
2.38101	8344545.004249018
2.38293	9165987.37045436
2.38485	10277123.58476117
2.38677	11684052.465023931
2.3887	12439861.29940445
2.39062	12902330.187068267
2.39254	12772618.39404488
2.39446	12345143.98251441
2.39639	11723575.535681428
2.39831	11266731.579894729
2.40024	10859969.269943895
2.40216	10546999.224246994
2.40409	10592526.888013229
2.40602	10835501.000486637
2.40795	11674667.6038158
2.40989	12385459.266152028
2.41182	12930194.487700293
2.41376	13265457.777125128
2.4157	13623612.643199144
2.41764	14294530.490088625
2.41958	14722439.94473001
2.42152	14952763.136515519
2.42347	14277218.345656006
2.42542	13627420.772820763
