#wavelength	surface flux
0.7	722706.705686144
0.7001166666666666	723786.0102825916
0.7002333527777778	724773.1045614243
0.700350058336574	725760.3633559697
0.7004667833462966	726747.7866936461
0.7005835278101878	727735.3746018816
0.7007002917314895	728723.1271081002
0.7008170751134447	729711.0442397364
0.7009338779592968	730699.1260242274
0.7010507002722901	731594.5287857037
0.7011675420556689	732377.0961665605
0.701284403312678	733159.793975313
0.7014012840465635	733942.6222337012
0.7015181842605713	734725.5809634657
0.701635103957948	735508.6701863513
0.701752043141941	736291.8899241072
0.701869001815798	737075.2401984873
0.7019859799827672	737919.9580231362
0.7021029776460976	738807.4341323294
0.7022199948090387	739695.0581542086
0.7023370314748403	740582.8301134243
0.7024540876467528	741470.7500346331
0.702571163328027	742358.817942494
0.7026882585219152	743247.0338616752
0.7028053732316688	744135.3978168416
0.7029225074605406	745342.8244120685
0.7030396612117841	746673.5997899659
0.7031568344886527	748004.5969637597
0.7032740272944008	749335.8159704151
0.7033912396322832	750667.2568469056
0.7035084715055552	751998.9196302075
0.7036257229174727	753330.8043573071
0.7037429938712924	754662.9110651959
0.7038602843702709	755932.1804235071
0.7039775944176659	757190.9659965481
0.7040949240167356	758449.961367185
0.7042122731707383	759709.1665703831
0.7043296418829335	760968.5816411158
0.7044470301565806	762228.2066143601
0.70456443799494	763488.041525099
0.7046818654012724	764748.0864083236
0.7047993123788394	765861.2969272328
0.7049167789309024	766974.524241284
0.7050342650607243	768087.9370932226
0.7051517707715678	769201.5355139694
0.7052692960666963	770315.3195344524
0.705386840949374	771429.289185605
0.7055044054228656	772543.444498368
0.7056219894904361	773627.8965242868
0.7057395931553511	774522.5880099778
0.705857216420877	775417.4286109173
0.7059748592902804	776312.4183519563
0.7060925217668288	777207.5572579531
0.70621020385379	778102.8453537674
0.7063279055544321	778998.2826642632
0.7064456268720246	779893.869214312
0.7065633678098366	780824.4827047936
0.7066811283711383	781851.3050568181
0.7067989085592001	782878.2985459012
0.7069167083772933	783905.4632005652
0.7070345278286895	784932.799049339
0.707152366916661	785960.3061207545
0.7072702256444803	786987.9844433472
0.7073881040154211	788015.8340456618
0.7075060020327569	789120.9998822098
0.7076239196997625	790338.6997227037
0.7077418570197124	791556.6025131695
0.7078598139958823	792774.7082874338
0.7079777906315483	793993.0170793284
0.7080957869299869	795211.5289226873
0.7082138028944751	796430.2438513528
0.7083318385282908	797649.161899174
0.7084498938347124	798622.9206708481
0.708567968817018	799388.8184546846
0.7086860634784875	800154.8438881527
0.7088041778224007	800920.9969925269
0.7089223118520377	801687.2777890842
0.7090404655706796	802453.6862991073
0.709158638981608	803220.2225438828
0.709276832088105	803986.8865446993
0.7093950448934531	805106.662681231
0.7095132774009353	806394.9674956328
0.7096315296138355	807683.4870275042
0.7097498015354378	808972.2213126305
0.7098680931690269	810261.1703868031
0.7099864045178884	811550.334285823
0.7101047355853081	812839.7130454924
0.7102230863745722	814129.306701621
0.7103414568889679	815375.7839499693
0.7104598471317828	816612.62304318
0.7105782571063047	817849.6682762385
0.7106966868158224	819086.9196835024
0.710815136263625	820324.377299334
0.7109336054530023	821562.0411581023
0.7110520943872445	822799.91129418
0.7111706030696424	824037.9877419478
0.7112891315034873	825107.4618799628
0.7114076796920712	826169.0599165361
0.7115262476386865	827230.8348861155
0.7116448353466263	828292.7868181891
0.711763442819184	829354.9157422519
0.711882070059654	830417.221687803
0.7120007170713306	831479.7046843445
0.7121193838575091	832545.838606242
0.7122380704214853	833648.3815297835
0.7123567767665555	834751.1082104777
0.7124755028960166	835854.0186789527
0.7125942488131658	836957.1129658383
0.7127130145213015	838060.3911017746
0.7128318000237216	839163.8531173968
0.7129506053237256	840267.4990433566
0.7130694304246129	841366.216109459
0.7131882753296837	842447.2401421731
0.7133071400422386	843528.4443455595
0.7134260245655789	844609.8287496457
0.7135449289030065	845691.3933844663
0.7136638530578235	846773.1382800587
0.7137827970333332	847855.0634664688
0.7139017608328388	848937.1689737429
0.7140207444596443	850020.0672256972
0.7141397479170543	851104.2384103897
0.7142587712083737	852188.5902902783
0.7143778143369084	853273.122895481
0.7144968773059646	854357.836256118
0.7146159601188489	855442.7304023148
0.7147350627788687	856527.8053642028
0.7148541852893318	857613.0611719172
0.7149733276535467	858550.065821109
0.7150924898748222	859337.5510918073
0.715211671956468	860125.167610051
0.7153308739017941	860912.9153977149
0.715450095714111	861700.7944766765
0.71556933739673	862488.804868818
0.7156885989529628	863276.9465960248
0.7158078803861218	864065.2196801872
0.7159271816995193	864313.6383790543
0.7160465028964692	864245.160526368
0.7161658439802853	864176.6712607061
0.7162852049542819	864108.1705801667
0.7164045858217744	864039.6584828473
0.716523986586078	863971.1349668449
0.7166434072505089	863902.6000302566
0.716762847818384	863834.0536711788
0.7168823082930204	864498.3418074393
0.7170017886777359	865378.3408092777
0.7171212889758488	866258.4864776158
0.7172408091906781	867138.7788368989
0.7173603493255433	868019.2179115753
0.7174799093837642	868899.8037260972
0.7175994893686615	869780.5363049218
0.7177190892835562	870661.4156725091
0.7178387091317702	873153.119127688
0.7179583489166254	875806.9222779836
0.7180780086414448	878461.1677288063
0.7181976883095517	881115.8555538708
0.7183173879242699	883770.9858269063
0.718437107488924	886426.5586216546
0.7185568470068389	889082.5740118697
0.7186766064813399	891674.7011779837
0.7187963859157535	892658.8462587268
0.7189161853134061	893643.1553636501
0.719036004677625	894627.628520091
0.7191558440117378	895612.2657553906
0.7192757033190732	896597.0670968975
0.7193955826029597	897582.0325719602
0.7195154818667269	898567.1622079362
0.7196354011137046	899491.847499164
0.7197553403472235	900137.63438476
0.7198752995706147	900783.5289015034
0.7199952787872098	901429.5310673334
0.720115278000341	902075.6409001909
0.7202352972133411	902721.8584180208
0.7203553364295432	903368.1836387692
0.7204753956522815	904014.6165803887
0.7205954748848902	904961.774948203
0.7207155741307044	906571.8408218658
0.7208356933930594	908182.1750398381
0.7209558326752915	909792.7776468471
0.7210759919807375	911403.6486876261
0.7211961713127342	913014.7882069098
0.7213163706746197	914626.1962494493
0.7214365900697322	916237.8728599942
0.7215568295014103	917390.6529495098
0.721677088972994	917995.7638121033
0.7217973684878227	918600.9755265062
0.7219176680492374	919206.2881095288
0.7220379876605789	919811.7015779816
0.722158327325189	920417.2159486794
0.7222786870464099	921022.8312384386
0.7223990668275843	921628.5474640797
0.7225194666720555	922620.6181941684
0.7226398865831676	923886.6018313171
0.7227603265642646	925152.7964657353
0.722880786618692	926419.2021325955
0.7230012667497951	927685.818867066
0.7231217669609201	928952.6467043256
0.7232422872554135	930219.685679557
0.7233628276366229	931486.9358279532
0.7234833881078956	933084.5738350597
0.7236039686725803	934807.8334471997
0.7237245693340255	936531.3802692721
0.7238451900955812	938255.2143491516
0.7239658309605971	939979.335734709
0.7240864919324239	941703.7444738329
0.7242071730144127	943428.4406144135
0.724327874209915	945153.4242043472
0.7244485955222832	944993.8200779565
0.7245693369548704	944522.5411586671
0.7246900985110294	944051.1836928916
0.7248108801941148	943579.7476675373
0.7249316820074803	943108.2330695137
0.7250525039544815	942636.639885723
0.7251733460384739	942164.9681030682
0.7252942082628137	941697.5980516714
0.7254150906308574	943768.2597059339
0.7255359931459625	945839.2664704722
0.7256569158114868	947910.6184028053
0.7257778586307888	949982.3155604614
0.7258988216072273	952054.3580009765
0.7260198047441617	954126.7457818962
0.7261408080449525	956199.4789607828
0.72626183151296	958185.7656529195
0.7263828751515454	959595.6011390338
0.7265039389640706	961005.6715977289
0.726625022953898	962415.9770681678
0.7267461271243904	963826.5175895191
0.7268672514789111	965237.2932009565
0.7269883960208241	966648.3039416613
0.7271095607534942	968059.5498508236
0.7272307456802866	969408.0631441057
0.7273519508045666	970586.7098994994
0.7274731761297006	971765.5530960184
0.7275944216590555	972944.5927664035
0.7277156873959987	974123.8289434006
0.7278369733438982	975303.2616597625
0.727958279506122	976482.8909482406
0.7280796058860397	977662.7168416017
0.7282009524870207	978492.1657128886
0.7283223193124353	978803.2153430886
0.7284437063656539	979114.316814893
0.7285651136500483	979425.4701369433
0.7286865411689898	979736.6753178799
0.7288079889258514	980047.9323663473
0.7289294569240056	980359.2412909889
0.7290509451668262	980670.6021004515
0.7291724536576875	981234.1376739772
0.7292939823999636	982006.6781088385
0.7294155313970303	982779.3473004404
0.7295371006522632	983552.1452702408
0.7296586901690385	984325.0720397023
0.7297802999507332	985098.1276302916
0.7299019300007252	985871.3120634814
0.7300235803223919	986644.6253607413
0.7301452509191123	988006.9127829256
0.7302669417942654	989641.2202258685
0.7303886529512311	991275.8000533857
0.7305103843933897	992910.6523108744
0.7306321361241218	994545.7770437383
0.7307539081468093	996181.1742973938
0.7308757004648336	997816.8441172548
0.7309975130815778	999452.7865487544
0.7311193460004248	1001539.9862355948
0.7312411992247582	1003729.6309448103
0.7313630727579622	1005919.6405948104
0.7314849666034219	1008110.0152464209
0.7316068807645224	1010300.754960472
0.7317288152446498	1012491.8597978097
0.7318507700471907	1014683.3298192882
0.7319727451755319	1016875.1650857694
0.732094740633061	1017765.7658749277
0.7322167564231665	1018597.9166630955
0.7323387925492371	1019430.2061430612
0.7324608490146619	1020262.63433794
0.732582925822831	1021095.2012708515
0.7327050229771347	1021927.9069649177
0.7328271404809642	1022760.7514432669
0.7329492783377112	1023577.6565698406
0.7330714365507675	1024236.6325268376
0.7331936151235259	1024895.7183131607
0.7333158140593796	1025554.913947114
0.7334380333617229	1026214.2194470073
0.7335602730339499	1026873.6348311509
0.7336825330794556	1027533.1601178587
0.7338048135016354	1028192.7953254463
0.7339271143038857	1029188.1152169984
0.734049435489603	1031308.0064951754
0.7341717770621846	1033428.2510885659
0.7342941390250283	1035548.8490560541
0.7344165213815324	1037669.8004565361
0.734538924135096	1039791.1053489214
0.7346613472891185	1041912.7637921191
0.734783790847	1044034.7758450583
0.7349062548121412	1045493.0591917569
0.7350287391879431	1045777.7928663958
0.7351512439778078	1046062.5739966476
0.7352737691851374	1046347.4025904208
0.735396314813335	1046632.2786556266
0.7355188808658037	1046917.2022001761
0.7356414673459482	1047202.1732319836
0.7357640742571725	1047487.1917589629
0.7358867016028818	1048221.9253242397
0.7360093493864824	1049400.8685873088
0.7361320176113801	1050580.0083409203
0.736254706280982	1051759.344617824
0.7363774153986956	1052938.8774507756
0.7365001449679286	1054118.6068725302
0.7366228949920899	1055298.532915856
0.7367456654745885	1056478.6556135223
0.7368684564188344	1057823.9000755332
0.7369912678282374	1059262.5809228958
0.7371140997062088	1060701.5015504002
0.7372369520561599	1062140.6619980105
0.7373598248815024	1063580.0623056921
0.7374827181856494	1065019.7025134277
0.7376056319720137	1066459.5826611978
0.7377285662440091	1067899.7027889928
0.7378515210050496	1069230.2966477573
0.7379744962585505	1070528.0869350457
0.738097492007927	1071826.093520715
0.7382205082565949	1073124.3164408144
0.738343545007971	1074422.7557314
0.7384666022654723	1075721.4114285358
0.7385896800325165	1077020.2835682856
0.7387127783125219	1078319.372186727
0.7388358971089073	1079650.4885706673
0.7389590364250921	1080985.0175547444
0.7390821962644963	1082319.7689603197
0.7392053766305403	1083654.7428244608
0.7393285775266454	1084989.9391842468
0.7394517989562333	1086325.3580767608
0.7395750409227259	1087660.999539088
0.7396983034295463	1088980.2884057031
0.739821586480118	1089931.0694360062
0.7399448900778645	1090882.0089298126
0.7400682142262109	1091833.1069135375
0.740191558928582	1092784.3634135919
0.7403149241884034	1093735.7784563955
0.7404383100091014	1094687.3520683732
0.7405617163941028	1095639.0842759523
0.7406851433468352	1096487.2074967425
0.7408085908707264	1096860.7602161954
0.7409320589692048	1097234.3751944345
0.7410555476456997	1097608.052441837
0.7411790569036406	1097981.7919687803
0.7413025867464579	1098355.593785645
0.7414261371775823	1098729.4579028126
0.7415497082004452	1099103.3843306662
0.7416732998184786	1099537.5021480694
0.741796912035115	1100100.6810088498
0.7419205448537874	1100663.9537327732
0.7420441982779297	1101227.320335484
0.742167872310976	1101790.7808326292
0.7422915669563612	1102354.3352398572
0.7424152822175206	1102917.9835728195
0.7425390180978901	1103481.7258471705
0.7426627746009065	1104393.8572340321
0.7427865517300065	1105730.7373781113
0.7429103494886282	1107067.840335549
0.7430341678802096	1108405.1661434788
0.7431580069081896	1109742.714839043
0.7432818665760077	1111080.4864593917
0.7434057468871037	1112418.4810416761
0.7435296478449182	1113756.6986230568
0.7436535694528923	1114836.0417593487
0.7437775117144678	1115738.2046128556
0.7439014746330868	1116640.5178268368
0.7440254582121922	1117542.9814263543
0.7441494624552276	1118445.5954364722
0.7442734873656368	1119348.3598822583
0.7443975329468645	1120251.274788786
0.7445215992023557	1121154.3401811314
0.7446456861355559	1121785.4384893263
0.7447697937499119	1122316.4010838144
0.7448939220488703	1122847.4521720684
0.7450180710358784	1123378.5917688366
0.7451422407143843	1123909.819888871
0.7452664310878367	1124441.1365469256
0.7453906421596846	1124972.5417577561
0.7455148739333779	1125504.035536122
0.7456391264123667	1125913.9020559993
0.7457633996001021	1126304.3751970667
0.7458876935000356	1126694.913416992
0.7460120081156189	1127085.5167266196
0.7461363434503048	1127476.185136799
0.7462606995075466	1127866.9186583804
0.7463850762907978	1128257.7173022148
0.7465094738035127	1128648.5452135003
0.7466338920491467	1129030.0560066027
0.746758331031155	1129411.6303848377
0.7468827907529935	1129793.2683588022
0.7470072712181189	1130174.9699390954
0.7471317724299886	1130556.735136319
0.7472562943920602	1130938.563961075
0.7473808371077922	1131320.4564239688
0.7475054005806435	1131677.656089024
0.7476299848140736	1131882.4252852693
0.7477545898115426	1132087.2286097142
0.7478792155765113	1132292.0660680465
0.7480038621124406	1132496.9376659552
0.7481285294227926	1132701.8434091301
0.7482532175110298	1132906.7833032622
0.7483779263806148	1133111.7573540434
0.7485026560350116	1133246.2565976076
0.7486274064776842	1133189.9483722013
0.748752177712097	1133133.630762091
0.7488769697417158	1133077.303765712
0.749001782570006	1133020.9673815004
0.7491266162004343	1132964.6216078915
0.7492514706364677	1132908.2664433203
0.7493763458815739	1132851.9018862217
0.7495012419392209	1132657.1711578828
0.7496261588128773	1132263.5036193486
0.7497510965060128	1131869.770469558
0.7498760550220971	1131475.9716975759
0.7500010343646007	1131082.1072924647
0.7501260345369949	1130688.177243286
0.750251055542751	1130294.1815390997
0.7503760973853414	1129900.1201689623
0.7505011600682389	1129286.754371224
0.750626243594917	1128490.227002136
0.7507513479688495	1127693.5668784878
0.7508764731935109	1126896.7739781523
0.7510016192723765	1126099.8482789996
0.7511267862089218	1125302.7897588979
0.7512519740066232	1124505.5983957092
0.7513771826689577	1123708.274167293
0.7515024121994025	1122595.3553904195
0.7516276626014359	1121335.1651727092
0.751752933878536	1120074.7649232983
0.7518782260341824	1118814.1546071784
0.7520035390718548	1117553.3341893388
0.7521288729950334	1116292.3036347635
0.7522542278071992	1115031.062908429
0.7523796035118337	1113769.6119753062
0.7525050001124189	1112061.3072138508
0.7526304176124378	1110255.5827437867
0.7527558560153731	1108449.5573196467
0.752881315324709	1106643.2308912673
0.7530067955439299	1104836.6034084826
0.7531322966765205	1103029.67482112
0.7532578187259665	1101222.4450789923
0.7533833616957542	1099414.9141319075
0.75350892558937	1097022.8599965563
0.7536345104103016	1094602.9354004937
0.7537601161620366	1092182.6074836664
0.7538857428480638	1089761.8761788504
0.7540113904718717	1087340.7414188203
0.7541370590369503	1084919.2031363307
0.7542627485467898	1082497.2612641256
0.7543884590048808	1079996.891960364
0.7545141904147151	1076718.0440072177
0.7546399427797842	1073438.6495794177
0.7547657161035808	1070158.708585879
0.754891510389598	1066878.2209355086
0.7550173256413296	1063597.186537195
0.7551431618622698	1060315.6052998155
0.7552690190559135	1057033.477132231
0.7553948972257561	1053480.5603653467
0.7555207963752938	1049019.952209633
0.755646716508023	1044558.6006192293
0.755772657627441	1040096.5054702256
0.7558986197370455	1035633.6666386963
0.756024602840335	1031170.0840006963
0.7561506069408084	1026705.7574322567
0.7562766320419653	1022240.686809385
0.7564026781473054	1017186.8392025699
0.75652874526033	1011097.3684325428
0.7566548333845401	1005006.8827507177
0.7567809425234375	998915.3819879476
0.7569070726805247	992822.865975054
0.7570332238593047	986729.3345428256
0.7571593960632813	980634.7875220195
0.7572855892959586	974539.2247433761
0.7574118035608413	967760.2760925154
0.7575380388614347	960312.6128301909
0.7576642952012449	952863.7082906532
0.7577905725837782	945413.5622670363
0.7579168710125422	937962.1745524021
0.7580431904910444	930509.5449398127
0.7581695310227928	923055.6732222973
0.7582958926112967	915600.5591928196
0.7584222752600652	906650.3194670716
0.7585486789726085	896840.4091621916
0.7586751037524372	887028.863872257
0.7588015496030628	877215.6833247549
0.7589280165279966	867400.867247181
0.7590545045307512	857584.4153669275
0.7591810136148396	847766.3274113609
0.7593075437837755	837946.6031077872
0.7594340950410726	826100.2836478178
0.7595606673902461	813664.4752736759
0.7596872608348112	801226.5942647924
0.7598138753782836	788786.6402757545
0.75994051102418	776344.6129610401
0.7600671677760173	763900.5119751163
0.7601938456373134	751454.336972352
0.7603205446115863	739006.0876070943
0.7604472647023548	723519.9671110659
0.7605740059131385	707729.5077931874
0.7607007682474575	691936.4167320739
0.7608275517088319	676140.6934891519
0.7609543563007835	660342.3376256543
0.7610811820268336	644541.3487028558
0.7612080288905045	628737.7262819337
0.7613348968953197	612735.5976237049
0.7614617860448022	592711.9348390287
0.7615886963424764	572684.9347771946
0.7617156277918667	552654.5968820362
0.7618425803964988	532620.9205972119
0.7619695541598982	512583.90536634566
0.7620965490855914	492543.55063295574
0.7622235651771058	472499.85584042035
0.7623506024379685	452236.1967283044
0.7624776608717082	431019.67499942466
0.7626047404818536	409799.6171835892
0.7627318412719337	388576.0226914875
0.762858963245479	367348.89093362377
0.7629861064060198	346118.2213204652
0.7631132707570876	324884.01326234906
0.7632404563022137	303646.26616957557
0.7633676630449308	282931.19654298853
0.7634948909887717	263332.8158766005
0.7636221401372697	243731.16881346022
0.7637494104939593	224126.25480912428
0.7638767020623748	204518.07331914926
0.7640040148460518	184906.6237989036
0.7641313488485262	165291.9057037386
0.7642587040733344	145673.9184888688
0.7643860805240132	129014.9952213926
0.7645134782041005	115888.24748650138
0.7646408971171346	102759.31196031554
0.764768337266654	89628.18827821346
0.7648957986561985	76494.87607549348
0.7650232812893079	63359.37498740811
0.7651507851695227	50221.68464914127
0.7652783103003843	37081.804695819665
0.7654058566854343	29585.76816075314
0.7655334243282153	25936.401675287692
