#wavelength	surface flux
0.8	354489.47862041835
0.8002000000000001	355704.9539649996
0.8004000500000003	357153.0946831749
0.8006001500125003	358603.9445165102
0.8008003000500035	360055.15706230386
0.8010005001250161	361506.73241123464
0.8012007502500472	362958.67065400054
0.8014010504376099	364119.69867934
0.8016014007002193	365183.44933774136
0.8018018010503944	366247.46593380737
0.8020022515006572	367311.74853402283
0.8022027520635323	368376.29720488744
0.8024033027515483	369451.1947197597
0.8026039035772362	370536.24161876075
0.8028045545531306	371621.5597794866
0.8030052556917691	372707.14926975314
0.803206007005692	373793.0101573913
0.8034068085074435	374939.19458498026
0.8036076602095705	376254.0003328523
0.8038085621246229	377569.13478216034
0.8040095142651542	378884.5980150815
0.8042105166437206	380200.3901138104
0.8044115692728815	381511.9376905573
0.8046126721651998	382627.10015134705
0.8048138253332411	383742.5414027512
0.8050150287895745	384858.2615144692
0.805216282546772	385974.26055621484
0.8054175866174087	387090.5385977203
0.8056189410140631	388176.2864499594
0.8058203457493168	389253.58472068695
0.8060218008357541	390331.1523159808
0.8062233062859632	391408.989303174
0.8064248621125346	392487.0957496133
0.806626468328063	393700.4719381144
0.8068281249451449	395030.10032418853
0.8070298319763813	396360.0611173609
0.8072315894343755	397690.3544007305
0.8074333973317341	399020.98025742144
0.8076352556810671	400095.8672636732
0.8078371644949874	400554.61611534934
0.8080391237861113	401013.47965423856
0.8082411335670578	401472.45790901216
0.8084431938504498	401931.5509083499
0.8086453046489125	402375.6607651225
0.8088474659750746	402538.78550610336
0.8090496778415686	402701.95102826966
0.809251940261029	402865.1573418164
0.8094542532460944	403028.40445694164
0.8096566168094059	403191.6923838455
0.8098590309636085	403558.8397903502
0.8100614957213493	403973.78440475883
0.8102640110952797	404388.8327553211
0.8104665770980536	404803.9848679712
0.8106691937423283	405219.2407686497
0.8108718610407639	405787.7173973643
0.8110745790060241	406473.4166128714
0.8112773476507757	407159.287253183
0.8114801669876885	407845.32936115447
0.8116830370294355	408531.5429796526
0.8118859577886929	409073.4524963377
0.8120889292781401	409315.4152369054
0.8122919515104597	409557.4384681582
0.8124950244983374	409799.52220521885
0.8126981482544621	410041.66646321374
0.8129013227915257	410322.0107550294
0.8131045481222237	411039.1282131727
0.8133078242592543	411756.42495068064
0.8135111512153191	412473.90101237275
0.813714529003123	413191.55644308036
0.8139179576353739	413909.3912876458
0.8141214371247829	417467.0327114975
0.8143249674840641	421576.21500639996
0.814528548725935	425686.42459687364
0.8147321808631167	429797.66173975053
0.8149358639083326	433909.9266919118
0.8151395978743097	436547.3672453239
0.8153433827737784	438188.31931210397
0.8155472186194719	439829.68161690014
0.8157511054241268	441471.45426227216
0.815955043200483	443113.6373508067
0.8161590319612831	444532.0315610102
0.8163630717192736	445539.9622538831
0.8165671624872033	446548.14492942806
0.8167713042778252	447556.57965064293
0.8169754971038948	448565.2664805385
0.8171797409781707	449468.1468817337
0.8173840359134155	449524.5543486476
0.8175883819223938	449580.97591742815
0.8177927790178745	449637.411591601
0.8179972272126291	449693.86137469235
0.8182017265194322	449750.3252702294
0.8184062769510622	451869.94214754004
0.8186108785203001	454307.5754645301
0.8188155312399301	456745.8181898461
0.8190202351227402	459184.67047584616
0.819224990181521	461624.1324749162
0.8194297964290664	463171.98509478476
0.8196346538781738	464182.44111068855
0.8198395625416434	465193.1497405959
0.8200445224322789	466204.11104766116
0.820249533562887	467215.32509505283
0.8204545959462778	468339.98758846655
0.8206597095952644	469647.116578242
0.8208648745226633	470954.57235026587
0.8210700907412941	472262.35498623253
0.8212753582639793	473570.46456785686
0.8214806771035456	474426.54600832507
0.8216860472728215	472495.7825060816
0.8218914687846397	470564.5363129626
0.822096941651836	468632.8073082942
0.822302465887249	466700.5953713758
0.8225080415037209	464767.9003814721
0.8227136685140968	466438.9948999333
0.8229193469312254	468519.6674703767
0.8231250767679583	470600.8602089634
0.8233308580371503	472682.5732457336
0.8235366907516598	474764.80671076453
0.8237425749243477	477192.65775607724
0.8239485105680789	479804.0232523737
0.824154497695721	482416.0415900425
0.824360536320145	485028.71293229633
0.8245666264542252	487642.03744238557
0.8247727681108388	489897.3415209797
0.8249789613028664	491639.52109053946
0.8251852060431922	493382.1362049931
0.825391502344703	495125.1869732246
0.8255978502202894	496868.6735041498
0.8258042496828445	498524.69726747053
0.8260107007452654	499754.24910511944
0.8262172034204517	500984.10833072645
0.8264237577213068	502214.27502114023
0.8266303636607373	503444.74925322714
0.8268370212516525	504675.5311038715
0.8270437305069654	504455.59630680137
0.8272504914395923	504122.2184040329
0.8274573040624523	503788.75715678866
0.8276641683884679	503455.21254423284
0.8278710844305652	503121.5845455235
0.8280780522016729	504025.1160492392
0.8282850717147234	505494.4148785576
0.8284921429826521	506964.08103258186
0.8286992660183978	508434.1146031458
0.8289064408349024	509904.5156821013
0.8291136674451112	510802.57799710846
0.8293209458619727	510978.71080035914
0.8295282760984382	511154.88763681037
0.829735658167463	511331.10851747094
0.8299430920820048	511507.3734533515
0.8301505778550254	511704.1412542763
0.8303581154994891	511982.6153043126
0.8305657050283641	512261.1589728616
0.8307733464546212	512539.77227732755
0.8309810397912352	512818.4552351201
0.8311887850511829	513097.2078636515
0.8313965822474458	516324.3920830758
0.8316044313930077	519689.23217055376
0.8318123325008561	523054.91346805677
0.8320202855839813	526421.4361858824
0.8322282906553774	529788.8005343878
0.8324363477280413	531278.0282739924
0.8326444568149735	532011.1582253475
0.8328526179291771	532744.4714591897
0.8330608310836596	533477.9680213415
0.8332690962914304	534211.6479576328
0.8334774135655034	534765.944790701
0.833685782918895	535119.7984947213
0.8338942043646247	535473.7406621673
0.834102677915716	535827.7713151556
0.834311203585195	536181.8904758067
0.8345197813860912	537133.9274957039
0.8347284113314379	540098.5519544387
0.8349370934342709	543063.9175692864
0.8351458277076294	546030.0245255342
0.8353546141645565	548996.8730085262
0.8355634528180977	551964.4632036375
0.8357723436813022	549335.3987307823
0.8359812867672226	546636.5634064592
0.8361902820889144	543937.0533733064
0.8363993296594368	541236.8684626444
0.8366084294918518	538536.0085057539
0.8368175815992247	539896.8930435108
0.8370267859946247	542657.2568761343
0.8372360426911234	545418.310799715
0.8374453517017962	548180.0549867763
0.8376547130397217	550942.4896098841
0.8378641267179816	552882.0697218007
0.8380735927496613	554004.9638885984
0.8382831111478488	555128.1387789369
0.8384926819256358	556251.5944629975
0.8387023050961173	557375.3310109802
0.8389119806723914	558453.8948379775
0.8391217086675596	559404.8068679717
0.8393314890947265	560355.9566259726
0.8395413219670003	561307.3441714133
0.8397512072974922	562258.9695637409
0.8399611450993165	563258.2780630313
0.8401711353855914	566613.9480960388
0.8403811781694378	569970.4570465536
0.8405912734639802	573327.8051243069
0.8408014212823464	576685.9925390813
0.8410116216376671	580045.0195007088
0.8412218745430766	582860.5930641512
0.8414321800117124	585518.5022164477
0.8416425380567154	588177.0758460335
0.8418529486912297	590836.3141190273
0.8420634119284025	593496.2172015873
0.8422739277813847	595224.374234431
0.8424844962633302	596131.4730120528
0.842695117387396	597038.7985643679
0.8429057911667428	597946.3509480711
0.8431165176145345	598854.1302198707
0.8433272967439382	599839.9506911212
0.8435381285681244	601015.8281624439
0.8437490131002665	602191.9996031345
0.8439599503535415	603368.4650866842
0.84417094034113	604545.2246866059
0.8443819830762154	605738.9555925953
0.8445930785719846	607268.9468622046
0.8448042268416277	608799.3206296305
0.8450154278983382	610330.0769904981
0.8452266817553128	611861.2160404557
0.8454379884257517	613392.7378751761
0.8456493479228583	615082.0529746196
0.845860760259839	616809.696715196
0.846072225449904	618537.7723667076
0.8462837435062666	620266.2800371323
0.8464953144421433	621995.2198344758
0.8467069382707537	623388.4747110116
0.8469186150053215	624520.0849011147
0.847130344659073	625651.9779937656
0.8473421272452377	626784.1540596886
0.8475539627770492	627916.6131696291
0.8477658512677435	629190.018606889
0.8479777927305605	630762.4222045157
0.8481897871787432	632335.2189030414
0.848401834625538	633908.4088007427
0.8486139350841944	635481.9919959174
0.8488260885679657	637030.017562166
0.8490382950901076	638262.0963560357
0.8492505546638802	639494.4831696046
0.8494628673025462	640727.1780798765
0.8496752330193721	641960.1811638776
0.8498876518276269	643193.4924986482
0.8501001237405839	643426.3467346437
0.8503126487715191	643459.4888287657
0.850525226933712	643492.6392084112
0.8507378582404455	643525.7978756517
0.8509505427050057	643558.964832559
0.8511632803406821	644030.5135002204
0.8513760711607672	644802.3855735449
0.8515889151785576	645574.4506148888
0.8518018124073523	646346.7086724925
0.8520147628604541	647119.1597946101
0.8522277665511693	648511.217759853
0.8524408234928071	651049.1545609834
0.8526539336986805	653587.7258463148
0.8528670971821053	656126.9317744677
0.8530803139564007	658666.7725040996
0.8532935840348901	661186.6405659611
0.8535069074308987	663533.0966462172
0.8537202841577566	665880.1393404952
0.8539337142287962	668227.7687954472
0.8541471976573534	670575.9851577615
0.8543607344567677	672924.7885741667
0.8545743246403821	674769.5590802984
0.8547879682215422	676534.6513378893
0.8550016652135977	678300.1848685442
0.8552154156299011	680066.159782582
0.8554292194838088	681832.5761903495
0.8556430767886797	683370.6826750312
0.855856987557877	684770.2818007139
0.8560709518047664	686170.2308261769
0.8562849695427177	687570.5298388969
0.8564990407851035	688971.1789263706
0.8567131655452999	690371.1020536318
0.8569273438366862	691769.6118990718
0.8571415756726455	693168.4713719736
0.8573558610665638	694567.680559744
0.8575702000318304	695967.23954981
0.8577845925818384	697382.6547312216
0.857999038729984	698895.2818387783
0.8582135384896665	700408.2871031115
0.858428091874289	701921.6706187607
0.8586426988972576	703435.4324802887
0.8588573595719821	704949.5727822824
0.8590720739118751	706304.5287694711
0.8592868419303532	707641.010558884
0.8595016636408359	708977.8264687442
0.8597165390567462	710314.9765825814
0.8599314681915105	711652.4609839474
0.8601464510585584	712954.623304814
0.860361487671323	714238.1849706573
0.8605765780432408	715522.0675269169
0.8607917221877518	716806.2710538165
0.8610069201182988	718090.7956315975
0.8612221718483286	718957.703502296
0.8614374773912907	719222.314146584
0.8616528367606385	719486.990943533
0.8618682499698288	719751.7339096814
0.8620837170323213	720016.5430615714
0.8622992379615795	720483.9208216828
0.8625148127710699	721953.5222507655
0.8627304414742627	723423.4910802055
0.8629461240846313	724893.8274018533
0.8631618606156526	726364.5313075815
0.8633776510808066	727835.6028892859
0.8635934954935769	729976.7865916408
0.8638093938674504	732173.4057458398
0.8640253462159173	734370.5740548273
0.8642413525524714	736568.291655892
0.8644574128906095	738766.5586863566
0.8646735272438323	740257.8402648325
0.8648896956256433	741420.4712751206
0.8651059180495498	742583.3929431614
0.8653221945290621	743746.6053416182
0.8655385250776946	744910.1085431761
0.8657549097089641	746469.333010185
0.8659713484363913	748535.185107696
0.8661878412735006	750601.5536682323
0.866404388233819	752668.4388209083
0.8666209893308775	754735.8406948716
0.8668376445782103	756644.603276329
0.8670543539893549	757904.2460348505
0.8672711175778525	759164.2037040624
0.8674879353572469	760424.4763626902
0.8677048073410862	761685.0640894832
0.8679217335429217	762945.9669632087
0.8681387139763074	764095.3518907087
0.8683557486548015	765239.4685773789
0.8685728375919655	766383.8712932223
0.8687899808013633	767528.560109742
0.8690071782965637	768673.5350984674
0.869224430091138	770521.0454277332
0.8694417361986609	772654.7619043215
0.8696590966327107	774789.0118100286
0.869876511406869	776923.795278212
0.8700939805347206	779059.1124422617
0.8703115040298544	781128.0160984099
0.870529081905862	783120.8968069186
0.8707467141763385	785114.2757356036
0.8709644008548827	787108.1530090208
0.8711821419550964	789102.5287517552
0.8713999374905854	791010.943881302
0.871617787474958	792621.4353928559
0.8718356919218269	794232.329527289
0.8720536508448075	795843.6263852558
0.8722716642575187	797455.3260674363
0.8724897321735832	799067.4286745379
0.8727078546066265	800466.8856550718
0.8729260315702784	801863.4513309704
0.873144263078171	803260.3661482864
0.8733625491439405	804657.6301943068
0.8735808897812266	806055.2435563394
0.8737992850036719	806911.8124021123
0.874017734824923	807576.8425657918
0.8742362392586293	808242.0389870119
0.874454798318444	808907.4017073372
0.8746734120180236	809572.9307683427
0.8748920803710283	810436.0233553514
0.875110803391121	811497.6970356348
0.8753295810919689	812559.6361343387
0.875548413487242	813621.8407178173
0.8757673005906139	814684.3108524418
0.8759862424157616	816040.8641705457
0.8762052389763657	818247.9316200927
0.8764242902861098	820455.5508365006
0.8766433963586814	822663.7219577132
0.8768625572077712	824872.4451217068
0.8770817728470732	827069.3785761831
0.8773010432902849	828303.2376102642
0.8775203685511077	829537.4051091056
0.8777397486432454	830771.8811498202
0.8779591835804065	832006.6658095464
0.8781786733763015	833241.7591654359
0.8783982180446457	833902.7093245881
0.878617817599157	834392.9359975123
0.8788374720535569	834883.2852271046
0.8790571814215703	835373.757044004
0.8792769457169257	835864.3514788577
0.879496764953355	835548.6828731919
0.8797166391445934	834507.9416514845
0.8799365683043796	833466.9402444715
0.8801565524464557	832425.6785871068
0.8803765915845676	831384.1566143268
0.8805966857324639	831760.8180799747
0.880816834903897	835700.2793520766
0.881037039112623	839640.725489498
0.8812572983724012	843582.1567384533
0.8814776126969944	847524.5733452226
0.8816979821001687	851322.8939504898
0.8819184065956938	851706.9187188639
0.8821388861973429	852091.0394934304
0.8823594209188923	852475.2562981902
0.882580010774122	852859.569157151
0.8828006557768155	853243.9780943269
0.8830213559407598	854168.8930890885
0.8832421112797452	855229.9579019183
0.8834629218075651	856291.2879809508
0.8836837875380171	857352.8833925034
0.8839047084849018	858414.7442029091
0.884125684662023	859614.2786787193
0.8843467160831886	860924.2281615647
0.8845678027622095	862234.5051317808
0.8847889447129001	863545.1096712395
0.8850101419490785	864856.0418618331
0.8852313944845657	866244.0940305868
0.885452702333187	867800.5820183171
0.8856740655087704	869357.4591280441
0.8858954840251476	870914.7254570482
0.8861169578961539	872472.3811026337
0.886338487135628	873830.6066617565
0.886560071757412	872530.092394003
0.8867817117753515	871229.2529976824
0.8870034072032955	869928.0883915124
0.8872251580550963	868626.5984941922
0.8874469643446101	867324.783224397
0.8876688260856963	869458.8951360849
0.8878907432922178	872304.7170967758
0.8881127159780409	875151.2505129551
0.8883347441570356	877998.4955624919
0.8885568278430749	880846.4524232881
0.8887789670500358	883470.4350375273
0.8890011617917983	885935.6871534524
0.8892234120822464	888401.5555824075
0.8894457179352669	890868.0404784678
0.8896680793647509	893335.1419957542
0.8898904963845921	894748.2219902865
0.8901129690086883	894149.3776208495
0.8903354972509405	893550.3835403203
0.8905580811252535	892951.2397112706
0.8907807206455347	892351.9460962643
0.8910034158256963	891632.064363299
0.8912261666796527	889835.6499732272
0.8914489732213227	888038.7864795573
0.8916718354646282	886241.4737700123
0.8918947534234944	884443.7117322916
0.8921177271118502	882645.5002540626
0.8923407565436284	879360.4589312447
0.8925638417327644	875832.1273059369
0.8927869826931977	872302.9135977216
0.8930101794388711	868772.8175860795
0.8932334319837308	865241.839050435
0.8934567403417267	861652.8558714981
0.8936801045268123	858027.4809108523
0.8939035245529441	854401.1996064687
0.8941270004340824	850774.0117317577
0.894350532184191	847145.9170600788
0.8945741198172371	849438.2418144442
0.8947977633471915	861550.9532489966
0.8950214627880284	873666.6928614072
0.8952452181537254	885785.4614087136
0.8954690294582639	897907.2596481642
0.8956928967156286	908544.2193675525
0.8959168199398075	909528.098735142
0.8961407991447926	910512.2240725737
0.8963648343445789	911496.5954413397
0.896588925553165	912481.2129029472
0.8968130727845534	913466.0765189204
0.8970372760527496	913423.9111345516
0.8972615353717629	913253.2023918595
0.8974858507556059	913082.4509719816
0.8977102222182949	912911.6568642489
0.8979346497738496	912740.8200579891
0.8981591334362931	919459.8126662951
0.8983836732196523	929948.3940819225
0.8986082691379572	940439.5976428968
0.8988329212052417	950933.4240047615
0.8990576294355432	961429.8738232257
0.8992823938429022	968816.8437765265
0.8995072144413631	971578.3573454389
0.8997320912449734	974340.5612927425
0.8999570242677847	977103.4557910323
0.9001820135238516	979867.0410129467
0.9004070590272328	982353.3216948966
0.9006321607919896	983382.8770282592
0.9008573188321878	984412.6897504563
0.9010825331618959	985442.7599258334
0.9013078037951865	986473.0876187546
0.9015331307461353	987503.6728935983
0.9017585140288219	989306.4487084374
0.9019839536573292	991176.1637982102
0.9022094496457435	993046.3463167541
0.9024350020081551	994916.9963809298
0.9026606107586572	996788.1141076209
0.902886275911347	1001145.5705646733
0.9031119974803249	1006702.4792168133
0.9033377754796951	1012260.7770961164
0.903563609923565	1017820.464549887
0.903789500826046	1023381.5419255247
0.9040154482012526	1027418.2942080618
0.904241452063303	1029479.6246440087
0.9044675124263188	1031541.4704125642
0.9046936293044254	1033603.8316425616
0.9049198027117517	1035666.7084628674
0.9051460326624297	1037649.7511665947
0.9053723191705955	1039291.1413379728
0.9055986622503881	1040932.9418568923
0.9058250619159507	1042575.1528259416
0.9060515181814298	1044217.774347734
0.9062780310609752	1045860.8065249058
0.9065046005687405	1041110.3790970139
0.906731226718883	1036002.0689382941
0.9069579095255627	1030892.4817020412
0.907184649002944	1025781.617068979
0.907411445165195	1020669.4747197533
0.9076382980264862	1024947.6336435416
0.907865207600993	1033127.1675998995
0.9080921739028933	1041308.7464397439
0.9083191969463691	1049492.370674297
0.9085462767456058	1057678.0408149129
0.9087734133147922	1062878.4530418809
0.9090006066681211	1064629.7918410592
0.909227856819788	1066381.5684749351
0.9094551637839932	1068133.783052972
0.9096825275749393	1069886.4356846528
0.9099099482068329	1071979.4248841426
0.9101374256938848	1075280.9421547817
0.9103649600503083	1078583.2848047367
0.9105925512903209	1081886.4530403537
0.9108201994281437	1085190.4470680333
0.9110479044780008	1088495.2670942156
0.9112756664541204	1091584.489149342
0.911503485370734	1094669.529598746
0.9117313612420768	1097755.3413082624
0.9119592940823873	1100841.9244707052
0.912187283905908	1103929.2792789396
0.9124153307268845	1100868.5070720136
0.9126434345595664	1095575.2788008698
0.9128715954182063	1090280.7272226631
0.9130998133170609	1084984.8520065593
0.9133280882703902	1079687.6528216517
0.913556420292458	1079400.8291332526
0.9137848093975312	1084282.5737386004
0.9140132555998806	1089165.5387800988
0.9142417589137806	1094049.7245628578
0.9144703193535092	1098935.1313920657
0.9146989369333476	1102834.4733694235
0.9149276116675811	1103757.1042021457
0.9151563435704979	1104679.965692575
