#wavelength	surface flux
0.428837	13017.141212334991
0.43312537	24544.543900299355
0.43745662370000005	27800.39556329454
0.4418311899370001	31232.718114832496
0.44624950183637	35350.412714800696
0.4507119968547338	39259.10874631903
0.45521911682328114	44800.648217616836
0.4597713079915139	50328.87106128212
0.4643690210714291	56722.257598223885
0.4690127112821433	63305.61995086125
0.47370283839496474	71225.16521445282
0.47843986677891437	78774.79315230272
0.48322426544670355	88667.61088684657
0.48805650810117057	99955.11125725695
0.4929370731821824	111882.92047962491
0.49786644391400414	122311.92907457842
0.5028451083531442	136397.09850439226
0.5078735594366757	148629.7518515961
0.5129522950310424	155404.5950396633
0.5180818179813528	160512.47426903518
0.5232626361611664	202390.89458162355
0.5284952625227781	228547.2204866346
0.5337802151480058	250453.8731092597
0.5391180172994858	277948.35554804397
0.5445091974724807	306250.2075346419
0.5499542894472055	335481.9717611139
0.5554538323416777	367908.7910942788
0.5610083706650945	403671.51482622867
0.5666184543717453	438548.24032832077
0.5722846389154628	476934.7895476997
0.5780074853046174	499289.2186151593
0.5837875601576636	439305.0638540846
0.5896254357592402	71822.23253225833
0.5955216901168326	564761.684727582
0.6014769070180009	715304.11252278
0.607491676088181	800726.0403525768
0.6135665928490629	844684.3241418917
0.6197022587775535	942059.8454959563
0.625899281365329	1033205.8459767941
0.6321582741789823	1113778.515668351
0.6384798569207721	1227649.2875786098
0.6448646554899798	1332632.2160195748
0.6513133020448797	1439420.3453957431
0.6578264350653285	1540740.0756743352
0.6644046994159818	1658239.2641257297
0.6710487464101416	1748423.3874559859
0.677759233874243	1931121.958753697
0.6845368262129854	2076137.9886411014
0.6913821944751153	2191136.542898504
0.6982960164198664	2398084.1446370357
0.7052789765840651	2567012.472414826
0.7123317663499058	2745153.710679916
0.7194550840134049	2926664.1070796913
0.7266496348535388	3121236.58282147
0.7339161312020743	3329819.3577694595
0.741255292514095	3546569.9277223484
0.748667845439236	3770630.7142122346
0.7561545238936284	3968972.271702172
0.7637160691325647	3189118.9472146966
0.7713532298238903	2613159.0679442184
0.7790667621221293	4731829.713429563
0.7868574297433505	5098345.415372746
0.7947260040407841	5133373.962837798
0.8026732640811919	5738065.017832864
0.8106999967220039	6033655.626149628
0.8188069966892239	6387629.053858949
0.8269950666561161	6750091.088737572
0.8352650173226772	7115459.62419341
0.8436176674959041	7508538.074257957
0.852053844170863	7910771.722989921
0.8605743826125718	8295497.096503215
0.8691801264386976	8701559.286797894
0.8778719277030844	9147570.11189826
0.8866506469801153	9601868.806080634
0.8955171534499164	10019450.567672487
0.9044723249844157	10553832.945345063
0.9135170482342599	11031806.663475445
0.9226522187166025	11490768.8180011
0.9318787409037684	11391167.784636738
0.941197528312806	12214478.826525824
0.9506095035959342	12629708.913307607
0.9601155986318936	13014625.922547784
0.9697167546182125	13559365.647676883
0.9794139221643946	14522604.903135126
0.9892080613860387	15144007.779123453
0.9991001419998989	15852823.663499337
1.0090911434198981	16520569.894036077
1.019182054854097	17292636.44043353
1.0293738754026378	17913545.26899003
1.0396676141566643	18669048.877760243
1.050064290298231	19350652.887534514
1.0605649332012133	20038119.970545292
1.0711705825332256	20727216.897236142
1.0818822883585577	21423788.497565396
1.0927011112421434	21839170.39358927
1.1036281223545648	20930199.426978193
1.1146644035781104	21405312.15031068
1.1258110476138916	22532160.450948603
1.1370691580900303	22640381.58205181
1.1484398496709307	24081476.80427516
1.1599242481676402	23323287.589903682
1.1715234906493166	24804002.46909377
1.1832387255558097	26939329.29477988
1.1950711128113678	28106929.01202211
1.2070218239394814	28965032.692091618
1.2190920421788762	29929493.91215028
1.2312829626006652	30798269.00224858
1.2435957922266716	31627991.124745466
1.2560317501489384	32377387.765493058
1.2685920676504279	33083744.25568988
1.281277988326932	33739941.03402576
1.2940907682102014	34268921.05312851
1.3070316758923035	34784988.229638875
1.3201019926512265	35386249.85384203
1.3333030125777388	29440978.45824214
1.3466360427035162	23606030.082895663
1.3601024031305513	19791669.044258125
1.373703427161857	27665859.09084766
1.3874404614334754	20128319.64950849
1.4013148660478103	22297236.359327868
1.4153280147082883	21750928.702510588
1.4294812948553712	24440218.02574388
1.443776107803925	27379090.084581036
1.4582138688819641	32921503.396509767
1.4727960075707838	33698956.77114165
1.4875239676464918	36519310.6571335
1.5023992073229566	38804711.36303556
1.5174231993961862	40232703.16473492
1.532597431390148	42151882.41812195
1.5479234057040496	43964162.59443529
1.5634026397610903	44989115.97731786
1.579036666158701	45902996.87486391
1.594827032820288	46825570.36844004
1.610775303148491	47532094.87097061
1.6268830561799759	48101379.15297408
1.6431518867417756	48588205.5530482
1.6595834056091934	48754244.56455273
1.6761792396652853	49342501.99948723
1.6929410320619382	49266737.911890194
1.7098704423825577	49031523.87941039
1.7269691468063835	48482345.024736
1.744238838274447	45287623.83120772
1.7616812266571917	45695042.11493678
1.7792980389237634	33634365.13923292
1.7970910193130012	32483060.124693178
1.815061929506131	26064508.466031197
1.8332125488011928	27757349.045748405
1.8515446742892046	28061023.547306143
1.8700601210320964	29329415.382522557
1.8887607222424174	35923352.198938996
1.9076483294648416	28681719.76192882
1.92672481275949	27584944.479028
1.9459920608870853	28653793.096910797
1.9654519814959561	30061350.48565484
1.9851065013109155	37306749.56238398
2.0049575663240247	38816543.87175194
2.025007141987265	42865794.281606905
2.0452572134071376	47244911.35269193
2.065709785541209	49074167.56001352
2.086366883396621	49795393.89774056
2.107230552230587	50262667.71616917
2.1283028577528933	50699988.61911856
2.1495858863304225	50676375.939307295
2.1710817451937263	50517505.591562085
2.1927925626456637	50425600.9049954
2.2147204882721203	50084551.281944856
2.2368676931548412	49727299.63626956
2.25923637008639	49356635.82771737
2.281828733787254	48181280.66110571
2.3046470211251266	32927234.485277914
2.327693491336378	32312157.014168624
2.3509704262497415	38582991.0719338
2.374480130512239	36512341.78424792
2.3982249318173614	35965772.89026761
2.4222071811355352	35007995.51248795
2.4464292529468903	30221937.650348786
2.4708935454763594	24027499.987816185
2.4956024809311232	18151679.981208794
2.5205585057404343	13261313.087801194
2.5457640907978387	15205375.443741523
2.5712217317058172	10291751.648556564
2.5969339490228753	12062510.903961122
2.622903288513104	16306799.714720806
2.6491323213982354	17964628.14378905
2.6756236446122177	7935290.054014409
2.7023798810583397	12408663.978303064
2.729403679868923	17000547.390694216
2.7566977166676123	14740788.24465978
2.7842646938342885	13293396.263081722
2.812107340772631	13252001.291188555
2.8402284141803578	15479804.906824479
2.8686306983221614	13020584.614528585
2.897317005305383	14979400.881791381
2.926290175358437	19014557.0763227
2.9555530771120213	19674315.013922077
2.9851086078831415	19180943.013306763
3.014959693961973	22603551.152538497
3.0451092909015927	22378497.361743044
3.0755603838106085	25102546.57123878
3.1063159876487147	27499723.636691518
3.137379147525202	26748192.082102697
3.168752939000454	29078993.614442244
3.200440468390459	27294648.54889085
3.232444873074363	28669333.513792835
3.264769321805107	28858760.591315575
3.297417015023158	27445891.680031143
3.330391185173389	27782583.828808572
3.3636950970251234	27297707.560427144
3.397332047995375	26716389.22139721
3.4313053684753285	26424898.301577397
3.465618422160081	25706736.6651852
3.5002746063816828	24941175.08301914
3.5352773524454997	24313345.64012568
3.570630125969955	23605022.581434015
3.606336427229654	22724193.196397215
3.6423997915019504	21844367.510027055
3.67882378941697	21331209.45141886
3.7156120273111397	20125073.355060574
3.7527681475842516	19605873.51144352
3.7902958290600934	18584316.11493421
3.8281987873506953	18293276.508217946
3.8664807752242023	17196493.452564586
3.905145582976444	16722857.76246126
3.9441970388062084	16441059.954845669
3.983639009194271	16560512.722029904
4.023475399286213	16613176.89957218
4.063710153279075	16575437.68783843
4.1043472548118665	16974964.341046035
4.145390727359985	16986917.20996888
4.186844634633585	16673663.636838628
4.2287130809799205	16333743.2036673
4.27100021178972	15885321.805228516
4.313710213907617	15320779.349194385
4.356847316046694	13106447.192457177
4.40041578920716	9131868.703089975
4.444419947099232	5996122.226859709
4.488864146570225	4264058.742335124
4.533752788035927	3525590.5711985067
4.579090315916286	3909339.196624827
4.624881219075449	4463795.0128997015
4.671130031266204	5930428.481092649
4.717841331578866	4924234.838149917
4.765019744894654	3839841.901371695
4.812669942343601	4454871.6386413425
4.8607966417670365	5762780.901446837
4.9094046081847065	5058305.559172629
4.958498654266554	5538583.8555408325
5.008083640809219	6457189.443932394
5.058164477217312	6655975.424272011
5.108746121989485	7560124.413780286
5.15983358320938	7333339.1903792415
5.211431919041474	6618676.664419244
5.263546238231889	7378091.170049742
5.316181700614208	7810042.893483995
5.36934351762035	6121964.4593145
5.423036952796553	5268796.765187887
5.4772673223245185	5814974.388132489
5.532039995547764	5802851.092006447
5.587360395503242	5248183.113889083
5.643233999458275	4917330.875866943
5.6996663394528575	4378690.984310019
5.756663002847385	4497687.037540202
5.814229632875859	4411781.075650325
5.872371929204618	4073583.136456011
5.931095648496664	4028419.6392234284
5.990406604981631	4924879.848784109
6.050310671031448	4011627.318438704
6.110813777741763	5003415.889740815
6.17192191551918	4282589.871289156
6.233641134674372	5621805.185138368
6.295977546021115	5730420.810940396
6.358937321481327	5058216.937839354
6.42252669469614	3043084.151127418
6.486751961643101	2735763.8137083175
6.551619481259532	2921416.0068717995
6.617135676072128	2395848.3788435375
6.683307032832849	2999857.698309693
6.750140103161177	3040560.279931767
6.81764150419279	2846077.427926893
6.885817919234718	2785494.8135923953
6.954676098427065	2825664.7481505605
7.024222859411336	2430056.2733616936
7.094465088005449	2742304.337252421
7.165409738885503	2518322.855064584
7.237063836274358	2560320.452549386
7.309434474637103	2928121.252365135
7.382528819383473	2661795.923172477
7.456354107577308	2237507.8440927006
7.530917648653081	2756923.926285165
7.606226825139612	2137837.127226377
7.682289093391009	2849705.651225764
7.759111984324918	2211137.488645865
7.836703104168168	2517053.0485692364
7.91507013520985	2357235.273978356
7.994220836561947	2659046.7253455794
8.074163044927568	2419627.4984103367
8.154904675376844	2254322.599284638
8.23645372213061	2415915.958897256
8.318818259351918	2353803.144744643
8.402006441945437	2447633.6925432268
8.486026506364892	2251620.9974326733
8.57088677142854	2333646.1704164953
8.656595639142825	2290635.723160488
8.743161595534254	2176344.0255575823
8.830593211489598	2195631.7601354215
8.918899143604493	2165769.6476413338
9.00808813504054	2068830.8759993818
9.098169016390944	2030907.6896872353
9.189150706554853	1992447.0683430955
9.281042213620402	1930639.8606775098
9.373852635756606	1848423.077283887
9.467591162114172	1769668.9278554441
9.562267073735315	1767129.1864082087
9.657889744472667	1696848.1030377543
9.754468641917395	1662486.4473093469
9.852013328336568	1540223.6304470228
9.950533461619933	1537657.990303908
10.050038796236134	1486546.4739637757
10.150539184198495	1440904.2416239553
10.252044576040479	1378082.6893787982
10.354565021800884	1282172.146722881
10.458110672018893	1251114.74464309
10.562691778739081	1242949.2690977785
10.668318696526473	1214169.71599911
10.775001883491738	1166451.0885757788
10.882751902326655	1100451.83609648
10.991579421349924	996969.022384131
11.101495215563421	1049670.7760702192
11.212510167719055	1013268.6383070492
11.324635269396246	961395.5007908206
11.43788162209021	942604.6138672791
11.552260438311112	870829.6124629361
11.667783042694223	842183.2095675848
11.784460873121166	803139.6151770665
11.902305481852377	812189.3946286502
12.0213285366709	779190.3658289645
12.14154182203761	757910.8477549584
12.262957240257986	686187.4287386389
12.385586812660566	630258.125442265
12.509442680787172	636037.0825600919
12.634537107595044	630810.8607776512
12.760882478670995	602419.9230595655
12.888491303457704	603238.5277708316
13.01737621649228	530394.7246679161
13.147549978657205	526547.7064169715
13.279025478443776	475305.0220712424
13.411815733228213	461844.67777265934
13.545933890560496	466118.4321979622
13.681393229466101	446125.0296103231
13.818207161760762	440103.5949101503
13.956389233378369	416110.41872623673
14.095953125712155	419565.67948764825
14.236912656969274	377281.1613587909
14.379281783538968	345901.3720839207
14.523074601374358	334359.2798493718
14.6683053473881	342301.4181018542
14.814988400861985	316143.4246541017
14.963138284870602	296922.56764786295
15.11276966771931	307804.3893569704
15.263897364396504	316044.4726081272
15.41653633804047	265613.604302013
15.570701701420873	240028.7659767536
15.726408718435081	226701.24437216294
15.883672805619431	275547.2628606166
16.042509533675627	232211.1724209098
16.202934629012383	219846.07016613625
16.36496397530251	202781.9784181805
16.528613615055534	203868.35194194227
16.69389975120609	182142.32510247888
16.86083874871815	195827.00226293653
17.02944713620533	188187.44090595466
17.199741607567383	161982.11589178405
17.37173902364306	146571.5249281342
17.54545641387949	165785.6773251957
17.720910978018285	141485.86350686805
17.898120087798468	136031.92874702116
18.077101288676452	138300.46084356378
18.257872301563214	146972.07046831763
18.44045102457885	125511.14852820734
18.62485553482464	114837.43741580953
18.811104090172883	142360.0435533683
18.999215131074614	107217.77087594828
19.189207282385357	111913.50235401542
19.381099355209216	93834.59257989528
19.574910348761303	93407.38334039347
19.77065945224892	101993.64605762494
19.968366046771408	105734.3627558126
20.16804970723912	91824.22383311318
20.369730204311512	82615.98042929017
20.573427506354626	77735.941029738
20.779161781418175	83239.27768762744
20.98695339923236	69505.72067446045
21.19682293322468	71640.61680599862
21.408791162556927	78730.36273667848
21.622879074182496	62074.88656430114
21.839107864924323	63514.08949142558
22.057498943573567	62230.85907222407
22.278073933009303	60595.53995102006
22.500854672339393	52830.13339847243
22.72586321906279	69400.4562098826
22.953121851253417	48597.024073619315
23.18265306976595	66217.56565804423
23.41447960046361	54836.62929646135
23.648624396468247	44225.67594858446
23.88511064043293	41092.30234205183
24.12396174683726	54867.29165662157
24.365201364305634	50558.16665367897
24.608853377948687	46919.36535491022
24.854941911728176	42271.90910219596
25.103491330845458	33557.84251285218
25.354526244153913	32676.410490048227
25.608071506595454	38456.30031142687
25.864152221661406	40231.522840414116
26.122793743878024	35813.15853573978
26.384021681316803	35837.942690727745
26.64786189812997	26353.34163310533
26.91434051711127	32000.40480334258
27.18348392228238	32575.674141810956
27.455318761505207	36257.1957765143
27.72987194912026	30216.58468357284
28.007170668611465	23528.926764004915
28.28724237529758	21610.082210628316
28.57011479905055	21120.29109259841
28.855815947041062	26510.201305433395
29.144374106511474	22202.36480891501
29.435817847576587	21098.152425691067
29.730176026052348	21835.116692469684
30.027477786312875	21415.95386472226
30.327752564176006	17492.5064275537
30.631030089817763	17810.33222695935
30.93734039071594	16492.861897771545
31.246713794623105	16861.460283560933
31.559180932569333	18889.640637133944
31.874772741895026	16175.695283202735
32.19352046931398	17976.991005664808
32.51545567400712	17828.781014266497
32.84061023074719	12355.718801684487
33.169016333054664	12809.654691371004
33.500706496385206	12995.687660466296
33.83571356134906	16114.565491518606
34.17407069696255	13022.116708196245
34.51581140393218	11224.931935751589
34.8609695179715	10677.184036368324
35.209579213151216	10123.85586551153
35.56167500528272	9461.072558772297
35.917291755335555	8947.176885797628
36.27646467288891	10808.794663975541
36.639229319617804	9436.266359743864
37.005621612813975	10506.937318200016
37.37567782894212	7946.1194468561935
37.74943460723154	8653.46130641486
38.12692895330385	9609.64391181842
38.5081982428369	9089.69005423497
38.893280225265265	7897.946551405246
39.28221302751791	6348.1251310376265
39.6750351577931	7641.429625472106
40.071785509371026	5956.798031519297
40.47250336446474	6017.445986231674
40.87722839810939	5823.379250590964
41.28600068209048	6834.033248674438
41.69886068891139	6870.187967581986
42.1158492958005	6235.865482070528
42.53700778875851	5893.594901539976
42.962377866646094	4723.862397156937
43.392001645312554	4503.606735954789
43.825921661765676	4368.96859359612
44.264180878383335	4411.604683530718
44.70682268716717	4208.824221977506
45.15389091403884	4279.671602449633
45.60542982317923	4449.964309238357
46.06148412141103	3981.1023516428154
46.52209896262513	3522.720943248511
46.98731995225138	3378.043245156334
47.4571931517739	3985.651825765202
47.93176508329164	3283.9648833828533
48.411082734124555	3568.81566191768
48.8951935614658	2947.624975098018
49.38414549708046	2726.050335422145
49.877986952051266	2783.7259667713556
50.37676682157178	2680.1657103817884
50.88053448978749	2580.4207943694587
51.38933983468537	2484.3285387264114
51.903233233032225	2391.773686807577
52.422265565362544	2302.6169202457704
52.946488221016175	2216.740653499804
53.47595310322633	2134.0384903389922
54.010712634258596	2054.375644468596
54.550819760601186	1977.6494931519835
55.0963279582072	1903.760436634634
55.647291237789275	1832.5897813485108
56.20376415016716	1764.0595610665666
56.765801791668835	1698.0530419184806
57.33345980958552	1634.4910444022491
57.906794407681375	1573.2833239223694
58.48586235175819	1514.3376043338938
59.070720975275776	1457.5823047981164
59.661428185028534	1402.9226699715446
60.25804246687882	1350.2977874721237
60.860622891547614	1299.6186571434773
61.46922912046309	1250.826024792372
62.083921411667724	1203.8481661956
62.7047606257844	1158.6060799691127
63.331808232042235	1115.058590096842
63.965126314362664	1073.1272712111875
64.60477757750628	1032.7563894338011
65.25082535328136	993.8918725550714
65.90333360681416	956.4692741950694
66.56236694288232	920.4499101511946
67.22799061231113	885.7672529488768
67.90027051843424	852.3834075857893
68.57927322361859	820.2434762675914
69.26506595585477	789.3025717492894
69.95771661541333	759.5220506572588
70.65729378156746	730.8488647375042
71.36386671938313	703.2544219458921
72.07750538657696	676.6908905206392
72.79828044044274	651.1227736997462
73.52626324484716	626.5161231686691
74.26152587729563	602.8271865959023
75.00414113606858	580.0283071587758
75.75418254742928	558.0813580587629
76.51172437290357	536.9566907326362
77.27684161663261	516.6283969582812
78.04961003279894	497.05938062227756
78.83010613312693	478.22820504020905
79.6184071944582	460.1039363202748
80.41459126640278	442.66102928398436
81.2187371790668	425.87692226374264
82.03092455085748	409.72265390939356
82.85123379636605	394.1787186315736
83.6797461343297	379.21873862886014
84.51654359567301	364.8221227641497
85.36170903162974	350.96868807388483
86.21532612194603	337.63509837820556
87.0774793831655	324.8059293890158
87.94825417699715	312.4591526811774
88.82773671876713	300.57892770411246
89.71601408595481	289.14771035445
90.61317422681435	278.14745331798946
91.5193059690825	267.5652231692125
92.43449902877332	257.3812992844471
93.35884401906105	247.5835652173167
