#wavelength	surface flux
0.8	120097.31973273061
0.8002000000000001	120427.78951389281
0.8004000500000003	120790.14694345181
0.8006001500125003	121152.91622449587
0.8008003000500035	121515.7761978602
0.8010005001250161	121878.72688621806
0.8012007502500472	122241.76831224748
0.8014010504376099	122566.14141884707
0.8016014007002193	122877.61251112782
0.8018018010503944	123189.16147118164
0.8020022515006572	123500.7883184756
0.8022027520635323	123812.49307248113
0.8024033027515483	124126.43917402466
0.8026039035772362	124442.58383070109
0.8028045545531306	124758.80752354168
0.8030052556917691	125075.11027230564
0.803206007005692	125391.49209675651
0.8034068085074435	125716.76304835352
0.8036076602095705	126066.8111288109
0.8038085621246229	126416.94672128813
0.8040095142651542	126767.1698476637
0.8042105166437206	127117.48052982074
0.8044115692728815	127467.18528339159
0.8046126721651998	127787.14853718378
0.8048138253332411	128107.19178178915
0.8050150287895745	128427.31503720598
0.805216282546772	128747.51832343657
0.8054175866174087	129067.80166048855
0.8056189410140631	129387.23695085481
0.8058203457493168	129706.48938258957
0.8060218008357541	130025.82162743187
0.8062233062859632	130345.23370533553
0.8064248621125346	130664.72563625844
0.806626468328063	131005.38605216167
0.8068281249451449	131364.24419969603
0.8070298319763813	131723.1920617677
0.8072315894343755	132082.22966080465
0.8074333973317341	132441.3570192415
0.8076352556810671	132764.37412710144
0.8078371644949874	133000.33246647552
0.8080391237861113	133236.3497954345
0.8082411335670578	133472.42612872558
0.8084431938504498	133708.56148110022
0.8086453046489125	133942.90063092374
0.8088474659750746	134142.75718778663
0.8090496778415686	134342.663708789
0.809251940261029	134542.6202064215
0.8094542532460944	134742.62669317858
0.8096566168094059	134942.6831815571
0.8098590309636085	135177.42873981385
0.8100614957213493	135420.3405382973
0.8102640110952797	135663.31306473044
0.8104665770980536	135906.34633429523
0.8106691937423283	136149.44036217756
0.8108718610407639	136414.7687802331
0.8110745790060241	136697.11853124574
0.8112773476507757	136979.53886969638
0.8114801669876885	137262.02981323155
0.8116830370294355	137544.59137950247
0.8118859577886929	137809.82664405112
0.8120889292781401	138038.9940079145
0.8122919515104597	138268.2186636188
0.8124950244983374	138497.5006254871
0.8126981482544621	138726.83990784577
0.8129013227915257	138961.2671188421
0.8131045481222237	139253.3540049473
0.8133078242592543	139545.513912774
0.8135111512153191	139837.74686057764
0.813714529003123	140130.05286661824
0.8139179576353739	140422.4319491604
0.8141214371247829	141092.30734487716
0.8143249674840641	141835.53891968157
0.814528548725935	142578.95630237923
0.8147321808631167	143322.5595394236
0.8149358639083326	144066.34867727695
0.8151395978743097	144611.3069784955
0.8153433827737784	145021.93743005017
0.8155472186194719	145432.67053921756
0.8157511054241268	145843.50633166215
0.815955043200483	146254.44483305517
0.8161590319612831	146636.79301262173
0.8163630717192736	146966.66025082528
0.8165671624872033	147296.609955838
0.8167713042778252	147626.64214827731
0.8169754971038948	147956.7568487649
0.8171797409781707	148274.6821938659
0.8173840359134155	148494.71676912595
0.8175883819223938	148714.80635302956
0.8177927790178745	148934.95095932926
0.8179972272126291	149155.15060178062
0.8182017265194322	149375.40529414234
0.8184062769510622	149847.8679193569
0.8186108785203001	150359.25125474506
0.8188155312399301	150870.76243596635
0.8190202351227402	151382.40149498353
0.819224990181521	151894.16846376515
0.8194297964290664	152306.53468987154
0.8196346538781738	152659.01326954638
0.8198395625416434	153011.57996886602
0.8200445224322789	153364.23480986062
0.820249533562887	153716.97781456538
0.8204545959462778	154081.59685663215
0.8206597095952644	154465.27928239663
0.8208648745226633	154849.05762876789
0.8210700907412941	155232.93191972567
0.8212753582639793	155616.9021792558
0.8214806771035456	155940.7685746407
0.8216860472728215	155893.81147507578
0.8218914687846397	155846.84263623596
0.822096941651836	155799.86205518642
0.822302465887249	155752.86972899162
0.8225080415037209	155705.86565471525
0.8227136685140968	156145.9097029422
0.8229193469312254	156641.355237328
0.8231250767679583	157136.92463309754
0.8233308580371503	157632.61792121577
0.8235366907516598	158128.4351326564
0.8237425749243477	158663.01211757827
0.8239485105680789	159218.2004101069
0.824154497695721	159773.5274997083
0.824360536320145	160328.99342108218
0.8245666264542252	160884.5982089364
0.8247727681108388	161397.45298418228
0.8249789613028664	161849.01097631195
0.8251852060431922	162300.68185794004
0.825391502344703	162752.46565728833
0.8255978502202894	163204.36240258685
0.8258042496828445	163643.8554588261
0.8260107007452654	164022.67033180693
0.8262172034204517	164401.57990850564
0.8264237577213068	164780.58421259862
0.8266303636607373	165159.6832677678
0.8268370212516525	165538.87709770058
0.8270437305069654	165736.43924399422
0.8272504914395923	165919.8500373157
0.8274573040624523	166103.30668333557
0.8276641683884679	166286.80919351676
0.8278710844305652	166470.35757932573
0.8280780522016729	166812.1869028287
0.8282850717147234	167226.4306322656
0.8284921429826521	167640.77792263444
0.8286992660183978	168055.22879982617
0.8289064408349024	168469.78328973695
0.8291136674451112	168813.81485697668
0.8293209458619727	169068.8758773683
0.8295282760984382	169324.00066301468
0.829735658167463	169579.1892298578
0.8299430920820048	169834.44159384226
0.8301505778550254	170094.01435288836
0.8303581154994891	170370.64127025582
0.8305657050283641	170647.33734435288
0.8307733464546212	170924.1025924683
0.8309810397912352	171200.93703189614
0.8311887850511829	171477.84067993332
0.8313965822474458	172129.57856612193
0.8316044313930077	172798.8742134125
0.8318123325008561	173468.3371846155
0.8320202855839813	174137.967521561
0.8322282906553774	174807.76526609078
0.8324363477280413	175237.75451084645
0.8326444568149735	175571.23778236393
0.8328526179291771	175904.8044246989
0.8330608310836596	176238.45445869496
0.8332690962914304	176572.18790519907
0.8334774135655034	176883.06407064528
0.833685782918895	177168.3924237696
0.8338942043646247	177453.79210898204
0.834102677915716	177739.26314411598
0.834311203585195	178024.80554700847
0.8345197813860912	178388.46118836701
0.8347284113314379	179014.9039185465
0.8349370934342709	179641.50325940823
0.8351458277076294	180268.25925010437
0.8353546141645565	180895.17192979925
0.8355634528180977	181522.24133766379
0.8357723436813022	181413.70126632773
0.8359812867672226	181296.04922157052
0.8361902820889144	181178.36776380218
0.8363993296594368	181060.65688566936
0.8366084294918518	180942.91657981699
0.8368175815992247	181366.488305346
0.8370267859946247	181976.60948505564
0.8372360426911234	182586.88319506
0.8374453517017962	183197.30947349183
0.8376547130397217	183807.8883584932
0.8378641267179816	184307.33814227214
0.8380735927496613	184696.49236873622
0.8382831111478488	185085.74388375666
0.8384926819256358	185475.09271165566
0.8387023050961173	185864.53887676197
0.8389119806723914	186249.4504124396
0.8391217086675596	186621.42223986206
0.8393314890947265	186993.4870602411
0.8395413219670003	187365.64489682528
0.8397512072974922	187737.89577286885
0.8399611450993165	188116.60790671452
0.8401711353855914	188811.65701057168
0.8403811781694378	189506.8798767046
0.8405912734639802	190202.27654855422
0.8408014212823464	190897.84706957213
0.8410116216376671	191593.5914832202
0.8412218745430766	192219.25965413597
0.8414321800117124	192824.64415091372
0.8416425380567154	193430.17999381595
0.8418529486912297	194035.86722067907
0.8420634119284025	194641.7058693484
0.8422739277813847	195116.80627991847
0.8424844962633302	195476.7065628549
0.842695117387396	195836.6968208616
0.8429057911667428	196196.77707643283
0.8431165176145345	196556.94735206812
0.8433272967439382	196932.59485044045
0.8435381285681244	197345.86985998493
0.8437490131002665	197759.2481882817
0.8439599503535415	198172.72986116027
0.84417094034113	198586.3149044574
0.8443819830762154	199002.98112819195
0.8445930785719846	199479.73923528753
0.8448042268416277	199956.61653190965
0.8450154278983382	200433.61304785582
0.8452266817553128	200910.72881293096
0.8454379884257517	201387.9638569474
0.8456493479228583	201878.25599991743
0.845860760259839	202371.78629129333
0.846072225449904	202865.43996524205
0.8462837435062666	203359.2170526094
0.8464953144421433	203853.11758424886
0.8467069382707537	204301.65638166814
0.8469186150053215	204714.85299002906
0.847130344659073	205128.15289754217
0.8473421272452377	205541.55613003173
0.8475539627770492	205955.06271332985
0.8477658512677435	206389.52633505667
0.8479777927305605	206868.37857743143
0.8481897871787432	207347.3505328667
0.848401834625538	207826.44223129106
0.8486139350841944	208305.65370263974
0.8488260885679657	208781.67967432103
0.8490382950901076	209217.53418796937
0.8492505546638802	209653.49766524637
0.8494628673025462	210089.57013339252
0.8496752330193721	210525.75161965634
0.8498876518276269	210962.04215129113
0.8501001237405839	211269.65360878754
0.8503126487715191	211551.63359316753
0.850525226933712	211833.68407254346
0.8507378582404455	212115.80506453922
0.8509505427050057	212397.99658678315
0.8511632803406821	212741.55481391662
0.8513760711607672	213127.1755738028
0.8515889151785576	213512.89273887948
0.8518018124073523	213898.70633324716
0.8520147628604541	214284.61638101318
0.8522277665511693	214750.91528319183
0.8524408234928071	215365.8218056714
0.8526539336986805	215980.88205478177
0.8528670971821053	216596.09606895447
0.8530803139564007	217211.46388662996
0.8532935840348901	217824.1700200385
0.8535069074308987	218413.25077229406
0.8537202841577566	219002.47879473818
0.8539337142287962	219591.854124188
0.8541471976573534	220181.37679746977
0.8543607344567677	220771.04685142
0.8545743246403821	221300.1254542417
0.8547879682215422	221819.69030016294
0.8550016652135977	222339.3850372956
0.8552154156299011	222859.2096981126
0.8554292194838088	223379.16431509514
0.8556430767886797	223869.60019083213
0.855856987557877	224342.156749813
0.8560709518047664	224814.83144793333
0.8562849695427177	225287.62431472837
0.8564990407851035	225760.53537974023
0.8567131655452999	226235.49986243932
0.8569273438366862	226713.7539595277
0.8571415756726455	227192.12762014044
0.8573558610665638	227670.62087416853
0.8575702000318304	228149.23375150957
0.8577845925818384	228630.3475393131
0.857999038729984	229126.45581556545
0.8582135384896665	229622.68811888678
0.858428091874289	230119.04448028395
0.8586426988972576	230615.52493077132
0.8588573595719821	231112.1295013715
0.8590720739118751	231589.07418260115
0.8592868419303532	232063.80550251022
0.8595016636408359	232538.65550524925
0.8597165390567462	233013.6242204888
0.8599314681915105	233488.7116779073
0.8601464510585584	233957.68116967406
0.860361487671323	234423.45748707684
0.8605765780432408	234889.35024855885
0.8607917221877518	235355.35948323162
0.8610069201182988	235821.48522021293
0.8612221718483286	236194.42232102033
0.8614374773912907	236432.94062999683
0.8616528367606385	236671.5185685505
0.8618682499698288	236910.15615158898
0.8620837170323213	237148.85339402317
0.8622992379615795	237427.6080891099
0.8625148127710699	237904.36615399303
0.8627304414742627	238381.2434083924
0.8629461240846313	238858.2398821054
0.8631618606156526	239335.35560493692
0.8633776510808066	239812.59060669906
0.8635934954935769	240501.07145724384
0.8638093938674504	241207.03085233862
0.8640253462159173	241913.16673728215
0.8642413525524714	242619.4791561969
0.8644574128906095	243325.96815321624
0.8646735272438323	243824.55776548779
0.8648896956256433	244226.51091639613
0.8651059180495498	244628.56455559222
0.8653221945290621	245030.71870819773
0.8655385250776946	245432.97339934198
0.8657549097089641	245934.629917903
0.8659713484363913	246563.5392971233
0.8661878412735006	247192.60590368867
0.866404388233819	247821.82977690562
0.8666209893308775	248451.2109560906
0.8668376445782103	249049.96648291897
0.8670543539893549	249523.23065851716
0.8672711175778525	249996.6131501596
0.8674879353572469	250470.11398742444
0.8677048073410862	250943.73319989874
0.8679217335429217	251417.47081717648
0.8681387139763074	251889.4479805725
0.8683557486548015	252361.4497998764
0.8685728375919655	252833.56961963567
0.8687899808013633	253305.80746934886
0.8690071782965637	253778.16337852512
0.869224430091138	254345.59485273782
0.8694417361986609	254951.8062617874
0.8696590966327107	255558.1692236891
0.869876511406869	256164.6837763313
0.8700939805347206	256771.34995761138
0.8703115040298544	257370.39960259644
0.870529081905862	257960.71770688912
0.8707467141763385	258551.18339070762
0.8709644008548827	259141.79669094709
0.8711821419550964	259732.55764451122
0.8713999374905854	260313.13711014867
0.871617787474958	260858.21214297778
0.8718356919218269	261403.42344456562
0.8720536508448075	261948.77104897887
0.8722716642575187	262494.2549902929
0.8724897321735832	263039.8753025925
0.8727078546066265	263553.6187878007
0.8729260315702784	264067.0036826039
0.873144263078171	264580.5169236302
0.8733625491439405	265094.1585429668
0.8735808897812266	265607.92857270845
0.8737992850036719	266038.5122261408
0.874017734824923	266439.6947865888
0.8742362392586293	266840.9776426767
0.874454798318444	267242.3608194785
0.8746734120180236	267643.8443420746
0.8748920803710283	268079.1675869839
0.875110803391121	268548.50449598127
0.8753295810919689	269017.9587392062
0.875548413487242	269487.5303459919
0.8757673005906139	269957.2193456793
0.8759862424157616	270475.2832331214
0.8762052389763657	271133.1118903747
0.8764242902861098	271791.10500479187
0.8766433963586814	272449.26261748787
0.8768625572077712	273107.5847695872
0.8770817728470732	273764.0685864467
0.8773010432902849	274264.3339141573
0.8775203685511077	274764.7243082005
0.8777397486432454	275265.2397998416
0.8779591835804065	275765.88042035623
0.8781786733763015	276266.64620102535
0.8783982180446457	276676.8396271999
0.878617817599157	277060.1547770811
0.8788374720535569	277443.5657557495
0.8790571814215703	277827.0725871626
0.8792769457169257	278210.6752952835
0.879496764953355	278489.69875989674
0.8797166391445934	278674.6821505669
0.8799365683043796	278859.71178708476
0.8801565524464557	279044.7876810117
0.8803765915845676	279229.90984391235
0.8805966857324639	279642.2388084114
0.880816834903897	280625.2299841137
0.881037039112623	281608.4669076103
0.8812572983724012	282591.94964033767
0.8814776126969944	283575.67824374867
0.8816979821001687	284539.176861296
0.8819184065956938	285020.9097969614
0.8821388861973429	285502.7631658612
0.8823594209188923	285984.7369981028
0.882580010774122	286466.83132380224
0.8828006557768155	286949.0461730833
0.8830213559407598	287462.9044300293
0.8832421112797452	287984.8194692883
0.8834629218075651	288506.8649873068
0.8836837875380171	289029.04101670504
0.8839047084849018	289551.3475901107
0.884125684662023	290027.16354488715
0.8843467160831886	290465.7375198537
0.8845678027622095	290904.42113831395
0.8847889447129001	291343.21442767885
0.8850101419490785	291782.11741536605
0.8852313944845657	292289.9544553931
0.885452702333187	292948.5664642433
0.8856740655087704	293607.34312609566
0.8858954840251476	294266.2844821133
0.8861169578961539	294925.3905734697
0.886338487135628	295553.32088910695
0.886560071757412	295764.3467084813
0.8867817117753515	295975.42528431054
0.8870034072032955	296186.5566297838
0.8872251580550963	296397.74075809325
0.8874469643446101	296608.97768243484
0.8876688260856963	297263.81503592967
0.8878907432922178	298010.6139631007
0.8881127159780409	298757.5995900031
0.8883347441570356	299504.77196331305
0.8885568278430749	300252.13112971553
0.8887789670500358	300950.31282636663
0.8890011617917983	301613.6513282666
0.8892234120822464	302277.1556647923
0.8894457179352669	302940.8258774016
0.8896680793647509	303604.6620075646
0.8898904963845921	304139.5982783388
0.8901129690086883	304428.4073042479
0.8903354972509405	304717.28853241337
0.8905580811252535	305006.24198088615
0.8907807206455347	305295.2676677206
0.8910034158256963	305562.85681394604
0.8912261666796527	305638.2895155607
0.8914489732213227	305713.7410753509
0.8916718354646282	305789.2114980311
0.8918947534234944	305864.70078831684
0.8921177271118502	305940.20895092515
0.8923407565436284	305845.0996619286
0.8925638417327644	305722.1311705875
0.8927869826931977	305599.13193712354
0.8930101794388711	305476.1019538512
0.8932334319837308	305353.0412130831
0.8934567403417267	305274.49024353956
0.8936801045268123	305223.5963365412
0.8939035245529441	305172.68970606604
0.8941270004340824	305121.77034893335
0.894350532184191	305070.8382619613
0.8945741198172371	305835.46103304427
0.8947977633471915	307952.7965256844
0.8950214627880284	310070.6613521976
0.8952452181537254	312189.05564491614
0.8954690294582639	314307.97953620914
0.8956928967156286	316212.75551555713
0.8959168199398075	316724.82626062696
0.8961407991447926	317237.02502338315
0.8963648343445789	317749.35183583
0.896588925553165	318261.8067299797
0.8968130727845534	318774.389737853
0.8970372760527496	319119.12483072374
0.8972615353717629	319442.9289194396
0.8974858507556059	319766.8139591777
0.8977102222182949	320090.77997017564
0.8979346497738496	320414.82697267656
0.8981591334362931	321683.2009833375
0.8983836732196523	323468.278020367
0.8986082691379572	325253.8013266547
0.8988329212052417	327039.7710137689
0.8990576294355432	328826.1871933064
0.8992823938429022	330190.9892930821
0.8995072144413631	330928.58199226024
0.8997320912449734	331666.3590896129
0.8999570242677847	332404.32063123974
0.9001820135238516	333142.4666632521
0.9004070590272328	333852.8407596212
0.9006321607919896	334416.8350847737
0.9008573188321878	334980.9704085081
0.9010825331618959	335545.24676607316
0.9013078037951865	336109.6641927277
0.9015331307461353	336674.2227237386
0.9017585140288219	337369.8281288504
0.9019839536573292	338076.88268553047
0.9022094496457435	338784.11400584923
0.9024350020081551	339491.52213399886
0.9026606107586572	340199.1071141803
0.902886275911347	341188.73722783115
0.9031119974803249	342314.494859197
0.9033377754796951	343440.5339299707
0.903563609923565	344566.85451051156
0.903789500826046	345693.45667119836
0.9040154482012526	346631.06536610826
0.904241452063303	347323.71907650447
0.9044675124263188	348016.5459503281
0.9046936293044254	348709.5460308701
0.9049198027117517	349402.7193614326
0.9051460326624297	350093.0387829177
0.9053723191705955	350770.6402521613
0.9055986622503881	351448.41112177155
0.9058250619159507	352126.3514340992
0.9060515181814298	352804.4612315054
0.9062780310609752	353482.74055636046
0.9065046005687405	353322.68099391833
0.906731226718883	353115.80350882735
0.9069579095255627	352908.87430436537
0.907184649002944	352701.89336760226
0.907411445165195	352494.86068560474
0.9076382980264862	353462.7451532823
0.907865207600993	354918.83400336094
0.9080921739028933	356375.2868756516
0.9083191969463691	357832.10386116017
0.9085462767456058	359289.2850509158
0.9087734133147922	360389.31762123614
0.9090006066681211	361076.69335172814
0.909227856819788	361764.24092615186
0.9094551637839932	362451.96038747014
0.9096825275749393	363139.85177865357
0.9099099482068329	363867.4247968148
0.9101374256938848	364735.59770409483
0.9103649600503083	365603.9876546012
0.9105925512903209	366472.5947025951
0.9108201994281437	367341.41890235187
0.9110479044780008	368210.4603081576
0.9112756664541204	369065.35191530775
0.911503485370734	369920.12838591164
0.9117313612420768	370775.1185506332
0.9119592940823873	371630.32246289565
0.912187283905908	372485.7401761365
0.9124153307268845	372543.5923877582
0.9126434345595664	372311.911787643
0.9128715954182063	372080.17326737795
0.9130998133170609	371848.3768124828
0.9133280882703902	371616.52240847383
0.913556420292458	372028.0774154321
0.9137848093975312	373103.35271558544
