#wavelength	surface flux
0.7	3793073.0626588236
0.7001166666666666	3798105.8680634247
0.7002333527777778	3802481.555684788
0.700350058336574	3806857.972587419
0.7004667833462966	3811235.118892862
0.7005835278101878	3815612.9947227007
0.7007002917314895	3819991.6001985045
0.7008170751134447	3824370.9354418865
0.7009338779592968	3828751.000574474
0.7010507002722901	3832820.6198197203
0.7011675420556689	3836512.236954607
0.701284403312678	3840204.4693590105
0.7014012840465635	3843897.3171354863
0.7015181842605713	3847590.7803865904
0.701635103957948	3851284.859214901
0.701752043141941	3854979.553723016
0.701869001815798	3858674.8640135536
0.7019859799827672	3862090.158047089
0.7021029776460976	3865310.717127195
0.7022199948090387	3868531.812967152
0.7023370314748403	3871753.4456564137
0.7024540876467528	3874975.6152844564
0.702571163328027	3878198.3219407657
0.7026882585219152	3881421.565714859
0.7028053732316688	3884645.3466962436
0.7029225074605406	3889416.2613551393
0.7030396612117841	3894785.1829577866
0.7031568344886527	3900154.999380702
0.7032740272944008	3905525.710773018
0.7033912396322832	3910897.3172839023
0.7035084715055552	3916269.819062533
0.7036257229174727	3921643.2162581286
0.7037429938712924	3927017.5090199285
0.7038602843702709	3932502.2240504324
0.7039775944176659	3938006.429705033
0.7040949240167356	3943511.552727245
0.7042122731707383	3949017.5932699577
0.7043296418829335	3954524.5514860973
0.7044470301565806	3960032.4275286053
0.70456443799494	3965541.2215504497
0.7046818654012724	3971050.933704634
0.7047993123788394	3975763.880459726
0.7049167789309024	3980476.697328507
0.7050342650607243	3985190.299666773
0.7051517707715678	3989904.687605427
0.7052692960666963	3994619.861275402
0.705386840949374	3999335.820807653
0.7055044054228656	4004052.566333167
0.7056219894904361	4008652.1132530756
0.7057395931553511	4012502.646365944
0.705857216420877	4016353.821234334
0.7059748592902804	4020205.6379651995
0.7060925217668288	4024058.096665525
0.70621020385379	4027911.197442299
0.7063279055544321	4031764.9404025315
0.7064456268720246	4035619.325653263
0.7065633678098366	4039646.8813562784
0.7066811283711383	4044150.25374507
0.7067989085592001	4048654.376695927
0.7069167083772933	4053159.250333939
0.7070345278286895	4057664.8747842275
0.707152366916661	4062171.2501719254
0.7072702256444803	4066678.3766221823
0.7073881040154211	4071186.254260187
0.7075060020327569	4075815.672227809
0.7076239196997625	4080621.772531235
0.7077418570197124	4085428.673851374
0.7078598139958823	4090236.3763217325
0.7079777906315483	4095044.8800758403
0.7080957869299869	4099854.1852472373
0.7082138028944751	4104664.2919694935
0.7083318385282908	4109475.2003762065
0.7084498938347124	4113750.587264073
0.708567968817018	4117571.980832599
0.7086860634784875	4121394.011300058
0.7088041778224007	4125216.678772598
0.7089223118520377	4129039.9833563785
0.7090404655706796	4132863.925157587
0.709158638981608	4136688.504282434
0.709276832088105	4140513.7208371353
0.7093950448934531	4145145.05005553
0.7095132774009353	4150161.2909399583
0.7096315296138355	4155178.3678645366
0.7097498015354378	4160196.2809686004
0.7098680931690269	4165215.03039151
0.7099864045178884	4170234.6162726637
0.7101047355853081	4175255.038751463
0.7102230863745722	4180276.2979673385
0.7103414568889679	4185069.182226488
0.7104598471317828	4189810.782970938
0.7105782571063047	4194553.173982175
0.7106966868158224	4199296.355391913
0.710815136263625	4204040.327331886
0.7109336054530023	4208785.089933851
0.7110520943872445	4213530.643329582
0.7111706030696424	4218276.9876508815
0.7112891315034873	4222794.968235317
0.7114076796920712	4227302.768181329
0.7115262476386865	4231811.319427332
0.7116448353466263	4236320.622098539
0.711763442819184	4240830.676320194
0.711882070059654	4245341.482217558
0.7120007170713306	4249853.0399159
0.7121193838575091	4254392.34722111
0.7122380704214853	4259213.989975385
0.7123567767665555	4264036.436336781
0.7124755028960166	4268859.68643924
0.7125942488131658	4273683.740416712
0.7127130145213015	4278508.598403194
0.7128318000237216	4283334.260532659
0.7129506053237256	4288160.726939151
0.7130694304246129	4292897.31147853
0.7131882753296837	4297317.614273069
0.7133071400422386	4301738.653784741
0.7134260245655789	4306160.430136329
0.7135449289030065	4310582.943450643
0.7136638530578235	4315006.193850507
0.7137827970333332	4319430.181458778
0.7139017608328388	4323854.906398316
0.7140207444596443	4328341.2808092525
0.7141397479170543	4332937.063942617
0.7142587712083737	4337533.613039829
0.7143778143369084	4342130.928228562
0.7144968773059646	4346729.009636493
0.7146159601188489	4351327.857391325
0.7147350627788687	4355927.471620783
0.7148541852893318	4360527.852452611
0.7149733276535467	4364721.029046099
0.7150924898748222	4368503.515696408
0.715211671956468	4372286.63276116
0.7153308739017941	4376070.380345426
0.715450095714111	4379854.758554287
0.71556933739673	4383639.76749285
0.7156885989529628	4387425.407266237
0.7158078803861218	4391211.67797959
0.7159271816995193	4393062.86341774
0.7160465028964692	4393778.212673134
0.7161658439802853	4394493.681153404
0.7162852049542819	4395209.268878421
0.7164045858217744	4395924.975868058
0.716523986586078	4396640.8021421945
0.7166434072505089	4397356.747720709
0.716762847818384	4398072.812623487
0.7168823082930204	4401115.959167417
0.7170017886777359	4404844.195307604
0.7171212889758488	4408573.052820479
0.7172408091906781	4412302.531809607
0.7173603493255433	4416032.632378567
0.7174799093837642	4419763.354630953
0.7175994893686615	4423494.698670384
0.7177190892835562	4427226.664600485
0.7178387091317702	4436228.328762599
0.7179583489166254	4445760.418209372
0.7180780086414448	4455294.096337726
0.7181976883095517	4464829.363412436
0.7183173879242699	4474366.219698325
0.718437107488924	4483904.665460264
0.7185568470068389	4493444.700963167
0.7186766064813399	4502785.184263188
0.7187963859157535	4507098.225810748
0.7189161853134061	4511411.986198565
0.719036004677625	4515726.465546448
0.7191558440117378	4520041.663974219
0.7192757033190732	4524357.581601733
0.7193955826029597	4528674.218548848
0.7195154818667269	4532991.574935458
0.7196354011137046	4537059.806634577
0.7197553403472235	4539978.388799806
0.7198752995706147	4542897.457395395
0.7199952787872098	4545817.012502418
0.720115278000341	4548737.05420196
0.7202352972133411	4551657.582575117
0.7203553364295432	4554578.597703
0.7204753956522815	4557500.099666741
0.7205954748848902	4561423.769776281
0.7207155741307044	4567556.426566422
0.7208356933930594	4573690.1054660175
0.7209558326752915	4579824.806645432
0.7210759919807375	4585960.53027505
0.7211961713127342	4592097.276525265
0.7213163706746197	4598235.045566532
0.7214365900697322	4604373.837569298
0.7215568295014103	4609172.212853836
0.721677088972994	4612370.824143343
0.7217973684878227	4615569.968534725
0.7219176680492374	4618769.646116843
0.7220379876605789	4621969.856978556
0.722158327325189	4625170.601208747
0.7222786870464099	4628371.878896309
0.7223990668275843	4631573.690130154
0.7225194666720555	4635354.95136429
0.7226398865831676	4639547.135329683
0.7227603265642646	4643740.017992394
0.722880786618692	4647933.5994688915
0.7230012667497951	4652127.879875632
0.7231217669609201	4656322.859329107
0.7232422872554135	4660518.537945821
0.7233628276366229	4664714.915842311
0.7234833881078956	4670630.815906576
0.7236039686725803	4677200.272628063
0.7237245693340255	4683770.824258993
0.7238451900955812	4690342.470981875
0.7239658309605971	4696915.212979202
0.7240864919324239	4703489.050433538
0.7242071730144127	4710063.98352745
0.724327874209915	4716640.01244353
0.7244485955222832	4717618.311998186
0.7245693369548704	4717671.056130098
0.7246900985110294	4717723.809052699
0.7248108801941148	4717776.570767455
0.7249316820074803	4717829.341275829
0.7250525039544815	4717882.120579287
0.7251733460384739	4717934.908679297
0.7252942082628137	4718000.578013027
0.7254150906308574	4725524.955245843
0.7255359931459625	4733050.586541533
0.7256569158114868	4740577.472109107
0.7257778586307888	4748105.612157613
0.7258988216072273	4755635.006896125
0.7260198047441617	4763165.656533752
0.7261408080449525	4770697.561279664
0.72626183151296	4777914.906022435
0.7263828751515454	4783034.679649832
0.7265039389640706	4788155.306572832
0.726625022953898	4793276.786933656
0.7267461271243904	4798399.120874543
0.7268672514789111	4803522.30853775
0.7269883960208241	4808646.350065562
0.7271095607534942	4813771.2456003
0.7272307456802866	4818664.032745339
0.7273519508045666	4822928.347306276
0.7274731761297006	4827193.372586305
0.7275944216590555	4831459.108703881
0.7277156873959987	4835725.555777477
0.7278369733438982	4839992.713925593
0.727958279506122	4844260.583266722
0.7280796058860397	4848529.1639194125
0.7282009524870207	4852105.040335925
0.7283223193124353	4854655.87374273
0.7284437063656539	4857207.132288432
0.7285651136500483	4859758.816043896
0.7286865411689898	4862310.925079979
0.7288079889258514	4864863.459467575
0.7289294569240056	4867416.419277564
0.7290509451668262	4869969.804580856
0.7291724536576875	4873126.848711048
0.7292939823999636	4876784.262710075
0.7294155313970303	4880442.286278109
0.7295371006522632	4884100.919516736
0.7296586901690385	4887760.162527567
0.7297802999507332	4891420.015412232
0.7299019300007252	4895080.478272386
0.7300235803223919	4898741.551209674
0.7301452509191123	4903618.507781816
0.7302669417942654	4909057.210279885
0.7303886529512311	4914496.819228373
0.7305103843933897	4919937.334778354
0.7306321361241218	4925378.757080921
0.7307539081468093	4930821.086287215
0.7308757004648336	4936264.322548366
0.7309975130815778	4941708.466015567
0.7311193460004248	4948341.057372615
0.7312411992247582	4955243.598177943
0.7313630727579622	4962147.289406739
0.7314849666034219	4969052.131250746
0.7316068807645224	4975958.123901723
0.7317288152446498	4982865.267551478
0.7318507700471907	4989773.5623918455
0.7319727451755319	4996683.008614683
0.732094740633061	5000072.306594523
0.7322167564231665	5003303.639424388
0.7323387925492371	5006535.510809726
0.7324608490146619	5009767.920840293
0.732582925822831	5013000.869605867
0.7327050229771347	5016234.35719623
0.7328271404809642	5019468.383701197
0.7329492783377112	5022637.480548729
0.7330714365507675	5025163.479347226
0.7331936151235259	5027689.899145522
0.7333158140593796	5030216.740013782
0.7334380333617229	5032744.00202219
0.7335602730339499	5035271.685240935
0.7336825330794556	5037799.789740215
0.7338048135016354	5040328.315590241
0.7339271143038857	5043751.293367952
0.734049435489603	5050170.456879928
0.7341717770621846	5056590.69025249
0.7342941390250283	5063011.993663944
0.7344165213815324	5069434.367292631
0.734538924135096	5075857.8113169335
0.7346613472891185	5082282.32591523
0.734783790847	5088707.911265963
0.7349062548121412	5093410.521721243
0.7350287391879431	5095066.594535546
0.7351512439778078	5096722.943361989
0.7352737691851374	5098379.568246568
0.735396314813335	5100036.4692352945
0.7355188808658037	5101693.646374185
0.7356414673459482	5103351.099709267
0.7357640742571725	5105008.829286571
0.7358867016028818	5108008.001984069
0.7360093493864824	5112332.197737122
0.7361320176113801	5116657.114189461
0.736254706280982	5120982.751461209
0.7363774153986956	5125309.109672507
0.7365001449679286	5129636.1889435
0.7366228949920899	5133963.989394373
0.7367456654745885	5138292.511145323
0.7368684564188344	5142457.615114775
0.7369912678282374	5146530.645250508
0.7371140997062088	5150604.354224598
0.7372369520561599	5154678.742150188
0.7373598248815024	5158753.809140423
0.7374827181856494	5162829.5553084975
0.7376056319720137	5166905.9807676
0.7377285662440091	5170983.085630946
0.7378515210050496	5174634.756036276
0.7379744962585505	5178158.8303211415
0.738097492007927	5181683.491951721
0.7382205082565949	5185208.741025902
0.738343545007971	5188734.577641596
0.7384666022654723	5192261.00189673
0.7385896800325165	5195788.013889233
0.7387127783125219	5199315.613717074
0.7388358971089073	5203858.360404894
0.7389590364250921	5208503.626995711
0.7390821962644963	5213149.66779763
0.7392053766305403	5217796.482939675
0.7393285775266454	5222444.072550915
0.7394517989562333	5227092.436760427
0.7395750409227259	5231741.575697301
0.7396983034295463	5236315.575672488
0.739821586480118	5239201.578599786
0.7399448900778645	5242088.062527568
0.7400682142262109	5244975.027536012
0.740191558928582	5247862.473705289
0.7403149241884034	5250750.401115591
0.7404383100091014	5253638.809847129
0.7405617163941028	5256527.69998012
0.7406851433468352	5259016.2047973545
0.7408085908707264	5259671.255171876
0.7409320589692048	5260326.41472146
0.7410555476456997	5260981.683464303
0.7411790569036406	5261637.061418601
0.7413025867464579	5262292.54860256
0.7414261371775823	5262948.145034382
0.7415497082004452	5263603.850732276
0.7416732998184786	5264527.9225380495
0.741796912035115	5266027.612058193
0.7419205448537874	5267527.55152659
0.7420441982779297	5269027.740984898
0.742167872310976	5270528.180474783
0.7422915669563612	5272028.870037917
0.7424152822175206	5273529.809715978
0.7425390180978901	5275030.999550651
0.7426627746009065	5277292.581342538
0.7427865517300065	5280481.207301254
0.7429103494886282	5283670.364697635
0.7430341678802096	5286860.053620245
0.7431580069081896	5290050.274157676
0.7432818665760077	5293241.026398535
0.7434057468871037	5296432.31043143
0.7435296478449182	5299624.1263449965
0.7436535694528923	5301567.797544412
0.7437775117144678	5302657.035198412
0.7439014746330868	5303746.45439202
0.7440254582121922	5304836.055155493
0.7441494624552276	5305925.837519094
0.7442734873656368	5307015.80151309
0.7443975329468645	5308105.947167751
0.7445215992023557	5309196.274513355
0.7446456861355559	5309270.386597125
0.7447697937499119	5308970.097371685
0.7448939220488703	5308669.758098041
0.7450180710358784	5308369.368767851
0.7451422407143843	5308068.9293727735
0.7452664310878367	5307768.439904463
0.7453906421596846	5307467.900354574
0.7455148739333779	5307167.310714761
0.7456391264123667	5307162.108159422
0.7457633996001021	5307204.143508849
0.7458876935000356	5307246.185864167
0.7460120081156189	5307288.235226545
0.7461363434503048	5307330.291597149
0.7462606995075466	5307372.3549771495
0.7463850762907978	5307414.425367713
0.7465094738035127	5307455.3324319385
0.7466338920491467	5307190.092385678
0.746758331031155	5306924.8081327425
0.7468827907529935	5306659.479665765
0.7470072712181189	5306394.106977376
0.7471317724299886	5306128.690060207
0.7472562943920602	5305863.228906884
0.7473808371077922	5305597.723510035
0.7475054005806435	5305091.399339686
0.7476299848140736	5303101.914148512
0.7477545898115426	5301112.097376473
0.7478792155765113	5299121.948968305
0.7480038621124406	5297131.468868737
0.7481285294227926	5295140.6570224855
0.7482532175110298	5293149.513374259
0.7483779263806148	5291158.037868759
0.7485026560350116	5288762.7095074365
0.7486274064776842	5285274.867603933
0.748752177712097	5281786.444393453
0.7488769697417158	5278297.439779096
0.749001782570006	5274807.853663974
0.7491266162004343	5271317.685951169
0.7492514706364677	5267826.936543742
0.7493763458815739	5264335.605344744
0.7495012419392209	5260189.17244173
0.7496261588128773	5255101.098232936
0.7497510965060128	5250012.17601177
0.7498760550220971	5244922.405636903
0.7500010343646007	5239831.786966972
0.7501260345369949	5234740.319860594
0.750251055542751	5229648.004176371
0.7503760973853414	5224554.839772863
0.7505011600682389	5218318.029322256
0.750626243594917	5211125.969883872
0.7507513479688495	5203932.711768926
0.7508764731935109	5196738.254777625
0.7510016192723765	5189542.598710156
0.7511267862089218	5182345.743366684
0.7512519740066232	5175147.688547318
0.7513771826689577	5167948.434052144
0.7515024121994025	5159312.849479041
0.7516276626014359	5150006.687291674
0.751752933878536	5140698.974077292
0.7518782260341824	5131389.70957737
0.7520035390718548	5122078.893533362
0.7521288729950334	5112766.525686684
0.7522542278071992	5103452.605778697
0.7523796035118337	5094137.133550722
0.7525050001124189	5082365.41925971
0.7526304176124378	5070057.902951138
0.7527558560153731	5057748.335389863
0.752881315324709	5045436.716233983
0.7530067955439299	5033123.045141572
0.7531322966765205	5020807.321770662
0.7532578187259665	5008489.545779187
0.7533833616957542	4996169.716825047
0.75350892558937	4980386.334149006
0.7536345104103016	4964437.551266479
0.7537601161620366	4948486.110253479
0.7538857428480638	4932532.010666963
0.7540113904718717	4916575.252063869
0.7541370590369503	4900615.834001011
0.7542627485467898	4884653.756035133
0.7543884590048808	4868388.227335142
0.7545141904147151	4849120.471883323
0.7546399427797842	4829849.505138959
0.7547657161035808	4810575.326566801
0.754891510389598	4791297.93563155
0.7550173256413296	4772017.331797801
0.7551431618622698	4752733.514530085
0.7552690190559135	4733446.483292827
0.7553948972257561	4712689.085414757
0.7555207963752938	4687003.550607585
0.755646716508023	4661313.734877961
0.755772657627441	4635619.637512372
0.7558986197370455	4609921.257797219
0.756024602840335	4584218.595018785
0.7561506069408084	4558511.648463223
0.7562766320419653	4532800.417416546
0.7564026781473054	4504324.365914104
0.75652874526033	4470985.762850577
0.7566548333845401	4437641.603353189
0.7567809425234375	4404291.886495898
0.7569070726805247	4370936.611352482
0.7570332238593047	4337575.776996546
0.7571593960632813	4304209.38250152
0.7572855892959586	4270837.426940743
0.7574118035608413	4234687.92523192
0.7575380388614347	4195820.476042084
0.7576642952012449	4156946.548944036
0.7577905725837782	4118066.142858194
0.7579168710125422	4079179.256704602
0.7580431904910444	4040285.889403303
0.7581695310227928	4001386.03987417
0.7582958926112967	3962479.7070367327
0.7584222752600652	3916871.4337297147
0.7585486789726085	3867409.275052005
0.7586751037524372	3817938.8726811637
0.7588015496030628	3768460.225243164
0.7589280165279966	3718973.331364023
0.7590545045307512	3669478.189669235
0.7591810136148396	3619974.7987841656
0.7593075437837755	3570463.157333876
0.7594340950410726	3512464.961548772
0.7595606673902461	3451997.2338061724
0.7596872608348112	3391519.428108888
0.7598138753782836	3331031.542777388
0.75994051102418	3270533.576131609
0.7600671677760173	3210025.526491436
0.7601938456373134	3149507.3921762775
0.7603205446115863	3088979.1715054335
0.7604472647023548	3016710.086025046
0.7605740059131385	2943262.9178871308
0.7607007682474575	2869803.508554454
0.7608275517088319	2796331.8559870515
0.7609543563007835	2722847.958144058
0.7610811820268336	2649351.812984802
0.7612080288905045	2575843.41846816
0.7613348968953197	2501624.1934806556
0.7614617860448022	2413059.298568001
0.7615886963424764	2324479.642839407
0.7617156277918667	2235885.223834944
0.7618425803964988	2147276.0390939075
0.7619695541598982	2058652.0861554376
0.7620965490855914	1970013.36255821
0.7622235651771058	1881359.8658402804
0.7623506024379685	1792686.7969503838
0.7624776608717082	1703977.9252409535
0.7626047404818536	1615254.2687195677
0.7627318412719337	1526515.8249222473
0.762858963245479	1437762.591384238
0.7629861064060198	1348994.5656406314
0.7631132707570876	1260211.7452259753
0.7632404563022137	1171414.127674663
0.7633676630449308	1086396.7640106475
0.7634948909887717	1009443.6396351715
0.7636221401372697	932477.6897390664
0.7637494104939593	855498.9121845728
0.7638767020623748	778507.3048339311
0.7640040148460518	701502.8655486434
0.7641313488485262	624485.5921901444
0.7642587040733344	547455.4826193313
0.7643860805240132	483233.27988015016
0.7645134782041005	434299.36572763184
0.7646408971171346	385357.2959227344
0.764768337266654	336407.0691062208
0.7648957986561985	287448.68391855527
0.7650232812893079	238482.13900003157
0.7651507851695227	189507.43299068767
0.7652783103003843	140524.56453034823
0.7654058566854343	112414.15302489023
0.7655334243282153	98529.7454734102
0.7656610132322699	84643.02385402302
0.765788623401142	70753.98778101955
0.7659162548383754	56862.63686867856
