#wavelength	surface flux
0.7	239763.43295757208
0.7001166666666666	240200.19516542854
0.7002333527777778	240532.46469510524
0.700350058336574	240864.7896030367
0.7004667833462966	241197.1698984524
0.7005835278101878	241529.60559058495
0.7007002917314895	241862.09668866562
0.7008170751134447	242194.64320192926
0.7009338779592968	242527.24513961162
0.7010507002722901	242758.98270299038
0.7011675420556689	242867.94619245053
0.701284403312678	242976.9278424921
0.7014012840465635	243085.92765614216
0.7015181842605713	243194.94563642782
0.701635103957948	243303.98178637677
0.701752043141941	243413.03610901735
0.701869001815798	243522.10860737853
0.7019859799827672	243740.59490935545
0.7021029776460976	244035.25082080305
0.7022199948090387	244329.9558415696
0.7023370314748403	244624.70997983948
0.7024540876467528	244919.51324379904
0.702571163328027	245214.3656416354
0.7026882585219152	245509.2671815389
0.7028053732316688	245804.2178716986
0.7029225074605406	246374.23542871026
0.7030396612117841	247050.5449384978
0.7031568344886527	247726.96716653707
0.7032740272944008	248403.50213161393
0.7033912396322832	249080.14985251866
0.7035084715055552	249756.91034804285
0.7036257229174727	250433.78363698322
0.7037429938712924	251110.76973813906
0.7038602843702709	251686.42880951962
0.7039775944176659	252244.97888136795
0.7040949240167356	252803.62204489514
0.7042122731707383	253362.35831561594
0.7043296418829335	253921.18770904889
0.7044470301565806	254480.11024071393
0.70456443799494	255039.12592613386
0.7046818654012724	255598.234780835
0.7047993123788394	256035.40330284744
0.7049167789309024	256472.50464740247
0.7050342650607243	256909.67884218227
0.7051517707715678	257346.92589932767
0.7052692960666963	257784.24583098237
0.705386840949374	258221.63864929217
0.7055044054228656	258659.10436640572
0.7056219894904361	259067.27605019682
0.7057395931553511	259288.8919579866
0.705857216420877	259510.5448017612
0.7059748592902804	259732.2345876763
0.7060925217668288	259953.96132188928
0.70621020385379	260175.7250105579
0.7063279055544321	260397.52565984102
0.7064456268720246	260619.36327589938
0.7065633678098366	260874.41021836898
0.7066811283711383	261220.85693843084
0.7067989085592001	261567.3613996127
0.7069167083772933	261913.92361153787
0.7070345278286895	262260.5435838319
0.707152366916661	262607.2213261214
0.7072702256444803	262953.9568480342
0.7073881040154211	263300.7501592012
0.7075060020327569	263715.44454660045
0.7076239196997625	264229.01142791467
0.7077418570197124	264742.6639037085
0.7078598139958823	265256.4019882483
0.7079777906315483	265770.2256958027
0.7080957869299869	266284.1350406413
0.7082138028944751	266798.1300370371
0.7083318385282908	267312.21069926594
0.7084498938347124	267579.8585575838
0.708567968817018	267638.5476159766
0.7086860634784875	267697.2464558791
0.7088041778224007	267755.9550789217
0.7089223118520377	267814.6734867347
0.7090404655706796	267873.4016809489
0.709158638981608	267932.1396631956
0.709276832088105	267990.88743510604
0.7093950448934531	268390.2823108605
0.7095132774009353	268952.19736158405
0.7096315296138355	269514.2060648163
0.7097498015354378	270076.3084361655
0.7098680931690269	270638.50449124275
0.7099864045178884	271200.7942456633
0.7101047355853081	271763.1777150427
0.7102230863745722	272325.654915
0.7103414568889679	272849.2229637314
0.7104598471317828	273364.0158966012
0.7105782571063047	273878.89462829276
0.7106966868158224	274393.85917310626
0.710815136263625	274908.9095453438
0.7109336054530023	275424.04575931036
0.7110520943872445	275939.26782931236
0.7111706030696424	276454.5757696597
0.7112891315034873	276792.10188148485
0.7114076796920712	277121.19766681385
0.7115262476386865	277450.3483014405
0.7116448353466263	277779.55379450595
0.711763442819184	278108.8141551538
0.711882070059654	278438.1293925287
0.7120007170713306	278767.4995157763
0.7121193838575091	279098.879472674
0.7122380704214853	279450.704169062
0.7123567767665555	279802.5875028992
0.7124755028960166	280154.52948395873
0.7125942488131658	280506.5301220149
0.7127130145213015	280858.5894268451
0.7128318000237216	281210.70740822493
0.7129506053237256	281562.8840759355
0.7130694304246129	281908.59704541287
0.7131882753296837	282231.5630453728
0.7133071400422386	282554.5828729994
0.7134260245655789	282877.6565372638
0.7135449289030065	283200.784047139
0.7136638530578235	283523.96541159897
0.7137827970333332	283847.2006396202
0.7139017608328388	284170.4897401793
0.7140207444596443	284487.72998722125
0.7141397479170543	284794.1364340244
0.7142587712083737	285100.5939485682
0.7143778143369084	285407.1025393647
0.7144968773059646	285713.66221492644
0.7146159601188489	286020.2729837673
0.7147350627788687	286326.934854403
0.7148541852893318	286633.64783535036
0.7149733276535467	286809.7447288058
0.7150924898748222	286854.1090814688
0.715211671956468	286898.4808281906
0.7153308739017941	286942.8599702035
0.715450095714111	286987.24650874006
0.71556933739673	287031.6404450331
0.7156885989529628	287076.04178031546
0.7158078803861218	287120.45051582047
0.7159271816995193	286667.8744089547
0.7160465028964692	285923.5194321921
0.7161658439802853	285179.04039626673
0.7162852049542819	284434.4372805021
0.7164045858217744	283689.7100642178
0.716523986586078	282944.8587267311
0.7166434072505089	282199.8832473552
0.716762847818384	281454.7836053991
0.7168823082930204	281276.26446999836
0.7170017886777359	281264.4376894895
0.7171212889758488	281252.6089378506
0.7172408091906781	281240.778214753
0.7173603493255433	281228.9455198683
0.7174799093837642	281217.1108528677
0.7175994893686615	281205.2742134227
0.7177190892835562	281193.4356012044
0.7178387091317702	282825.0163721308
0.7179583489166254	284621.8404293859
0.7180780086414448	286418.96395731857
0.7181976883095517	288216.3870058392
0.7183173879242699	290014.10962486814
0.718437107488924	291812.13186433393
0.7185568470068389	293610.4537741737
0.7186766064813399	295345.96510727017
0.7187963859157535	295503.8691824145
0.7189161853134061	295661.7995749047
0.719036004677625	295819.75628912705
0.7191558440117378	295977.7393294683
0.7192757033190732	296135.7487003165
0.7193955826029597	296293.78440605965
0.7195154818667269	296451.8464510872
0.7196354011137046	296563.9415250012
0.7197553403472235	296464.2938388043
0.7198752995706147	296364.6295446597
0.7199952787872098	296264.9486397993
0.720115278000341	296165.2511214548
0.7202352972133411	296065.53698685725
0.7203553364295432	295965.8062332374
0.7204753956522815	295866.0588578251
0.7205954748848902	296014.6749947723
0.7207155741307044	296710.90127200854
0.7208356933930594	297407.24358695647
0.7209558326752915	298103.70195895707
0.7210759919807375	298800.2764073539
0.7211961713127342	299496.9669514912
0.7213163706746197	300193.77361072035
0.7214365900697322	300890.69640439196
0.7215568295014103	301190.5282240101
0.721677088972994	301016.4749973804
0.7217973684878227	300842.39276187995
0.7219176680492374	300668.28151267336
0.7220379876605789	300494.1412449253
0.722158327325189	300319.97195379925
0.7222786870464099	300145.77363445814
0.7223990668275843	299971.5462820637
0.7225194666720555	299994.2985338624
0.7226398865831676	300156.6795344389
0.7227603265642646	300319.08759851503
0.722880786618692	300481.52273060224
0.7230012667497951	300643.98493521137
0.7231217669609201	300806.4742168546
0.7232422872554135	300968.9905800446
0.7233628276366229	301131.5340292955
0.7234833881078956	301739.23181516904
0.7236039686725803	302516.0285210744
0.7237245693340255	303292.95469309617
0.7238451900955812	304070.01035281474
0.7239658309605971	304847.19552180904
0.7240864919324239	305624.51022166584
0.7242071730144127	306401.95447397267
0.724327874209915	307179.52830032
0.7244485955222832	306176.4955465786
0.7245693369548704	304878.86593859264
0.7246900985110294	303581.0200590072
0.7248108801941148	302282.95787177177
0.7249316820074803	300984.67934084276
0.7250525039544815	299686.1844301565
0.7251733460384739	298387.4731036516
0.7252942082628137	297092.61084314267
0.7254150906308574	298153.22260047076
0.7255359931459625	299214.0111264252
0.7256569158114868	300274.9764504676
0.7257778586307888	301336.11860206455
0.7258988216072273	302397.43761068647
0.7260198047441617	303458.9335058086
0.7261408080449525	304520.6063169151
0.72626183151296	305492.1168433644
0.7263828751515454	305863.4332714095
0.7265039389640706	306234.81158552587
0.726625022953898	306606.2517960281
0.7267461271243904	306977.75391323236
0.7268672514789111	307349.31794745586
0.7269883960208241	307720.9439090181
0.7271095607534942	308092.63180824084
0.7272307456802866	308433.7447253566
0.7273519508045666	308692.15675151924
0.7274731761297006	308950.61184635287
0.7275944216590555	309209.11001703556
0.7277156873959987	309467.65127074684
0.7278369733438982	309726.23561466753
0.727958279506122	309984.8630559781
0.7280796058860397	310243.53360186255
0.7282009524870207	310162.9070227718
0.7283223193124353	309580.3450069054
0.7284437063656539	308997.68589737086
0.7285651136500483	308414.92967798386
0.7286865411689898	307832.07633256144
0.7288079889258514	307249.12584491336
0.7289294569240056	306666.078198852
0.7290509451668262	306082.93337818235
0.7291724536576875	305719.8605726013
0.7292939823999636	305539.1611426834
0.7294155313970303	305358.43159619346
0.7295371006522632	305177.67192811245
0.7296586901690385	304996.88213342027
0.7297802999507332	304816.06220709573
0.7299019300007252	304635.21214411635
0.7300235803223919	304454.33193946024
0.7301452509191123	304829.2339302295
0.7302669417942654	305460.74440132815
0.7303886529512311	306092.36012417224
0.7305103843933897	306724.08111630357
0.7306321361241218	307355.90739526646
0.7307539081468093	307987.83897861035
0.7308757004648336	308619.8758838834
0.7309975130815778	309252.0181286414
0.7311193460004248	310248.19372084376
0.7312411992247582	311326.92399342067
0.7313630727579622	312405.8340543762
0.7314849666034219	313484.9239336762
0.7316068807645224	314564.1936612888
0.7317288152446498	315643.64326718985
0.7318507700471907	316723.2727813591
0.7319727451755319	317803.0822337803
0.732094740633061	317656.69407577947
0.7322167564231665	317455.0696127666
0.7323387925492371	317253.4115456766
0.7324608490146619	317051.71986890875
0.732582925822831	316849.9945768614
0.7327050229771347	316648.2356639323
0.7328271404809642	316446.44312451745
0.7329492783377112	316226.65277017385
0.7330714365507675	315830.2188552162
0.7331936151235259	315433.71886793955
0.7333158140593796	315037.15279733215
0.7334380333617229	314640.520632379
0.7335602730339499	314243.82236206485
0.7336825330794556	313847.05797537224
0.7338048135016354	313450.22746128263
0.7339271143038857	313345.55504129804
0.734049435489603	314220.0167342599
0.7341717770621846	315094.62417083746
0.7342941390250283	315969.37737532065
0.7344165213815324	316844.27637200424
0.734538924135096	317719.3211851886
0.7346613472891185	318594.51183917397
0.734783790847	319469.8483582687
0.7349062548121412	319795.1625557771
0.7350287391879431	319148.0861900878
0.7351512439778078	318500.90197833616
0.7352737691851374	317853.60990255006
0.735396314813335	317206.2099447507
0.7355188808658037	316558.7020869595
0.7356414673459482	315911.0863111907
0.7357640742571725	315263.36259945965
0.7358867016028818	314942.3868674336
0.7360093493864824	314944.1573499195
0.7361320176113801	314945.92812748573
0.736254706280982	314947.6992001816
0.7363774153986956	314949.4705680562
0.7365001449679286	314951.24223115883
0.7366228949920899	314953.01418953866
0.7367456654745885	314954.78644324484
0.7368684564188344	315052.7563399806
0.7369912678282374	315205.1112786196
0.7371140997062088	315357.49160974845
0.7372369520561599	315509.8973375993
0.7373598248815024	315662.32846640446
0.7374827181856494	315814.785000398
0.7376056319720137	315967.26694381394
0.7377285662440091	316119.7743008871
0.7378515210050496	316095.8028971991
0.7379744962585505	316018.72276043904
0.738097492007927	315941.62977698946
0.7382205082565949	315864.52394470945
0.738343545007971	315787.4052614574
0.7384666022654723	315710.2737250913
0.7385896800325165	315633.1293334693
0.7387127783125219	315555.9720844487
0.7388358971089073	315574.01047520235
0.7389590364250921	315601.6015211497
0.7390821962644963	315629.1971656047
0.7392053766305403	315656.7974093337
0.7393285775266454	315684.4022531033
0.7394517989562333	315712.01169768034
0.7395750409227259	315739.6257438314
0.7396983034295463	315751.44003483176
0.739821586480118	315411.67660072324
0.7399448900778645	315071.8565393764
0.7400682142262109	314731.9798413516
0.740191558928582	314392.04649721086
0.7403149241884034	314052.056497513
0.7404383100091014	313712.00983281515
0.7405617163941028	313371.90649367333
0.7406851433468352	312946.68229563645
0.7408085908707264	312132.23908341175
0.7409320589692048	311317.6601306521
0.7410555476456997	310502.9454147329
0.7411790569036406	309688.09491302836
0.7413025867464579	308873.10860290664
0.7414261371775823	308057.986461733
0.7415497082004452	307242.72846686986
0.7416732998184786	306445.58245090395
0.741796912035115	305687.44881947053
0.7419205448537874	304929.188832432
0.7420441982779297	304170.802468729
0.742167872310976	303412.28970729804
0.7422915669563612	302653.6505270735
0.7424152822175206	301894.8849069858
0.7425390180978901	301135.9928259619
0.7426627746009065	300651.76833255525
0.7427865517300065	300502.45678347134
0.7429103494886282	300353.1203491291
0.7430341678802096	300203.75902538124
0.7431580069081896	300054.37280807947
0.7432818665760077	299904.96169307455
0.7434057468871037	299755.5256762173
0.7435296478449182	299606.0647533573
0.7436535694528923	299217.6930299485
0.7437775117144678	298665.73185857356
0.7439014746330868	298113.6786936709
0.7440254582121922	297561.5335199069
0.7441494624552276	297009.29632194707
0.7442734873656368	296456.9670844544
0.7443975329468645	295904.5457920883
0.7445215992023557	295352.0324295069
0.7446456861355559	294584.07974036515
0.7447697937499119	293736.6708534141
0.7448939220488703	292889.12073164876
0.7450180710358784	292041.4293515305
0.7451422407143843	291193.5966895155
0.7452664310878367	290345.62272205605
0.7453906421596846	289497.5074256029
0.7455148739333779	288649.25077660003
0.7456391264123667	287679.93818237114
0.7457633996001021	286691.1304650557
0.7458876935000356	285702.1579464523
0.7460120081156189	284713.0205990977
0.7461363434503048	283723.7183955181
0.7462606995075466	282734.2513082369
0.7463850762907978	281744.6193097761
0.7465094738035127	280754.60734142904
0.7466338920491467	279708.17940009333
0.746758331031155	278661.57705409965
0.7468827907529935	277614.8002743829
0.7470072712181189	276567.8490318695
0.7471317724299886	275520.7232974821
0.7472562943920602	274473.4230421398
0.7473808371077922	273425.94823675393
0.7475054005806435	272359.6867366442
0.7476299848140736	271178.60419345764
0.7477545898115426	269997.3248031803
0.7478792155765113	268815.8485330043
0.7480038621124406	267634.1753501175
0.7481285294227926	266452.3052217005
0.7482532175110298	265270.23811492755
0.7483779263806148	264087.97399697173
0.7485026560350116	262863.4924540884
0.7486274064776842	261525.080243711
0.748752177712097	260186.44496463434
0.7488769697417158	258847.58657967497
0.749001782570006	257508.50505165305
0.7491266162004343	256169.20034337684
0.7492514706364677	254829.67241764866
0.7493763458815739	253489.92123726485
0.7495012419392209	252061.05126753065
0.7496261588128773	250504.14528152227
0.7497510965060128	248946.97981118178
0.7498760550220971	247389.55481326347
0.7500010343646007	245831.87024451196
0.7501260345369949	244273.92606166488
0.750251055542751	242715.72222145574
0.7503760973853414	241157.25868060562
0.7505011600682389	239496.20043650738
0.750626243594917	237749.41799832523
0.7507513479688495	236002.34442973934
0.7508764731935109	234254.9796822248
0.7510016192723765	232507.32370725187
0.7511267862089218	230759.37645628475
0.7512519740066232	229011.13788077518
0.7513771826689577	227262.60793216867
0.7515024121994025	225416.35314970548
0.7516276626014359	223524.36172588434
0.751752933878536	221632.05497016254
0.7518782260341824	219739.43282998083
0.7520035390718548	217846.49525277488
0.7521288729950334	215953.24218597374
0.7522542278071992	214059.67357699465
0.7523796035118337	212165.78937324646
0.7525050001124189	210116.46083513234
0.7526304176124378	208033.0537221976
0.7527558560153731	205949.2993747467
0.752881315324709	203865.19773490258
0.7530067955439299	201780.74874478436
0.7531322966765205	199695.95234650394
0.7532578187259665	197610.80848215648
0.7533833616957542	195525.3170938317
0.75350892558937	193292.5281042906
0.7536345104103016	191052.4569733522
0.7537601161620366	188812.0124972265
0.7538857428480638	186571.1946136859
0.7540113904718717	184330.00326050096
0.7541370590369503	182088.4383754243
0.7542627485467898	179846.49989619874
0.7543884590048808	177594.53059678097
0.7545141904147151	175245.88363765122
0.7546399427797842	172896.8452373654
0.7547657161035808	170547.41533067916
0.754891510389598	168197.59385234193
0.7550173256413296	165847.38073709072
0.7551431618622698	163496.77591965417
0.7552690190559135	161145.77933474857
0.7553948972257561	158761.49179028245
0.7555207963752938	156266.37688183718
0.755646716508023	153770.84612090857
0.755772657627441	151274.89943818562
0.7558986197370455	148778.5367643485
0.756024602840335	146281.7580300664
0.7561506069408084	143784.5631659953
0.7562766320419653	141286.9521027779
0.7564026781473054	138731.34146475597
0.75652874526033	136073.97363530286
0.7566548333845401	133416.16291121012
0.7567809425234375	130757.90921866431
0.7569070726805247	128099.21248383794
0.7570332238593047	125440.07263288945
0.7571593960632813	122780.48959196327
0.7572855892959586	120120.46328719679
0.7574118035608413	117515.86805183064
0.7575380388614347	114965.50247322654
0.7576642952012449	112414.71183369172
0.7577905725837782	109863.49606238732
0.7579168710125422	107311.85508844983
0.7580431904910444	104759.78884101572
0.7581695310227928	102207.29724921026
0.7582958926112967	99654.38024213629
0.7584222752600652	97117.00379720563
0.7585486789726085	94588.3763416246
0.7586751037524372	92059.32744813335
0.7588015496030628	89529.85704648824
0.7589280165279966	86999.96506644787
0.7590545045307512	84469.65143774415
0.7591810136148396	81938.91609010237
0.7593075437837755	79407.75895323226
0.7594340950410726	76979.68482813111
0.7595606673902461	74581.23657252557
0.7596872608348112	72182.3885755417
0.7598138753782836	69783.14077056097
0.75994051102418	67383.49309094384
0.7600671677760173	64983.44547004864
0.7601938456373134	62582.99784121478
0.7603205446115863	60182.150137777484
0.7604472647023548	57940.726045312
0.7605740059131385	55714.81484404592
0.7607007682474575	53488.53265757746
0.7608275517088319	51261.87942408286
0.7609543563007835	49034.85508171107
0.7610811820268336	46807.4595686169
0.7612080288905045	44579.692822941484
0.7613348968953197	42361.44706457166
0.7614617860448022	40345.79937787194
0.7615886963424764	38329.81574988836
0.7617156277918667	36313.4961246354
0.7618425803964988	34296.8404461099
0.7619695541598982	32279.84865830518
0.7620965490855914	30262.520705203984
0.7622235651771058	28244.856530774938
0.7623506024379685	26318.444755777502
0.7624776608717082	24793.15508023898
0.7626047404818536	23267.611189754465
0.7627318412719337	21741.81304195749
0.762858963245479	20215.76059446826
0.7629861064060198	18689.453804904304
0.7631132707570876	17162.892630873845
0.7632404563022137	15636.077029982409
0.7633676630449308	14259.874508490018
0.7634948909887717	13204.589540060817
0.7636221401372697	12149.128690804915
0.7637494104939593	11093.491931406477
0.7638767020623748	10037.679232549664
0.7640040148460518	8981.690564908504
0.7641313488485262	7925.5258991561095
0.7642587040733344	6869.185205958225
0.7643860805240132	6028.431766365602
0.7645134782041005	5445.008510007128
0.7646408971171346	4861.488016439019
0.764768337266654	4277.870269455528
0.7648957986561985	3694.155252847351
0.7650232812893079	3110.3429504031506
0.7651507851695227	2526.433345908537
