#wavelength	surface flux
0.7	103824.21051081341
0.7001166666666666	103996.09379760445
0.7002333527777778	104162.04020269301
0.700350058336574	104328.01426551567
0.7004667833462966	104494.01599068192
0.7005835278101878	104660.04538280281
0.7007002917314895	104826.10244648879
0.7008170751134447	104992.18718635204
0.7009338779592968	105158.29960700517
0.7010507002722901	105318.09734306374
0.7011675420556689	105470.20346944967
0.701284403312678	105622.33494685641
0.7014012840465635	105774.49177950961
0.7015181842605713	105926.6739716349
0.701635103957948	106078.88152745875
0.701752043141941	106231.11445120856
0.701869001815798	106383.37274711255
0.7019859799827672	106542.05343539028
0.7021029776460976	106705.21253337791
0.7022199948090387	106868.39882454876
0.7023370314748403	107031.61231343473
0.7024540876467528	107194.85300456882
0.702571163328027	107358.1209024845
0.7026882585219152	107521.41601171694
0.7028053732316688	107684.73833680067
0.7029225074605406	107870.63394586876
0.7030396612117841	108065.26660668224
0.7031568344886527	108259.93170627255
0.7032740272944008	108454.62925004601
0.7033912396322832	108649.35924341019
0.7035084715055552	108844.12169177308
0.7036257229174727	109038.91660054411
0.7037429938712924	109233.74397513343
0.7038602843702709	109424.04748021127
0.7039775944176659	109613.60991380773
0.7040949240167356	109803.20394114318
0.7042122731707383	109992.82956748309
0.7043296418829335	110182.48679809416
0.7044470301565806	110372.17563824364
0.70456443799494	110561.89609319967
0.7046818654012724	110751.64816823164
0.7047993123788394	110932.58712426224
0.7049167789309024	111113.54608704851
0.7050342650607243	111294.5352096622
0.7051517707715678	111475.55449712956
0.7052692960666963	111656.60395447807
0.705386840949374	111837.68358673606
0.7055044054228656	112018.79339893308
0.7056219894904361	112197.94907363412
0.7057395931553511	112364.52444959308
0.705857216420877	112531.12758811483
0.7059748592902804	112697.75849382623
0.7060925217668288	112864.41717135542
0.70621020385379	113031.10362533084
0.7063279055544321	113197.8178603817
0.7064456268720246	113364.55988113867
0.7065633678098366	113534.08170419675
0.7066811283711383	113711.21087230684
0.7067989085592001	113888.36956194496
0.7069167083772933	114065.55777803122
0.7070345278286895	114242.77552548694
0.707152366916661	114420.02280923395
0.7072702256444803	114597.29963419471
0.7073881040154211	114774.6060052932
0.7075060020327569	114957.74185733392
0.7076239196997625	115149.35494461423
0.7077418570197124	115340.99996740888
0.7078598139958823	115532.67693104067
0.7079777906315483	115724.38584083323
0.7080957869299869	115916.12670211062
0.7082138028944751	116107.89952019812
0.7083318385282908	116299.7043004221
0.7084498938347124	116474.18935979035
0.708567968817018	116633.9923840948
0.7086860634784875	116793.82204223682
0.7088041778224007	116953.67833865533
0.7089223118520377	117113.5612777897
0.7090404655706796	117273.4708640805
0.709158638981608	117433.40710196919
0.709276832088105	117593.36999589758
0.7093950448934531	117779.87319878305
0.7095132774009353	117979.05213052292
0.7096315296138355	118178.2642587515
0.7097498015354378	118377.50958900139
0.7098680931690269	118576.78812680615
0.7099864045178884	118776.09987770076
0.7101047355853081	118975.44484722051
0.7102230863745722	119174.8230409017
0.7103414568889679	119372.08883445346
0.7104598471317828	119568.8999679897
0.7105782571063047	119765.74390338137
0.7106966868158224	119962.62064609562
0.710815136263625	120159.53020160025
0.7109336054530023	120356.47257536427
0.7110520943872445	120553.4477728572
0.7111706030696424	120750.4557995498
0.7112891315034873	120935.63234628276
0.7114076796920712	121120.27367515383
0.7115262476386865	121304.94577757972
0.7116448353466263	121489.64865868923
0.711763442819184	121674.38232361234
0.711882070059654	121859.14677747978
0.7120007170713306	122043.94202542274
0.7121193838575091	122229.09697623318
0.7122380704214853	122417.71316718213
0.7123567767665555	122606.36079416271
0.7124755028960166	122795.03986241455
0.7125942488131658	122983.75037717761
0.7127130145213015	123172.49234369367
0.7128318000237216	123361.26576720356
0.7129506053237256	123550.07065295096
0.7130694304246129	123738.75428524699
0.7131882753296837	123926.93539863458
0.7133071400422386	124115.14787554112
0.7134260245655789	124303.39172119368
0.7135449289030065	124491.66694082056
0.7136638530578235	124679.97353965063
0.7137827970333332	124868.31152291411
0.7139017608328388	125056.68089584142
0.7140207444596443	125245.35350772864
0.7141397479170543	125434.54250788261
0.7142587712083737	125623.76303953635
0.7143778143369084	125813.01510794551
0.7144968773059646	126002.29871836612
0.7146159601188489	126191.61387605507
0.7147350627788687	126380.9605862703
0.7148541852893318	126570.3388542705
0.7149733276535467	126749.48337108687
0.7150924898748222	126918.3064318973
0.715211671956468	127087.15762988459
0.7153308739017941	127256.03696973831
0.715450095714111	127424.94445614862
0.71556933739673	127593.88009380667
0.7156885989529628	127762.84388740432
0.7158078803861218	127931.83584163449
0.7159271816995193	128063.10048058393
0.7160465028964692	128172.22688536394
0.7161658439802853	128281.37147787806
0.7162852049542819	128390.53426115758
0.7164045858217744	128499.71523823438
0.716523986586078	128608.91441214066
0.7166434072505089	128718.13178590918
0.716762847818384	128827.36736257338
0.7168823082930204	128986.3327680753
0.7170017886777359	129159.9496157185
0.7171212889758488	129333.59539950287
0.7172408091906781	129507.27012425124
0.7173603493255433	129680.97379478712
0.7174799093837642	129854.70641593466
0.7175994893686615	130028.46799251914
0.7177190892835562	130202.2585293663
0.7178387091317702	130499.4996777015
0.7179583489166254	130809.17978560195
0.7180780086414448	131118.91150685394
0.7181976883095517	131428.6948500595
0.7183173879242699	131738.52982382223
0.718437107488924	132048.41643674736
0.7185568470068389	132358.35469744145
0.7186766064813399	132663.62813682438
0.7187963859157535	132851.03011868676
0.7189161853134061	133038.46333421278
0.719036004677625	133225.92778860807
0.7191558440117378	133413.42348707898
0.7192757033190732	133600.95043483324
0.7193955826029597	133788.50863707854
0.7195154818667269	133976.0980990244
0.7196354011137046	134159.67473710256
0.7197553403472235	134324.66226366974
0.7198752995706147	134489.67728815795
0.7199952787872098	134654.71981515037
0.720115278000341	134819.78984923058
0.7202352972133411	134984.88739498318
0.7203553364295432	135150.01245699316
0.7204753956522815	135315.16503984702
0.7205954748848902	135501.41462135193
0.7207155741307044	135734.14555828267
0.7208356933930594	135966.9152837025
0.7209558326752915	136199.7238040766
0.7210759919807375	136432.57112587112
0.7211961713127342	136665.45725555226
0.7213163706746197	136898.38219958873
0.7214365900697322	137131.34596444896
0.7215568295014103	137330.26005772685
0.721677088972994	137488.5339815449
0.7217973684878227	137646.83428434998
0.7219176680492374	137805.1609705391
0.7220379876605789	137963.5140445091
0.722158327325189	138121.89351065818
0.7222786870464099	138280.29937338486
0.7223990668275843	138438.73163708873
0.7225194666720555	138628.00064297765
0.7226398865831676	138839.13725073033
0.7227603265642646	139050.3090479171
0.722880786618692	139261.51604040386
0.7230012667497951	139472.7582340559
0.7231217669609201	139684.03563474023
0.7232422872554135	139895.3482483245
0.7233628276366229	140106.69608067806
0.7234833881078956	140341.86422672583
0.7236039686725803	140586.10184787
0.7237245693340255	140830.380175284
0.7238451900955812	141074.699215753
0.7239658309605971	141319.05897606182
0.7240864919324239	141563.45946299768
0.7242071730144127	141807.900683348
0.724327874209915	142052.38264390125
0.7244485955222832	142157.6376318935
0.7245693369548704	142239.88342155793
0.7246900985110294	142322.14291885382
0.7248108801941148	142404.41612606618
0.7249316820074803	142486.70304547943
0.7250525039544815	142569.0036793794
0.7251733460384739	142651.3180300517
0.7252942082628137	142733.9729024236
0.7254150906308574	143006.00135169429
0.7255359931459625	143278.0751390399
0.7256569158114868	143550.19427201682
0.7257778586307888	143822.3587581827
0.7258988216072273	144094.5686050962
0.7260198047441617	144366.82382031722
0.7261408080449525	144639.12441140792
0.72626183151296	144904.9544726945
0.7263828751515454	145127.52685699792
0.7265039389640706	145350.1363366987
0.726625022953898	145572.78291797955
0.7267461271243904	145795.46660702408
0.7268672514789111	146018.18741001663
0.7269883960208241	146240.94533314282
0.7271095607534942	146463.74038258966
0.7272307456802866	146682.25925328743
0.7273519508045666	146889.16324897265
0.7274731761297006	147096.10172865703
0.7275944216590555	147303.07469808802
0.7277156873959987	147510.082163014
0.7278369733438982	147717.12412918446
0.727958279506122	147924.20060234875
0.7280796058860397	148131.3115882588
0.7282009524870207	148312.86609266
0.7283223193124353	148456.5989173256
0.7284437063656539	148600.3556974617
0.7285651136500483	148744.1364370614
0.7286865411689898	148887.9411401174
0.7288079889258514	149031.76981062422
0.7289294569240056	149175.62245257583
0.7290509451668262	149319.49906996792
0.7291724536576875	149482.28515940395
0.7292939823999636	149660.74704346026
0.7294155313970303	149839.2386711643
0.7295371006522632	150017.76004747287
0.7296586901690385	150196.31117734403
0.7297802999507332	150374.89206573676
0.7299019300007252	150553.50271761132
0.7300235803223919	150732.14313792743
0.7301452509191123	150955.45490154912
0.7302669417942654	151199.40906863313
0.7303886529512311	151443.40389474505
0.7305103843933897	151687.4393866614
0.7306321361241218	151931.51555115954
0.7307539081468093	152175.63239501888
0.7308757004648336	152419.78992501833
0.7309975130815778	152663.98814793973
0.7311193460004248	152941.72620442338
0.7312411992247582	153227.09432683716
0.7313630727579622	153512.5100106046
0.7314849666034219	153797.973263653
0.7316068807645224	154083.48409391002
0.7317288152446498	154369.04250930558
0.7318507700471907	154654.6485177705
0.7319727451755319	154940.30212723673
0.732094740633061	155127.09872818744
0.7322167564231665	155309.4737447045
0.7323387925492371	155491.87915705764
0.7324608490146619	155674.3149703128
0.732582925822831	155856.78118953685
0.7327050229771347	156039.27781979725
0.7328271404809642	156221.80486616289
0.7329492783377112	156403.10810025726
0.7330714365507675	156572.11110942267
0.7331936151235259	156741.1422857562
0.7333158140593796	156910.2016339523
0.7334380333617229	157079.2891587067
0.7335602730339499	157248.40486471527
0.7336825330794556	157417.5487566749
0.7338048135016354	157586.72083928285
0.7339271143038857	157781.09741648365
0.734049435489603	158059.86425574808
0.7341717770621846	158338.67755615243
0.7342941390250283	158617.53732544003
0.7344165213815324	158896.44357135575
0.734538924135096	159175.3963016462
0.7346613472891185	159454.395524058
0.734783790847	159733.44124634028
0.7349062548121412	159962.82928777125
0.7350287391879431	160104.40137746205
0.7351512439778078	160245.99706250144
0.7352737691851374	160387.61634682148
0.735396314813335	160529.25923435568
0.7355188808658037	160670.92572903758
0.7356414673459482	160812.61583480224
0.7357640742571725	160954.3295555844
0.7358867016028818	161127.61589734655
0.7360093493864824	161332.08860476757
0.7361320176113801	161536.59539097289
0.736254706280982	161741.13626164256
0.7363774153986956	161945.71122245764
0.7365001449679286	162150.32027909908
0.7366228949920899	162354.96343725015
0.7367456654745885	162559.64070259422
0.7368684564188344	162778.2554833541
0.7369912678282374	163004.76461001838
0.7371140997062088	163231.3114882039
0.7372369520561599	163457.89612420264
0.7373598248815024	163684.51852430688
0.7374827181856494	163911.17869481153
0.7376056319720137	164137.87664201125
0.7377285662440091	164364.61237220225
0.7378515210050496	164576.7219879632
0.7379744962585505	164784.45503279608
0.738097492007927	164992.22269980307
0.7382205082565949	165200.02499475444
0.738343545007971	165407.86192342156
0.7384666022654723	165615.73349157703
0.7385896800325165	165823.63970499355
0.7387127783125219	166031.58056944588
0.7388358971089073	166242.684912151
0.7389590364250921	166454.13826746985
0.7390821962644963	166665.62686501475
0.7392053766305403	166877.15071065893
0.7393285775266454	167088.70981027753
0.7394517989562333	167300.30416974626
0.7395750409227259	167511.93379494126
0.7396983034295463	167722.27071868765
0.739821586480118	167903.10094973317
0.7399448900778645	168083.96131915017
0.7400682142262109	168264.85183196262
0.740191558928582	168445.77249319368
0.7403149241884034	168626.72330786815
0.7404383100091014	168807.70428101174
0.7405617163941028	168988.71541765076
0.7406851433468352	169161.25812068162
0.7408085908707264	169294.9505199161
0.7409320589692048	169428.66520121708
0.7410555476456997	169562.40216829837
0.7411790569036406	169696.16142487407
0.7413025867464579	169829.94297465924
0.7414261371775823	169963.7468213694
0.7415497082004452	170097.5729687206
0.7416732998184786	170233.52979780434
0.741796912035115	170374.03217093626
0.7419205448537874	170514.5579611303
0.7420441982779297	170655.1071722894
0.742167872310976	170795.67980831713
0.7422915669563612	170936.27587311753
0.7424152822175206	171076.8953705954
0.7425390180978901	171217.53830465605
0.7426627746009065	171383.92112273604
0.7427865517300065	171581.68185745852
0.7429103494886282	171779.4755523037
0.7430341678802096	171977.3022127645
0.7431580069081896	172175.1618443354
0.7432818665760077	172373.05445251183
0.7434057468871037	172570.98004278945
0.7435296478449182	172768.93862066534
0.7436535694528923	172942.61105437373
0.7437775117144678	173099.6652380874
0.7439014746330868	173256.7455974981
0.7440254582121922	173413.85213696884
0.7441494624552276	173570.9848608629
0.7442734873656368	173728.14377354423
0.7443975329468645	173885.32887937783
0.7445215992023557	174042.54018272902
0.7446456861355559	174175.615268351
0.7447697937499119	174299.81173932846
0.7448939220488703	174424.02890971774
0.7450180710358784	174548.26678296863
0.7451422407143843	174672.52536253177
0.7452664310878367	174796.80465185826
0.7453906421596846	174921.10465439953
0.7455148739333779	175045.4253736079
0.7456391264123667	175150.9095293956
0.7457633996001021	175253.39609051184
0.7458876935000356	175355.8997327218
0.7460120081156189	175458.4204588719
0.7461363434503048	175560.95827180977
0.7462606995075466	175663.5131743832
0.7463850762907978	175766.08516944028
0.7465094738035127	175868.6312857254
0.7466338920491467	175959.9527063933
0.746758331031155	176051.28934729804
0.7468827907529935	176142.64121097614
0.7470072712181189	176234.0082999649
0.7471317724299886	176325.3906168018
0.7472562943920602	176416.7881640248
0.7473808371077922	176508.20094417242
0.7475054005806435	176596.0903899918
0.7476299848140736	176662.1982818749
0.7477545898115426	176728.31719174003
0.7478792155765113	176794.44712142347
0.7480038621124406	176860.5880727618
0.7481285294227926	176926.740047592
0.7482532175110298	176992.90304775143
0.7483779263806148	177059.07707507745
0.7485026560350116	177116.6613517499
0.7486274064776842	177150.9775377609
0.748752177712097	177185.29944313617
0.7488769697417158	177219.62706882905
0.749001782570006	177253.96041579286
0.7491266162004343	177288.29948498114
0.7492514706364677	177322.64427734766
0.7493763458815739	177356.99479384624
0.7495012419392209	177372.7803233208
0.7496261588128773	177361.87087199392
0.7497510965060128	177350.95960242514
0.7498760550220971	177340.04651431146
0.7500010343646007	177329.13160734976
0.7501260345369949	177318.21488123687
0.750251055542751	177307.29633566967
0.7503760973853414	177296.37597034484
0.7505011600682389	177258.15626624585
0.750626243594917	177197.137388257
0.7507513479688495	177136.10834045522
0.7508764731935109	177075.06912114544
0.7510016192723765	177014.01972863244
0.7511267862089218	176952.96016122075
0.7512519740066232	176891.89041721448
0.7513771826689577	176830.8104949175
0.7515024121994025	176732.79457786813
0.7516276626014359	176617.54543487172
0.751752933878536	176502.277083685
0.7518782260341824	176386.9895211064
0.7520035390718548	176271.68274393398
0.7521288729950334	176156.35674896542
0.7522542278071992	176041.01153299768
0.7523796035118337	175925.64709282725
0.7525050001124189	175749.07561219946
0.7526304176124378	175559.16772208214
0.7527558560153731	175369.22818065007
0.752881315324709	175179.25698262753
0.7530067955439299	174989.2541227386
0.7531322966765205	174799.21959570664
0.7532578187259665	174609.15339625342
0.7533833616957542	174419.0555191003
0.75350892558937	174147.5635926486
0.7536345104103016	173872.20052654162
0.7537601161620366	173596.79156659046
0.7538857428480638	173321.3367051457
0.7540113904718717	173045.83593455772
0.7541370590369503	172770.28924717472
0.7542627485467898	172494.69663534363
0.7543884590048808	172210.01992872008
0.7545141904147151	171835.16619349158
0.7546399427797842	171460.24998264114
0.7547657161035808	171085.27128575547
0.754891510389598	170710.2300924204
0.7550173256413296	170335.12639221956
0.7551431618622698	169959.9601747355
0.7552690190559135	169584.73142954856
0.7553948972257561	169177.2447740046
0.7555207963752938	168661.62246041207
0.755646716508023	168145.91420976756
0.755772657627441	167630.12000774778
0.7558986197370455	167114.2398400276
0.756024602840335	166598.2736922796
0.7561506069408084	166082.22155017362
0.7562766320419653	165566.08339937683
0.7564026781473054	164978.4436811528
0.75652874526033	164265.0337179198
0.7566548333845401	163551.50485302592
0.7567809425234375	162837.8570666548
0.7569070726805247	162124.09033898637
0.7570332238593047	161410.20465019674
0.7571593960632813	160696.1999804583
0.7572855892959586	159982.07630994156
0.7574118035608413	159185.26336369992
0.7575380388614347	158307.53644001088
0.7576642952012449	157429.6632285009
0.7577905725837782	156551.64370479027
0.7579168710125422	155673.4778444908
0.7580431904910444	154795.16562321424
0.7581695310227928	153916.70701656863
0.7582958926112967	153038.10200015412
0.7584222752600652	151989.5880976944
0.7585486789726085	150843.3773931599
0.7586751037524372	149696.9756535075
0.7588015496030628	148550.3828468963
0.7589280165279966	147403.59894148627
0.7590545045307512	146256.62390542534
0.7591810136148396	145109.4577068584
0.7593075437837755	143962.10031392335
0.7594340950410726	142566.50391200156
0.7595606673902461	141098.70717734643
0.7596872608348112	139630.66580990073
0.7598138753782836	138162.3797688954
0.75994051102418	136693.84901354852
0.7600671677760173	135225.0735030769
0.7601938456373134	133756.05319668577
0.7603205446115863	132286.7880535777
0.7604472647023548	130425.34598622742
0.7605740059131385	128524.63567990606
0.7607007682474575	126623.6085885318
0.7608275517088319	124722.2646593132
0.7609543563007835	122820.6038394355
0.7610811820268336	120918.62607608897
0.7612080288905045	119016.33131645221
0.7613348968953197	117083.33494585504
0.7614617860448022	114526.59229097028
0.7615886963424764	111969.42351230622
0.7617156277918667	109411.8285388482
0.7618425803964988	106853.80729955916
0.7619695541598982	104295.35972339759
0.7620965490855914	101736.48573930854
0.7622235651771058	99177.18527621918
0.7623506024379685	96524.2733886553
0.7624776608717082	93462.47987264878
0.7626047404818536	90400.17605772278
0.7627318412719337	87337.3618588329
0.762858963245479	84274.03719090793
0.7629861064060198	81210.20196887138
0.7631132707570876	78145.85610762796
0.7632404563022137	75080.9995220771
0.7633676630449308	71837.03232609325
0.7634948909887717	68212.34479118463
0.7636221401372697	64587.05314169157
0.7637494104939593	60961.15727692018
0.7638767020623748	57334.65709617656
0.7640040148460518	53707.552498732024
0.7641313488485262	50079.843383854706
0.7642587040733344	46451.52965078747
0.7643860805240132	42780.12585290493
0.7645134782041005	39057.412400910645
0.7646408971171346	35334.07849667281
0.764768337266654	31610.124036785637
