#wavelength	surface flux
0.7	269889.18614193297
0.7001166666666666	270365.05557045474
0.7002333527777778	270746.9305059487
0.700350058336574	271128.86908726516
0.7004667833462966	271510.8713250113
0.7005835278101878	271892.9372297981
0.7007002917314895	272275.0668122351
0.7008170751134447	272657.2600829358
0.7009338779592968	273039.5170525147
0.7010507002722901	273331.2247412933
0.7011675420556689	273512.7110630448
0.701284403312678	273694.22763251624
0.7014012840465635	273875.77445474954
0.7015181842605713	274057.35153478646
0.701635103957948	274238.95887767
0.701752043141941	274420.59648844396
0.701869001815798	274602.26437215327
0.7019859799827672	274880.00814318383
0.7021029776460976	275224.64054083347
0.7022199948090387	275569.33037721645
0.7023370314748403	275914.0776619053
0.7024540876467528	276258.88240447495
0.702571163328027	276603.74461450113
0.7026882585219152	276948.66430156317
0.7028053732316688	277293.64147523924
0.7029225074605406	277891.5686492492
0.7030396612117841	278587.2488715832
0.7031568344886527	279283.0450406211
0.7032740272944008	279978.95717568666
0.7033912396322832	280674.98529610847
0.7035084715055552	281371.1294212163
0.7036257229174727	282067.3895703453
0.7037429938712924	282763.76576283306
0.7038602843702709	283367.68856192526
0.7039775944176659	283956.0115576554
0.7040949240167356	284544.43260721845
0.7042122731707383	285132.95172695606
0.7043296418829335	285721.56893321394
0.7044470301565806	286310.2842423395
0.70456443799494	286899.09767068276
0.7046818654012724	287488.00923459773
0.7047993123788394	287966.2213300609
0.7049167789309024	288444.3859823528
0.7050342650607243	288922.630328754
0.7051517707715678	289400.9543825462
0.7052692960666963	289879.3581570137
0.705386840949374	290357.84166544344
0.7055044054228656	290836.4049211254
0.7056219894904361	291288.10372109746
0.7057395931553511	291568.650178262
0.705857216420877	291849.2433931696
0.7059748592902804	292129.8833736129
0.7060925217668288	292410.57012738654
0.70621020385379	292691.30366228573
0.7063279055544321	292972.0839861071
0.7064456268720246	293252.91110664955
0.7065633678098366	293564.0392084424
0.7066811283711383	293958.53972242
0.7067989085592001	294353.1059864832
0.7069167083772933	294747.73801159026
0.7070345278286895	295142.43580870173
0.707152366916661	295537.1993887794
0.7072702256444803	295932.0287627867
0.7073881040154211	296326.9239416902
0.7075060020327569	296784.2332608618
0.7076239196997625	297332.41961620003
0.7077418570197124	297880.69733593025
0.7078598139958823	298429.06643528043
0.7079777906315483	298977.526929481
0.7080957869299869	299526.07883376355
0.7082138028944751	300074.7221633632
0.7083318385282908	300623.4569335181
0.7084498938347124	300946.6025858564
0.708567968817018	301078.465494131
0.7086860634784875	301210.3503795571
0.7088041778224007	301342.25724579755
0.7089223118520377	301474.18609651556
0.7090404655706796	301606.1369353753
0.709158638981608	301738.1097660416
0.709276832088105	301870.10459217976
0.7093950448934531	302312.92042869586
0.7095132774009353	302904.0334692175
0.7096315296138355	303495.2450285795
0.7097498015354378	304086.55512320116
0.7098680931690269	304677.96376950474
0.7099864045178884	305269.4709839168
0.7101047355853081	305861.07678286446
0.7102230863745722	306452.7811827782
0.7103414568889679	307009.2711407774
0.7104598471317828	307557.82988805143
0.7105782571063047	308106.48006178293
0.7106966868158224	308655.22167721
0.710815136263625	309204.05474957294
0.7109336054530023	309752.97929411486
0.7110520943872445	310301.99532608077
0.7111706030696424	310851.1028607189
0.7112891315034873	311236.1563097464
0.7114076796920712	311613.442074871
0.7115262476386865	311990.7907209565
0.7116448353466263	312368.20225848275
0.711763442819184	312745.6766979322
0.711882070059654	313123.2140497884
0.7120007170713306	313500.8143245365
0.7121193838575091	313880.24231414346
0.7122380704214853	314278.1397608503
0.7123567767665555	314676.1035237978
0.7124755028960166	315074.1336140394
0.7125942488131658	315472.23004262906
0.7127130145213015	315870.3928206246
0.7128318000237216	316268.62195908185
0.7129506053237256	316666.9174690628
0.7130694304246129	317059.3748549894
0.7131882753296837	317431.25341522245
0.7133071400422386	317803.1939552156
0.7134260245655789	318175.19648529857
0.7135449289030065	318547.26101580326
0.7136638530578235	318919.38755706284
0.7137827970333332	319291.5761194132
0.7139017608328388	319663.82671319053
0.7140207444596443	320030.19287037634
0.7141397479170543	320386.0121613784
0.7142587712083737	320741.8907555952
0.7143778143369084	321097.8286629112
0.7144968773059646	321453.8258932119
0.7146159601188489	321809.8824563842
0.7147350627788687	322165.99836231704
0.7148541852893318	322522.1736209007
0.7149733276535467	322756.9115005255
0.7150924898748222	322869.1739046082
0.715211671956468	322981.4550190916
0.7153308739017941	323093.7548470942
0.715450095714111	323206.0733917347
0.71556933739673	323318.4106561327
0.7156885989529628	323430.76664340805
0.7158078803861218	323543.1413566815
0.7159271816995193	323201.844434654
0.7160465028964692	322594.202690935
0.7161658439802853	321986.459673592
0.7162852049542819	321378.61536574626
0.7164045858217744	320770.6697505155
0.716523986586078	320162.62281101575
0.7166434072505089	319554.47453035973
0.716762847818384	318946.2248916567
0.7168823082930204	318854.8684606499
0.7170017886777359	318915.5944096623
0.7171212889758488	318976.3304796661
0.7172408091906781	319037.0766723483
0.7173603493255433	319097.83298939595
0.7174799093837642	319158.5994324964
0.7175994893686615	319219.3760033374
0.7177190892835562	319280.1627036068
0.7178387091317702	320850.6669676445
0.7179583489166254	322572.981750871
0.7180780086414448	324295.58358656266
0.7181976883095517	326018.4725225603
0.7183173879242699	327741.64860671404
0.718437107488924	329465.1118868822
0.7185568470068389	331188.8624109311
0.7186766064813399	332854.6723217497
0.7187963859157535	333064.93391952623
0.7189161853134061	333275.23056090245
0.719036004677625	333485.5622517189
0.7191558440117378	333695.92899781704
0.7192757033190732	333906.3308050398
0.7193955826029597	334116.7676792302
0.7195154818667269	334327.2396262331
0.7196354011137046	334495.8616391594
0.7197553403472235	334471.6656701469
0.7198752995706147	334447.4656684729
0.7199952787872098	334423.2616334653
0.720115278000341	334399.05356445187
0.7202352972133411	334374.8414607603
0.7203553364295432	334350.62532171805
0.7204753956522815	334326.40514665266
0.7205954748848902	334531.0048962433
0.7207155741307044	335240.11005862744
0.7208356933930594	335949.33340520406
0.7209558326752915	336658.67495567194
0.7210759919807375	337368.1347297325
0.7211961713127342	338077.7127470879
0.7213163706746197	338787.4090274472
0.7214365900697322	339497.2235905192
0.7215568295014103	339857.7114538211
0.721677088972994	339801.3126422718
0.7217973684878227	339744.90443092067
0.7219176680492374	339688.4868182009
0.7220379876605789	339632.05980254576
0.722158327325189	339575.6233823879
0.7222786870464099	339519.17755616014
0.7223990668275843	339462.7223222946
0.7225194666720555	339545.7680361045
0.7226398865831676	339727.7020734151
0.7227603265642646	339909.6664330648
0.722880786618692	340091.66112010815
0.7230012667497951	340273.6861395992
0.7231217669609201	340455.7414965936
0.7232422872554135	340637.82719614723
0.7233628276366229	340819.94324331783
0.7234833881078956	341423.8638786432
0.7236039686725803	342188.01656759717
0.7237245693340255	342952.2966153315
0.7238451900955812	343716.70404307515
0.7239658309605971	344481.2388720559
0.7240864919324239	345245.90112350916
0.7242071730144127	346010.690818671
0.724327874209915	346775.60797878046
0.7244485955222832	345910.83435812825
0.7245693369548704	344776.4399276067
0.7246900985110294	343641.8564313485
0.7248108801941148	342507.0838378378
0.7249316820074803	341372.1221155653
0.7250525039544815	340236.97123300395
0.7251733460384739	339101.6311586287
0.7252942082628137	337969.83110776125
0.7254150906308574	338998.68616625835
0.7255359931459625	340027.71270059864
0.7256569158114868	341056.91073936166
0.7257778586307888	342086.2803111317
0.7258988216072273	343115.8214444966
0.7260198047441617	344145.5341680494
0.7261408080449525	345175.41851039114
0.72626183151296	346122.9580247327
0.7263828751515454	346522.2861390665
0.7265039389640706	346921.6808080859
0.726625022953898	347321.14204288373
0.7267461271243904	347720.6698545542
0.7268672514789111	348120.264254193
0.7269883960208241	348519.9252528981
0.7271095607534942	348919.6528617699
0.7272307456802866	349291.36267152557
0.7273519508045666	349587.27163463307
0.7274731761297006	349883.22991590097
0.7275944216590555	350179.23752354906
0.7277156873959987	350475.29446579854
0.7278369733438982	350771.40075087216
0.727958279506122	351067.55638699257
0.7280796058860397	351363.761382386
0.7282009524870207	351337.6220064422
0.7283223193124353	350834.6220324723
0.7284437063656539	350331.53822517436
0.7285651136500483	349828.37057057436
0.7286865411689898	349325.11905469967
0.7288079889258514	348821.7836635711
0.7289294569240056	348318.3643832119
0.7290509451668262	347814.86119963863
0.7291724536576875	347513.9122028371
0.7292939823999636	347380.82053054014
0.7294155313970303	347247.7066762975
0.7295371006522632	347114.5706364125
0.7296586901690385	346981.4124071876
0.7297802999507332	346848.2319849246
0.7299019300007252	346715.0293659242
0.7300235803223919	346581.80454648763
0.7301452509191123	346963.3101622794
0.7302669417942654	347582.4734546133
0.7303886529512311	348201.7399408294
0.7305103843933897	348821.1096381267
0.7306321361241218	349440.5825637064
0.7307539081468093	350060.1587347748
0.7308757004648336	350679.838168537
0.7309975130815778	351299.62088220567
0.7311193460004248	352241.2718763374
0.7312411992247582	353255.92329686694
0.7313630727579622	354270.7438259663
0.7314849666034219	355285.73349182156
0.7316068807645224	356300.8923226205
0.7317288152446498	357316.2203465584
0.7318507700471907	358331.7175918341
0.7319727451755319	359347.38408665033
0.732094740633061	359225.191426779
0.7322167564231665	359051.74400102213
0.7323387925492371	358878.2676673609
0.7324608490146619	358704.76242097747
0.732582925822831	358531.22825705295
0.7327050229771347	358357.6651707679
0.7328271404809642	358184.0731573017
0.7329492783377112	357994.0043946326
0.7330714365507675	357642.2045039494
0.7331936151235259	357290.34597995115
0.7333158140593796	356938.428812866
0.7334380333617229	356586.4529929191
0.7335602730339499	356234.4185103354
0.7336825330794556	355882.3253553379
0.7338048135016354	355530.1735181485
0.7339271143038857	355447.17818328744
0.734049435489603	356266.2245187788
0.7341717770621846	357085.40736199287
0.7342941390250283	357904.7267356804
0.7344165213815324	358724.1826625966
0.734538924135096	359543.77516550175
0.7346613472891185	360363.50426715636
0.734783790847	361183.3699903282
0.7349062548121412	361494.4059035906
0.7350287391879431	360905.8746618122
0.7351512439778078	360317.2453314923
0.7352737691851374	359728.5178962847
0.735396314813335	359139.6923398374
0.7355188808658037	358550.7686457983
0.7356414673459482	357961.746797809
0.7357640742571725	357372.62677951215
0.7358867016028818	357078.6189240789
0.7360093493864824	357076.1089096719
0.7361320176113801	357073.5984769291
0.736254706280982	357071.08762578096
0.7363774153986956	357068.57635615754
0.7365001449679286	357066.06466798927
0.7366228949920899	357063.5525612062
0.7367456654745885	357061.0400357388
0.7368684564188344	357125.511734107
0.7369912678282374	357227.8524860852
0.7371140997062088	357330.2102948554
0.7372369520561599	357432.5851632606
0.7373598248815024	357534.9770941435
0.7374827181856494	357637.3860903485
0.7376056319720137	357739.8121547195
0.7377285662440091	357842.2552901012
0.7378515210050496	357790.98954707524
0.7379744962585505	357693.46379729395
0.738097492007927	357595.9217932211
0.7382205082565949	357498.3635321476
0.738343545007971	357400.78901136393
0.7384666022654723	357303.19822816004
0.7385896800325165	357205.5911798257
0.7387127783125219	357107.96786364994
0.7388358971089073	357075.3067335201
0.7389590364250921	357049.15766034625
0.7390821962644963	357023.00422899344
0.7392053766305403	356996.8464387355
0.7393285775266454	356970.68428884586
0.7394517989562333	356944.51777859783
0.7395750409227259	356918.3469072648
0.7396983034295463	356877.62741456163
0.739821586480118	356513.35325742664
0.7399448900778645	356149.01838793285
0.7400682142262109	355784.6227959597
0.740191558928582	355420.1664713883
0.7403149241884034	355055.6494040964
0.7404383100091014	354691.07158395986
0.7405617163941028	354326.4330008535
0.7406851433468352	353878.6452220602
0.7408085908707264	353050.6732606328
0.7409320589692048	352222.56330387876
0.7410555476456997	351394.31532879797
0.7411790569036406	350565.92931238865
0.7413025867464579	349737.405231643
0.7414261371775823	348908.7430635503
0.7415497082004452	348079.94278509694
0.7416732998184786	347263.13476373925
0.741796912035115	346472.2126835771
0.7419205448537874	345681.1587830684
0.7420441982779297	344889.973040243
0.742167872310976	344098.65543312643
0.7422915669563612	343307.205939742
0.7424152822175206	342515.6245381089
0.7425390180978901	341723.9112062426
0.7426627746009065	341179.4139460009
0.7427865517300065	340936.36088944646
0.7429103494886282	340693.26732404897
0.7430341678802096	340450.1332430574
0.7431580069081896	340206.95863971906
0.7432818665760077	339963.74350727984
0.7434057468871037	339720.4878389854
0.7435296478449182	339477.1916280797
0.7436535694528923	338997.21941202803
0.7437775117144678	338355.1829727849
0.7439014746330868	337713.03952746955
0.7440254582121922	337070.78905824607
0.7441494624552276	336428.43154727743
0.7442734873656368	335785.9669767238
0.7443975329468645	335143.39532874123
0.7445215992023557	334500.7165854841
0.7446456861355559	333650.03556208865
0.7447697937499119	332722.6296990171
0.7448939220488703	331795.06926830194
0.7450180710358784	330867.3542441824
0.7451422407143843	329939.4846008922
0.7452664310878367	329011.46031266043
0.7453906421596846	328083.28135371505
0.7455148739333779	327154.94769827614
0.7456391264123667	326083.7248856711
0.7457633996001021	324989.5010890623
0.7458876935000356	323895.0949218188
0.7460120081156189	322800.50635354954
0.7461363434503048	321705.73535385163
0.7462606995075466	320610.7818923195
0.7463850762907978	319515.64593854547
0.7465094738035127	318420.0563018844
0.7466338920491467	317253.3500596227
0.746758331031155	316086.4493663195
0.7468827907529935	314919.35418956884
0.7470072712181189	313752.0644969553
0.7471317724299886	312584.5802560595
0.7472562943920602	311416.9014344576
0.7473808371077922	310249.0279997178
0.7475054005806435	309058.59957053524
0.7476299848140736	307730.24175674224
0.7477545898115426	306401.66254998004
0.7478792155765113	305072.86191334965
0.7480038621124406	303743.8398099476
0.7481285294227926	302414.5962028619
0.7482532175110298	301085.13105517364
0.7483779263806148	299755.44432996266
0.7485026560350116	298378.94689977355
0.7486274064776842	296876.12842463475
0.748752177712097	295373.05947975285
0.7488769697417158	293869.74002337694
0.749001782570006	292366.1700137601
0.7491266162004343	290862.3494091421
0.7492514706364677	289358.278167756
0.7493763458815739	287853.9562478281
0.7495012419392209	286252.06024039444
0.7496261588128773	284509.98331197555
0.7497510965060128	282767.61603740073
0.7498760550220971	281024.95836828084
0.7500010343646007	279282.01025621576
0.7501260345369949	277538.7716527979
0.750251055542751	275795.2425096147
0.7503760973853414	274051.4227782399
0.7505011600682389	272192.9381383984
0.750626243594917	270238.6438494105
0.7507513479688495	268284.02384471084
0.7508764731935109	266329.07807000965
0.7510016192723765	264373.8064710122
0.7511267862089218	262418.2089934167
0.7512519740066232	260462.2855829076
0.7513771826689577	258506.0361851623
0.7515024121994025	256439.57684456152
0.7516276626014359	254321.5390441496
0.751752933878536	252203.14823744135
0.7518782260341824	250084.4043655979
0.7520035390718548	247965.30736977488
0.7521288729950334	245845.8571911203
0.7522542278071992	243726.05377076915
0.7523796035118337	241605.89704984688
0.7525050001124189	239302.97276146492
0.7526304176124378	236959.99364170895
0.7527558560153731	234616.62402543603
0.752881315324709	232272.86384755812
0.7530067955439299	229928.7130429831
0.7531322966765205	227584.1715466104
0.7532578187259665	225239.23929332092
0.7533833616957542	222893.91621798932
0.75350892558937	220368.9771972786
0.7536345104103016	217835.18967892707
0.7537601161620366	215300.9798626571
0.7538857428480638	212766.347678082
0.7540113904718717	210231.29305481273
0.7541370590369503	207695.81592244012
0.7542627485467898	205159.9162105439
0.7543884590048808	202612.68320703215
0.7545141904147151	199956.22350969052
0.7546399427797842	197299.32106907028
0.7547657161035808	194641.97581137618
0.754891510389598	191984.18766280593
0.7550173256413296	189325.9565495432
0.7551431618622698	186667.28239776223
0.7552690190559135	184008.16513362317
0.7553948972257561	181309.5926790269
0.7555207963752938	178479.62185142166
0.755646716508023	175649.17936201347
0.755772657627441	172818.2651321894
0.7558986197370455	169986.87908332658
0.756024602840335	167155.0211367897
0.7561506069408084	164322.69121392842
0.7562766320419653	161489.88923607746
0.7564026781473054	158587.58018330135
0.75652874526033	155563.30433368383
0.7566548333845401	152538.5244380898
0.7567809425234375	149513.24041251428
0.7569070726805247	146487.45217293617
0.7570332238593047	143461.15963531856
0.7571593960632813	140434.36271560847
0.7572855892959586	137407.06132974493
0.7574118035608413	134436.77120299183
0.7575380388614347	131522.2556212156
0.7576642952012449	128607.25428684127
0.7577905725837782	125691.76711891545
0.7579168710125422	122775.79403645644
0.7580431904910444	119859.33495848259
0.7581695310227928	116942.38980399942
0.7582958926112967	114024.95849198685
0.7584222752600652	111123.98990250939
0.7585486789726085	108232.27434956856
0.7586751037524372	105340.07684403447
0.7588015496030628	102447.39730557713
0.7589280165279966	99554.23565386912
0.7590545045307512	96660.5918085525
0.7591810136148396	93766.46568926172
0.7593075437837755	90871.85721561345
0.7594340950410726	88088.45389579667
0.7595606673902461	85336.99132948356
0.7596872608348112	82585.0701860733
0.7598138753782836	79832.69038914217
0.75994051102418	77079.85186224233
0.7600671677760173	74326.55452892347
0.7601938456373134	71572.79831271362
0.7603205446115863	68818.58313713595
0.7604472647023548	66244.28708323851
0.7605740059131385	63687.49154731029
0.7607007682474575	61130.26987879025
0.7608275517088319	58572.62200666447
0.7609543563007835	56014.54785988766
0.7610811820268336	53456.047367421255
0.7612080288905045	50897.12045821103
0.7613348968953197	48349.00374971368
0.7614617860448022	46031.014392778656
0.7615886963424764	43712.63870428099
0.7617156277918667	41393.87661983748
0.7618425803964988	39074.72807504465
0.7619695541598982	36755.19300549498
0.7620965490855914	34435.27134676876
0.7622235651771058	32114.96303443006
0.7623506024379685	29900.268454229354
0.7624776608717082	28149.81630231856
0.7626047404818536	26399.072408382366
0.7627318412719337	24648.036723800193
0.762858963245479	22896.70919993616
0.7629861064060198	21145.089788151316
0.7631132707570876	19393.17843979603
0.7632404563022137	17640.975106217586
0.7633676630449308	16065.856198494914
0.7634948909887717	14868.050361317337
0.7636221401372697	13670.044889835122
0.7637494104939593	12471.839750773197
0.7638767020623748	11273.434910856493
0.7640040148460518	10074.830336798435
0.7641313488485262	8876.025995311415
0.7642587040733344	7677.021853099452
0.7643860805240132	6727.801713475735
0.7645134782041005	6076.729025399249
0.7646408971171346	5425.547825207812
0.764768337266654	4774.258094816582
0.7648957986561985	4122.859816136744
0.7650232812893079	3471.3529710772114
0.7651507851695227	2819.7375415434963
0.7652783103003843	2168.013509438273
