#wavelength	surface flux
0.7	36697683.235101245
0.7001166666666666	37101477.26711237
0.7002333527777778	37156423.947636604
0.700350058336574	37211379.78594091
0.7004667833462966	37266344.78355152
0.7005835278101878	37321318.94199522
0.7007002917314895	37376302.26279857
0.7008170751134447	37431294.747488715
0.7009338779592968	37486296.39759295
0.7010507002722901	37458120.37187492
0.7011675420556689	37328706.79301158
0.701284403312678	37199271.64521864
0.7014012840465635	37069814.92490089
0.7015181842605713	36940336.628463104
0.701635103957948	36810836.75230934
0.701752043141941	36681315.2928429
0.701869001815798	36551772.24646637
0.7019859799827672	36166996.75840099
0.7021029776460976	35604544.75901043
0.7022199948090387	35041999.01761925
0.7023370314748403	34479359.51860476
0.7024540876467528	33916626.24634052
0.702571163328027	33353799.1851985
0.7026882585219152	32790878.31954479
0.7028053732316688	32227863.633747607
0.7029225074605406	32137792.548445582
0.7030396612117841	32230367.89949306
0.7031568344886527	32322958.679765735
0.7032740272944008	32415564.89183506
0.7033912396322832	32508186.538273115
0.7035084715055552	32600823.621652145
0.7036257229174727	32693476.144545108
0.7037429938712924	32786144.109525308
0.7038602843702709	33019592.985649765
0.7039775944176659	33276955.623134267
0.7040949240167356	33534361.154391784
0.7042122731707383	33791809.586571045
0.7043296418829335	34049300.926822476
0.7044470301565806	34306835.182297245
0.70456443799494	34564412.36014772
0.7046818654012724	34822032.467528
0.7047993123788394	34907312.66344693
0.7049167789309024	34992409.255763546
0.7050342650607243	35077520.03084568
0.7051517707715678	35162644.99105695
0.7052692960666963	35247784.13876155
0.705386840949374	35332937.47632406
0.7055044054228656	35418105.00610964
0.7056219894904361	35482579.921828866
0.7057395931553511	35415476.01870647
0.705857216420877	35348360.93160017
0.7059748592902804	35281234.658646055
0.7060925217668288	35214097.19797972
0.70621020385379	35146948.547736615
0.7063279055544321	35079788.706051886
0.7064456268720246	35012617.67106011
0.7065633678098366	34988301.567323744
0.7066811283711383	35082035.509142846
0.7067989085592001	35175785.07328558
0.7069167083772933	35269550.26235562
0.7070345278286895	35363331.07895722
0.707152366916661	35457127.52569495
0.7072702256444803	35550939.60517369
0.7073881040154211	35644767.319999136
0.7075060020327569	35670383.50873917
0.7076239196997625	35596641.51629088
0.7077418570197124	35522887.233510576
0.7078598139958823	35449120.65834982
0.7079777906315483	35375341.7887598
0.7080957869299869	35301550.622691564
0.7082138028944751	35227747.158095695
0.7083318385282908	35153931.392922334
0.7084498938347124	35197902.19032166
0.708567968817018	35341752.60110483
0.7086860634784875	35485626.98695664
0.7088041778224007	35629525.35187287
0.7089223118520377	35773447.69984973
0.7090404655706796	35917394.034884505
0.709158638981608	36061364.36097529
0.709276832088105	36205358.68212044
0.7093950448934531	36287005.45444431
0.7095132774009353	36338920.1705165
0.7096315296138355	36390843.539041385
0.7097498015354378	36442775.56146102
0.7098680931690269	36494716.23921766
0.7099864045178884	36546665.573754
0.7101047355853081	36598623.56651275
0.7102230863745722	36650590.21893693
0.7103414568889679	36479955.613733135
0.7104598471317828	36258710.35119941
0.7105782571063047	36037428.214455426
0.7106966868158224	35816109.19735534
0.710815136263625	35594753.29375243
0.7109336054530023	35373360.497498795
0.7110520943872445	35151930.80244586
0.7111706030696424	34930464.202443615
0.7112891315034873	34929173.52708671
0.7114076796920712	34938389.625215635
0.7115262476386865	34947607.25936092
0.7116448353466263	34956826.429778546
0.711763442819184	34966047.136724584
0.711882070059654	34975269.38045512
0.7120007170713306	34984493.16122628
0.7121193838575091	35011891.34576863
0.7122380704214853	35228832.44222587
0.7123567767665555	35445809.69553231
0.7124755028960166	35662823.1117144
0.7125942488131658	35879872.696799025
0.7127130145213015	36096958.45681509
0.7128318000237216	36314080.397790484
0.7129506053237256	36531238.52575636
0.7130694304246129	36679902.22656561
0.7131882753296837	36588983.51447037
0.7133071400422386	36498049.64925643
0.7134260245655789	36407100.628398344
0.7135449289030065	36316136.44937009
0.7136638530578235	36225157.10964538
0.7137827970333332	36134162.606697254
0.7139017608328388	36043152.93799866
0.7140207444596443	35998589.96633971
0.7141397479170543	36036902.92398295
0.7142587712083737	36075222.26711908
0.7143778143369084	36113547.996812426
0.7144968773059646	36151880.1141274
0.7146159601188489	36190218.62012858
0.7147350627788687	36228563.51588076
0.7148541852893318	36266914.80244889
0.7149733276535467	36386102.588598385
0.7150924898748222	36586817.51332622
0.715211671956468	36787565.89054155
0.7153308739017941	36988347.725819916
0.715450095714111	37189163.02473739
0.71556933739673	37390011.792871386
0.7156885989529628	37590894.03580004
0.7158078803861218	37791809.759102814
0.7159271816995193	37635600.73872767
0.7160465028964692	37269736.085274115
0.7161658439802853	36903810.45437834
0.7162852049542819	36537823.83587748
0.7164045858217744	36171776.219606645
0.716523986586078	35805667.595399916
0.7166434072505089	35439497.95308934
0.716762847818384	35073267.282504916
0.7168823082930204	34929182.55003172
0.7170017886777359	34850446.15031601
0.7171212889758488	34771696.62786705
0.7172408091906781	34692933.98049767
0.7173603493255433	34614158.20602037
0.7174799093837642	34535369.30224736
0.7175994893686615	34456567.26699036
0.7177190892835562	34377752.098060854
0.7178387091317702	34738936.14643419
0.7179583489166254	35144350.09602347
0.7180780086414448	35549831.61460467
0.7181976883095517	35955380.71343894
0.7183173879242699	36360997.40378973
0.718437107488924	36766681.69692234
0.7185568470068389	37172433.60410396
0.7186766064813399	37567614.95604736
0.7187963859157535	37696884.21308903
0.7189161853134061	37826175.015006855
0.719036004677625	37955487.36539169
0.7191558440117378	38084821.26783483
0.7192757033190732	38214176.72592857
0.7193955826029597	38343553.74326516
0.7195154818667269	38472952.323438086
0.7196354011137046	38557827.21880181
0.7197553403472235	38437621.96077787
0.7198752995706147	38317396.668544315
0.7199952787872098	38197151.33876196
0.720115278000341	38076885.968091324
0.7202352972133411	37956600.55319222
0.7203553364295432	37836295.090724155
0.7204753956522815	37715969.5773455
0.7205954748848902	37615115.488976575
0.7207155741307044	37557216.018511035
0.7208356933930594	37499306.89813386
0.7209558326752915	37441388.126236595
0.7210759919807375	37383459.70121061
0.7211961713127342	37325521.6214472
0.7213163706746197	37267573.88533706
0.7214365900697322	37209616.491270974
0.7215568295014103	37129912.23567179
0.721677088972994	37024258.55216914
0.7217973684878227	36918587.25971941
0.7219176680492374	36812898.35538749
0.7220379876605789	36707191.836238235
0.722158327325189	36601467.699335754
0.7222786870464099	36495725.94174384
0.7223990668275843	36389966.56052562
0.7225194666720555	36273529.61280385
0.7226398865831676	36149518.29261799
0.7227603265642646	36025486.30387907
0.722880786618692	35901433.64314176
0.7230012667497951	35777360.306961074
0.7231217669609201	35653266.291891016
0.7232422872554135	35529151.594485216
0.7233628276366229	35405016.211296305
0.7234833881078956	35439882.58693114
0.7236039686725803	35535129.46019383
0.7237245693340255	35630392.207935244
0.7238451900955812	35725670.83280146
0.7239658309605971	35820965.33743838
0.7240864919324239	35916275.72449286
0.7242071730144127	36011601.996611856
0.724327874209915	36106944.15644267
0.7244485955222832	36104349.43210091
0.7245693369548704	36085558.6115895
0.7246900985110294	36066764.659274705
0.7248108801941148	36047967.57463447
0.7249316820074803	36029167.35714686
0.7250525039544815	36010364.00628963
0.7251733460384739	35991557.5215406
0.7252942082628137	35973240.41219314
0.7254150906308574	36240296.036417365
0.7255359931459625	36507396.169912316
0.7256569158114868	36774540.82009626
0.7257778586307888	37041729.99438871
0.7258988216072273	37308963.700210124
0.7260198047441617	37576241.944982216
0.7261408080449525	37843564.7361289
0.72626183151296	38059588.90504298
0.7263828751515454	37934444.214821264
0.7265039389640706	37809278.66715119
0.726625022953898	37684092.25855643
0.7267461271243904	37558884.985560186
0.7268672514789111	37433656.84468518
0.7269883960208241	37308407.83245348
0.7271095607534942	37183137.94538632
0.7272307456802866	37058693.07153883
0.7273519508045666	36936512.41408883
0.7274731761297006	36814311.39319598
0.7275944216590555	36692090.00546633
0.7277156873959987	36569848.24750534
0.7278369733438982	36447586.11591782
0.727958279506122	36325303.6073087
0.7280796058860397	36203000.71828133
0.7282009524870207	36209287.05901517
0.7283223193124353	36405802.387901165
0.7284437063656539	36602350.46934156
0.7285651136500483	36798931.308795854
0.7286865411689898	36995544.91172299
0.7288079889258514	37192191.28358442
0.7289294569240056	37388870.42984071
0.7290509451668262	37585582.35595493
0.7291724536576875	37738265.06568541
0.7292939823999636	37854463.11094698
0.7294155313970303	37970680.52254966
0.7295371006522632	38086917.303720914
0.7296586901690385	38203173.457688935
0.7297802999507332	38319448.987682566
0.7299019300007252	38435743.89693149
0.7300235803223919	38552058.18866499
0.7301452509191123	38547023.70076684
0.7302669417942654	38485968.53654664
0.7303886529512311	38424903.19646572
0.7305103843933897	38363827.678828105
0.7306321361241218	38302741.981937595
0.7307539081468093	38241646.10409749
0.7308757004648336	38180540.04361121
0.7309975130815778	38119423.798781455
0.7311193460004248	38144409.74044828
0.7312411992247582	38188894.58826782
0.7313630727579622	38233386.850228645
0.7314849666034219	38277886.527566515
0.7316068807645224	38322393.62151724
0.7317288152446498	38366908.133316986
0.7318507700471907	38411430.064202055
0.7319727451755319	38455959.41540892
0.732094740633061	38475877.27323457
0.7322167564231665	38494690.09935581
0.7323387925492371	38513506.06094807
0.7324608490146619	38532325.15853392
0.732582925822831	38551147.392636046
0.7327050229771347	38569972.76377717
0.7328271404809642	38588801.27248016
0.7329492783377112	38595118.40576912
0.7330714365507675	38478405.68004785
0.7331936151235259	38361673.502205655
0.7333158140593796	38244921.86900062
0.7334380333617229	38128150.77718987
0.7335602730339499	38011360.22353044
0.7336825330794556	37894550.20477871
0.7338048135016354	37777720.717690736
0.7339271143038857	37665763.99949062
0.734049435489603	37570180.98203925
0.7341717770621846	37474582.034084946
0.7342941390250283	37378967.152972706
0.7344165213815324	37283336.33604698
0.734538924135096	37187689.580651626
0.7346613472891185	37092026.8841305
0.734783790847	36996348.24382659
0.7349062548121412	36921776.46619664
0.7350287391879431	36884527.687717535
0.7351512439778078	36847272.701108605
0.7352737691851374	36810011.50533528
0.735396314813335	36772744.09936263
0.7355188808658037	36735470.48215571
0.7356414673459482	36698190.65267918
0.7357640742571725	36660904.60989777
0.7358867016028818	36708251.42776461
0.7360093493864824	36839194.85610071
0.7361320176113801	36970160.10834135
0.736254706280982	37101147.18812404
0.7363774153986956	37232156.09908686
0.7365001449679286	37363186.8448679
0.7366228949920899	37494239.42910668
0.7367456654745885	37625313.85544283
0.7368684564188344	37642351.008691445
0.7369912678282374	37594927.19123925
0.7371140997062088	37547495.469817474
0.7372369520561599	37500055.84310874
0.7373598248815024	37452608.30979567
0.7374827181856494	37405152.86856029
0.7376056319720137	37357689.51808471
0.7377285662440091	37310218.25705071
0.7378515210050496	37153447.34724393
0.7379744962585505	36963767.750136554
0.738097492007927	36774056.53976305
0.7382205082565949	36584313.71085459
0.738343545007971	36394539.258141354
0.7384666022654723	36204733.17635248
0.7385896800325165	36014895.460216925
0.7387127783125219	35825026.104461774
0.7388358971089073	36015094.036448404
0.7389590364250921	36243305.47347484
0.7390821962644963	36471554.94574095
0.7392053766305403	36699842.45958544
0.7393285775266454	36928168.021349065
0.7394517989562333	37156531.63737321
0.7395750409227259	37384933.31399965
0.7396983034295463	37604979.28158405
0.739821586480118	37638336.12990602
0.7399448900778645	37671698.53770264
0.7400682142262109	37705066.50590067
0.740191558928582	37738440.0354267
0.7403149241884034	37771819.127207614
0.7404383100091014	37805203.782170504
0.7405617163941028	37838594.00124253
0.7406851433468352	37835831.35741381
0.7408085908707264	37667652.14110386
0.7409320589692048	37499444.8949246
0.7410555476456997	37331209.614204176
0.7411790569036406	37162946.294270426
0.7413025867464579	36994654.93044997
0.7414261371775823	36826335.51806883
0.7415497082004452	36657988.052452415
0.7416732998184786	36549565.356639266
0.741796912035115	36569735.20964671
0.7419205448537874	36589908.42429632
0.7420441982779297	36610085.001148365
0.742167872310976	36630264.94076324
0.7422915669563612	36650448.24370139
0.7424152822175206	36670634.910523355
0.7425390180978901	36690824.941789776
0.7426627746009065	36717385.9779879
0.7427865517300065	36751714.05007134
0.7429103494886282	36786047.84350015
0.7430341678802096	36820387.35922785
0.7431580069081896	36854732.59820817
0.7432818665760077	36889083.56139503
0.7434057468871037	36923440.24974239
0.7435296478449182	36957802.664204456
0.7436535694528923	36874285.190555155
0.7437775117144678	36710057.47781892
0.7439014746330868	36545802.39379748
0.7440254582121922	36381519.933928564
0.7441494624552276	36217210.093649596
0.7442734873656368	36052872.86839729
0.7443975329468645	35888508.25360731
0.7445215992023557	35724116.24471488
0.7446456861355559	35565149.77187632
0.7447697937499119	35408165.52099064
0.7448939220488703	35251155.10606319
0.7450180710358784	35094118.52273338
0.7451422407143843	34937055.766639665
0.7452664310878367	34779966.83341979
0.7453906421596846	34622851.71871121
0.7455148739333779	34465710.418150134
0.7456391264123667	34488449.03216321
0.7457633996001021	34539957.42728461
0.7458876935000356	34591474.40713864
0.7460120081156189	34642999.97315586
0.7461363434503048	34694534.12676746
0.7462606995075466	34746076.869404696
0.7463850762907978	34797628.202498965
0.7465094738035127	34849236.506197885
0.7466338920491467	34913509.014208816
0.746758331031155	34977792.23430449
0.7468827907529935	35042086.168270096
0.7470072712181189	35106390.81789137
0.7471317724299886	35170706.18495425
0.7472562943920602	35235032.271244936
0.7473808371077922	35299369.078550056
0.7475054005806435	35347698.93299524
0.7476299848140736	35297374.24207665
0.7477545898115426	35247041.16370957
0.7478792155765113	35196699.696496084
0.7480038621124406	35146349.839038104
0.7481285294227926	35095991.589937225
0.7482532175110298	35045624.94779478
0.7483779263806148	34995249.91121204
0.7485026560350116	34933404.57343076
0.7486274064776842	34840527.710493594
0.748752177712097	34747635.36807944
0.7488769697417158	34654727.54360802
0.749001782570006	34561804.2344993
0.7491266162004343	34468865.438172415
0.7492514706364677	34375911.15204611
0.7493763458815739	34282941.37353868
0.7495012419392209	34190716.19594561
0.7496261588128773	34099568.37589381
0.7497510965060128	34008405.3645386
0.7498760550220971	33917227.159348205
0.7500010343646007	33826033.75779026
0.7501260345369949	33734825.15733202
0.750251055542751	33643601.35544046
0.7503760973853414	33552362.349581867
0.7505011600682389	33443509.803318996
0.750626243594917	33319944.908560004
0.7507513479688495	33196359.41965207
0.7508764731935109	33072753.33316261
0.7510016192723765	32949126.6456587
0.7511267862089218	32825479.353706993
0.7512519740066232	32701811.453873247
0.7513771826689577	32578122.942722794
0.7515024121994025	32459003.28349186
0.7516276626014359	32342003.638260316
0.751752933878536	32224984.493088104
0.7518782260341824	32107945.844724994
0.7520035390718548	31990887.689920433
0.7521288729950334	31873810.02542347
0.7522542278071992	31756712.847982414
0.7523796035118337	31639596.154345058
0.7525050001124189	31504945.769353665
0.7526304176124378	31366464.001935974
0.7527558560153731	31227959.15422389
0.752881315324709	31089431.222370382
0.7530067955439299	30950880.202528186
0.7531322966765205	30812306.090849534
0.7532578187259665	30673708.88348556
0.7533833616957542	30535088.57658703
0.75350892558937	30347363.881288134
0.7536345104103016	30157299.956242498
0.7537601161620366	29967204.35387612
0.7538857428480638	29777077.068909165
0.7540113904718717	29586918.09606163
0.7541370590369503	29396727.43005199
0.7542627485467898	29206505.065597896
0.7543884590048808	29021483.115511093
0.7545141904147151	28888605.60293549
0.7546399427797842	28755705.944108002
0.7547657161035808	28622784.13533736
0.754891510389598	28489840.17293193
0.7550173256413296	28356874.053199373
0.7551431618622698	28223885.772446897
0.7552690190559135	28090875.326980993
0.7553948972257561	27931490.691852126
0.7555207963752938	27683625.678325783
0.755646716508023	27435719.353963993
0.755772657627441	27187771.71188139
0.7558986197370455	26939782.74519174
0.756024602840335	26691752.447007705
0.7561506069408084	26443680.81044064
0.7562766320419653	26195567.82860059
0.7564026781473054	25939600.374997918
0.75652874526033	25669841.254135247
0.7566548333845401	25400037.17341896
0.7567809425234375	25130188.125355985
0.7569070726805247	24860294.10245182
0.7570332238593047	24590355.097210538
0.7571593960632813	24320371.102134794
0.7572855892959586	24050342.10972652
0.7574118035608413	23803883.20082674
0.7575380388614347	23580486.627053577
0.7576642952012449	23357052.820518035
0.7577905725837782	23133581.77501506
0.7579168710125422	22910073.484337434
0.7580431904910444	22686527.942277946
0.7581695310227928	22462945.142628398
0.7582958926112967	22239325.079178624
0.7584222752600652	21958342.309711315
0.7585486789726085	21644381.434574734
0.7586751037524372	21330368.232625514
0.7588015496030628	21016302.695142023
0.7589280165279966	20702184.813402906
0.7590545045307512	20388014.5786835
0.7591810136148396	20073791.982258316
0.7593075437837755	19759517.015399925
0.7594340950410726	19416603.978739116
0.7595606673902461	19065340.03561977
0.7596872608348112	18714017.54850955
0.7598138753782836	18362636.507651865
0.75994051102418	18011196.903287046
0.7600671677760173	17659698.725655105
0.7601938456373134	17308141.964993287
0.7603205446115863	16956526.611538224
0.7604472647023548	16564600.57960626
0.7605740059131385	16168608.175130848
0.7607007682474575	15772549.771920972
0.7608275517088319	15376425.358978106
0.7609543563007835	14980234.92529887
0.7610811820268336	14583978.459880928
0.7612080288905045	14187655.951719508
0.7613348968953197	13789357.545594206
0.7614617860448022	13351806.970205458
0.7615886963424764	12914183.469720215
0.7617156277918667	12476487.031985313
0.7618425803964988	12038717.644843763
0.7619695541598982	11600875.296137806
0.7620965490855914	11162959.97370739
0.7622235651771058	10724971.66538939
0.7623506024379685	10287832.741350383
0.7624776608717082	9854663.86326057
0.7626047404818536	9421422.790357726
0.7627318412719337	8988109.51061014
0.762858963245479	8554724.011982325
0.7629861064060198	8121266.282438034
0.7631132707570876	7687736.309938367
0.7632404563022137	7254134.082443673
0.7633676630449308	6828641.919222927
0.7634948909887717	6420496.307311613
0.7636221401372697	6012282.67113218
0.7637494104939593	5604000.999346331
0.7638767020623748	5195651.280615773
0.7640040148460518	4787233.503598296
0.7641313488485262	4378747.656951331
0.7642587040733344	3970193.729329461
0.7643860805240132	3598410.124969663
0.7645134782041005	3270523.829543368
0.7646408971171346	2942582.8864010316
0.764768337266654	2614587.2864349587
0.7648957986561985	2286537.020535452
0.7650232812893079	1958432.0795916722
0.7651507851695227	1630272.4544910653
0.7652783103003843	1302058.1361196483
0.7654058566854343	1090450.1615772054
