#wavelength	surface flux
0.6450077295303345	43272.355897416186
0.6472567915916443	45085.235112856135
0.6494921445846558	46987.52307120776
0.6517150402069092	48921.89501312957
0.6539263725280762	50843.40410345555
0.6561272740364075	52816.874706996634
0.6583186388015747	54798.42170424735
0.6605015397071838	56881.15020304885
0.6626768708229065	58944.86165389124
0.6648455858230591	61070.000719914
0.6670085787773132	63094.67915818105
0.6691668033599854	62029.1865640638
0.6713210344314575	60435.66557952513
0.6734722256660461	69476.66859248649
0.6756211519241333	72452.03275905148
0.6777685880661011	75024.67519119511
0.6799154281616211	77511.63581687583
0.6820623278617859	80088.31187901592
0.6842101216316223	82768.78298678173
0.6863595843315125	85449.8918796515
0.688511312007904	88175.7188703435
0.6906660795211792	90803.87327793114
0.6928245425224304	93325.2610804809
0.6949873566627502	96682.85436241372
0.6971551775932312	99792.38508591255
0.6993286609649658	102836.76379839751
0.7015084028244019	105914.98846044326
0.7036949396133423	109151.42483027856
0.7058889269828796	112561.12501106084
0.7080909013748169	115874.57882251617
0.710301399230957	119303.3651002254
0.712520956993103	122871.06981575857
0.7147500514984131	126357.20107176031
0.7169892191886902	129329.30813647201
0.7192389369010925	133410.14002275863
0.7214996814727783	137107.1801138025
0.723771870136261	140829.25403400717
0.7260559797286987	144462.27787616992
0.7283523678779602	148401.88790790536
0.7306615710258484	152105.60670794078
0.7329838871955872	156433.60781125768
0.7353196740150452	160352.86739679298
0.7376693487167358	164225.65565850292
0.7400332689285278	168123.83324989694
0.7424117922782898	171173.86699473628
0.7448052167892456	174260.73758197107
0.7472138404846191	176329.71731680553
0.7496379613876343	177242.307396823
0.7520779371261597	176037.02175713668
0.7545340061187744	171499.1898599704
0.7570064663887024	161090.39733259546
0.7594954967498779	140989.9674196618
0.7620013952255249	102262.91734219244
0.7645244002342224	39757.07729610063
0.7670646905899048	8173.230832627163
0.7696225643157959	8563.184723824474
0.7721980810165405	73879.12979916883
0.7747915983200073	147598.72494588903
0.7774031162261963	191873.7737652002
0.7800329327583313	207658.47745120892
0.7826811671257019	244028.89186683623
0.7853479981422424	264075.3732533483
0.7880334854125977	279729.8202607052
0.7907378077507019	293069.8327571467
0.7934610247612	246574.70400455472
0.7962033748626709	269134.34933191544
0.7989648580551147	330062.48829586135
0.801745593547821	342147.644659967
0.8045456409454346	353719.71348548646
0.8073651194572449	365101.4739224057
0.8102040886878967	374801.15960845334
0.8130625486373901	385199.17182622035
0.8159406185150146	399871.4559714938
0.8188382983207703	411569.696595108
0.8217556476593018	423969.96248646313
0.8246926665306091	437066.1019988146
0.8276493549346924	450088.3245851979
0.8306257724761963	462171.26832667086
0.8336219191551208	476451.25375083
0.8366377949714661	488833.09291702474
0.8396733403205872	503209.65362198127
0.8427285552024841	520337.9749637026
0.8458034992218018	535526.6984024922
0.8488980531692505	550983.2817215534
0.8520121574401855	564012.6600802939
0.8551458716392517	583238.2790163091
0.8582990765571594	600275.3829313024
0.8614717125892639	613668.0505765501
0.8646637797355652	629873.6399045967
0.8678751587867737	649047.5658372771
0.8711057901382446	667436.2633165292
0.8743556141853333	685623.7064172553
0.87762451171875	704430.2418904038
0.8809124231338501	720592.7982672434
0.8842192888259888	742145.5538497637
0.8875449895858765	760553.6820621616
0.8908893465995789	777659.920839752
0.894252359867096	789398.6183608805
0.8976338505744934	818417.103460733
0.9010337591171265	845893.7311768295
0.9044519662857056	871760.5299271337
0.9078882932662964	893321.2773519849
0.9113426208496094	919358.7984848294
0.914814829826355	938861.221397914
0.9183048605918884	956966.9717861818
0.9218124747276306	990827.2529481213
0.925337553024292	994563.4889546629
0.9288799166679382	941569.2568649901
0.9324395060539246	989592.5140736382
0.9360161423683167	1022963.8108350044
0.9396095871925354	1081035.9574865045
0.943219780921936	1089687.983161205
0.9468464851379395	1087885.0543225636
0.9504896402359009	1145045.4771375833
0.9541489481925964	1172493.8762657184
0.9578243494033813	1207449.979928203
0.9615156054496765	1191083.1920275227
0.9652225375175476	1234867.4513287616
0.9689450263977051	1256976.0670476416
0.9726828336715698	1362486.5524588395
0.9764357805252075	1382224.3709278302
0.9802037477493286	1429373.6982871038
0.983986496925354	1468249.3962986427
0.9877838492393494	1508615.1833381255
0.9915955662727356	1557301.8993734298
0.9954215884208679	1597031.5284344875
0.9992615580558777	1637109.360164513
1.0031154155731201	1672389.7661443078
1.0069829225540161	1717681.4052067122
1.0108637809753418	1760780.7436263177
1.0147579908370972	1807151.027075635
1.018665075302124	1848914.7699318915
1.022585153579712	1887659.680721439
1.0265177488327026	1923505.9834022606
1.0304628610610962	1951543.759757756
1.0344202518463135	2020526.8209669595
1.0383895635604858	2064408.9828919994
1.0423706769943237	2109665.296211724
1.0463634729385376	2154491.8482373846
1.0503677129745483	2194545.8035071725
1.0543830394744873	2245135.0941795525
1.058409333229065	2293470.226960018
1.0624464750289917	2340411.6043014536
1.0664942264556885	2388297.7276481115
1.0705522298812866	2432421.520395296
1.0746204853057861	2485762.1745215217
1.0786986351013184	2533156.2906408636
1.0827864408493042	2584989.7692905935
1.086883783340454	2631968.168805361
1.0909905433654785	2664401.0438677096
1.0951062440872192	2703284.505273425
1.0992310047149658	2690069.089207954
1.10336434841156	2545125.1110914
1.1075061559677124	2615357.319754002
1.1116561889648438	2631324.661864841
1.115814208984375	2539621.1907342584
1.1199802160263062	2598130.688142619
1.124153733253479	2720214.5736460895
1.1283347606658936	2824197.401739531
1.1325229406356812	2614896.858671361
1.1367181539535522	2857396.5940302145
1.1409201622009277	3022872.5586061548
1.145128846168518	3159785.8297828934
1.1493438482284546	3115895.661296998
1.1535650491714478	2643941.70080791
1.1577922105789185	2917043.269090883
1.1620250940322876	2998792.8760747313
1.1662636995315552	3338803.398785004
1.170507550239563	3306615.108779437
1.174756646156311	3527890.055000825
1.1790107488632202	3710362.267536002
1.1832695007324219	3831459.253815748
1.1875330209732056	3894656.69695739
1.191800832748413	3994835.519820601
1.1960728168487549	4094174.5540015423
1.2003488540649414	4178398.9968114775
1.2046287059783936	4221495.308511009
1.2089121341705322	4307364.188133974
1.2131990194320679	4371167.951215155
1.2174891233444214	4459979.981533232
1.2217823266983032	4531885.736216922
1.2260783910751343	4608712.796373111
1.230377197265625	4677839.345701843
1.2346785068511963	4745870.290979163
1.238982081413269	4820930.161973219
1.2432878017425537	4889890.929503363
1.2475954294204712	4958322.739447322
1.2519049644470215	5007996.305157913
1.256216049194336	5101090.935087127
1.2605286836624146	5164902.042371744
1.2648425102233887	5227810.056705081
1.2691574096679688	5295334.596255078
1.2734732627868652	5358027.107963355
1.2777899503707886	5433870.81970947
1.2821072340011597	5485898.377624269
1.2864248752593994	5554002.425769822
1.2907428741455078	5578225.529383747
1.2950609922409058	5650167.776569334
1.2993791103363037	5719989.879533955
1.303696870803833	5745068.395951373
1.3080145120620728	5811690.986368027
1.3123314380645752	5865130.340339877
1.3166478872299194	5998433.642888116
1.3209635019302368	6019699.427849175
1.3252781629562378	5923052.585942207
1.3295916318893433	5743489.1221726425
1.3339040279388428	4937771.523535499
1.3382149934768677	3330342.97376602
1.3425244092941284	2510462.752820798
1.3468321561813354	3794593.1837324747
1.3511382341384888	2854398.135863556
1.3554422855377197	2012457.806714162
1.3597444295883179	2331179.7895442047
1.3640443086624146	2590108.362631775
1.3683418035507202	2742361.8952790285
1.3726370334625244	3888532.097017723
1.3769296407699585	4993517.876206583
1.381219506263733	3281029.550636
1.3855066299438477	1884083.7062408668
1.3897908926010132	2239908.9946205076
1.3940720558166504	2413084.439229315
1.3983501195907593	2179014.304955378
1.4026249647140503	3417605.7555058976
1.4068963527679443	4572901.274224993
1.4111642837524414	2539201.6982878926
1.4154287576675415	3024298.6161729298
1.419689416885376	3482698.76530536
1.4239463806152344	2462420.562553612
1.4281994104385376	4177502.1383068776
1.4324485063552856	3105743.165466737
1.436693549156189	3696985.359594904
1.440934419631958	3891686.813842929
1.4451709985733032	4808732.707607737
1.449403166770935	5985061.6646035025
1.453631043434143	6161607.92930596
1.4578542709350586	6410508.574093081
1.4620729684829712	6491012.397426299
1.4662868976593018	6786165.067497668
1.4704961776733398	6373333.6793813305
1.4747005701065063	6521486.716051616
1.4788999557495117	6598667.489256023
1.4830944538116455	7204991.261456837
1.4872838258743286	7578654.006682888
1.491468071937561	7646824.792333331
1.4956470727920532	7469642.418198273
1.4998208284378052	7844475.503104492
1.5039892196655273	8173140.768198584
1.5081522464752197	8074736.122162573
1.5123097896575928	8236691.956961977
1.5164618492126465	8496905.060992297
1.5206083059310913	8838884.463469962
1.5247491598129272	9082750.740910089
1.5288842916488647	8997353.282765368
1.5330137014389038	9181101.736176401
1.5371372699737549	9341802.083603106
1.541254997253418	9368032.495023368
1.545366883277893	9496033.903378969
1.5494728088378906	9602872.140646594
1.5535727739334106	9728338.022376277
1.5576666593551636	9684756.07445715
1.561754584312439	9778283.880888332
1.5658363103866577	9986401.455308596
1.5699119567871094	10085634.486121668
1.5739814043045044	10050955.956069982
1.5780447721481323	9938459.608154405
1.582101821899414	10110475.08617992
1.5861525535583496	10396763.997361384
1.5901970863342285	10436479.395577202
1.5942351818084717	10458880.082472248
1.5982669591903687	10440345.997228237
1.6022924184799194	10484097.35368575
1.606311559677124	10589258.938993732
1.6103241443634033	10621376.46679691
1.6143304109573364	10611324.929479323
1.6183301210403442	10628832.596857209
1.6223233938217163	10589282.934944974
1.6263102293014526	10606206.500715736
1.6302905082702637	10476710.34875389
1.634264349937439	10633895.611640003
1.638231635093689	11079133.557237696
1.6421923637390137	11163347.99951993
1.646146535873413	11050971.07708337
1.6500942707061768	10881469.063968984
1.6540353298187256	11182947.258293012
1.6579699516296387	11277220.99708529
1.661897897720337	11230668.270511879
1.6658192873001099	10458029.562754875
1.6697341203689575	10467924.727151485
1.6736423969268799	11308467.528918397
1.677544116973877	11351297.300915537
1.6814392805099487	11314071.901419215
1.6853278875350952	11372483.590426028
1.6892099380493164	11295626.588987382
1.6930854320526123	11111848.988370752
1.696954369544983	10688188.41124865
1.7008168697357178	10943942.832779603
1.7046726942062378	10923479.737259956
1.708522081375122	11280100.661597097
1.712364912033081	11322087.938568978
1.7162011861801147	11541619.873639055
1.7200311422348022	11746843.582099007
1.723854422569275	11743147.259014947
1.7276713848114014	11700339.646808267
1.731481909751892	11556045.43172014
1.7352858781814575	11388097.022127956
1.7390835285186768	11358991.743848486
1.7428747415542603	11290700.837599277
1.7466596364974976	10985230.220160667
1.7504380941390991	10747092.826456085
1.7542102336883545	10059787.661603894
1.7579760551452637	11109163.817004766
1.7617355585098267	11616302.959062122
1.7654887437820435	11075474.50925659
1.7692357301712036	10206419.878750825
1.7729763984680176	9080183.470618112
1.776710867881775	7110142.275768996
1.7804391384124756	6949265.947700225
1.7841613292694092	7594860.9960604105
1.7878772020339966	6318420.374255929
1.7915871143341064	7169789.084351235
1.7952908277511597	7618014.141910305
1.7989884614944458	7168681.820839904
1.8026801347732544	5163314.535059691
1.806365728378296	3284210.8256315207
1.8100452423095703	3802405.284826435
1.8137187957763672	5487869.925861115
1.817386507987976	3224438.719534792
1.8210482597351074	5362056.3302209005
1.8247040510177612	5979177.145102797
1.828354001045227	3053918.3850108827
1.8319982290267944	4085618.0883341664
1.8356364965438843	5427642.203352866
1.8392690420150757	6875304.326926947
1.8428958654403687	6655999.419972955
1.8465168476104736	6735176.164570215
1.8501322269439697	6687985.703224933
1.8537418842315674	4151243.7845918066
1.8573459386825562	4237217.496869835
1.860944390296936	4623962.693031263
1.864537239074707	3249604.6279380987
1.8681244850158691	4347633.6737349685
1.871706247329712	6129642.332310094
1.8752825260162354	7273317.96578336
1.8788533210754395	8309388.533978432
1.8824186325073242	9326494.182969984
1.8859784603118896	8329678.4811522495
1.8895330429077148	7825515.396346486
1.8930821418762207	9317245.895099107
1.8966259956359863	8859767.588748956
1.9001644849777222	5365873.211121224
1.9036977291107178	3687708.930473953
1.9072256088256836	5180194.63991783
1.9107483625411987	4786028.132539925
1.9142658710479736	2806661.9015949643
1.9177782535552979	3353025.2974237157
1.9212853908538818	4799968.651450476
1.9247875213623047	4104294.395720221
1.9282845258712769	4476608.3675138075
1.9317764043807983	5794247.707640025
1.9352631568908691	6006496.550237238
1.9387450218200684	5268789.7960816
1.942221760749817	5934060.413985333
1.9456936120986938	6046312.459736582
1.9491604566574097	6183974.517799029
1.952622413635254	5693902.017209572
1.956079363822937	4932370.887402366
1.959531545639038	5912417.414854532
1.962978720664978	6060319.161266625
1.966421127319336	6945152.2365241125
1.9698586463928223	8623625.808684113
1.9732913970947266	8817558.308577884
1.9767193794250488	9011878.541533904
1.9801424741744995	10108584.77095398
1.9835609197616577	10746089.366589315
1.9869745969772339	10805868.75980455
1.990383505821228	9599116.147718837
1.9937876462936401	9894741.68915556
1.9971871376037598	9873756.542012354
2.000581979751587	10094644.713023886
2.003972291946411	11523203.915369196
2.007357597351074	11892736.321168194
2.0107386112213135	12615372.677965486
2.0141148567199707	12716671.365066487
2.017486572265625	12071996.183372624
2.0208535194396973	12512956.525716279
2.0242159366607666	13323779.770851018
2.027573823928833	13535101.488041472
2.0309269428253174	13759059.097773286
2.034275770187378	14066876.591208613
2.0376198291778564	14245111.779920053
2.040959596633911	14401218.124296704
2.044294595718384	14645028.44568741
2.0476250648498535	14911314.420172928
2.0509510040283203	14907317.17010303
2.054272413253784	14758772.741486339
2.057589530944824	14892917.724824874
2.0609018802642822	15076050.77490534
2.0642096996307373	15207590.437784512
2.0675129890441895	15294069.972927537
2.0708119869232178	15344939.556323519
2.074106216430664	15323679.151551543
2.0773961544036865	15322283.014238276
2.080681324005127	15399093.865630684
2.0839622020721436	15453729.296988603
2.087238311767578	15498517.927778073
2.090510129928589	15505372.063359302
2.0937774181365967	15468588.037600726
2.0970399379730225	15504010.521361979
2.1002981662750244	15516699.081043521
2.1035518646240234	15490548.931664484
2.1068007946014404	15447431.540467262
2.1100454330444336	15519175.029207375
2.1132853031158447	15593491.581829809
2.116520881652832	15534985.301523542
2.1197516918182373	15513963.173757423
2.1229779720306396	15555515.514199696
2.12619948387146	15600130.79327795
2.1294167041778564	15614885.577821162
2.132629156112671	15642804.932735093
2.1358368396759033	15595965.45687317
2.139039993286133	15503653.413275218
2.1422386169433594	15430689.384994106
2.145432472229004	15364155.029066477
2.1486217975616455	15330393.157373043
2.151806354522705	15241111.380252268
2.1549863815307617	15283256.56059886
2.1581614017486572	15320516.007985823
2.16133189201355	15204154.987417381
2.1644976139068604	15175000.95239258
2.167658567428589	15182321.24234786
2.1708147525787354	15219044.172379564
2.173966407775879	15216721.641699953
2.1771130561828613	15184045.50313269
2.1802549362182617	15121083.871822089
2.183391809463501	15007780.878201772
2.1865241527557373	14852283.429943921
2.1896514892578125	14627665.730708245
2.1927738189697266	14074736.44205055
2.1958916187286377	13158239.229169779
2.1990041732788086	12332642.194134263
2.2021119594573975	11911891.001501039
2.2052149772644043	11796705.9624945
2.208312749862671	11974989.47462835
2.2114057540893555	12389261.724103887
2.214493751525879	12680424.457548412
2.217576742172241	12590437.121000184
2.2206547260284424	12502988.799841708
2.2237277030944824	12412876.041970719
2.2267956733703613	11910230.037127107
2.2298583984375	11278057.019169632
2.2329163551330566	10957252.561631123
2.235969066619873	10899915.465820985
2.2390167713165283	10737521.350512838
2.2420592308044434	10195528.328092651
2.2450966835021973	9683708.21085032
2.248128890991211	9911985.141720675
2.2511560916900635	10487060.481319398
2.254178285598755	10734177.215154571
2.257194995880127	10890707.645185366
2.260206699371338	10827519.643808763
2.2632133960723877	10273754.321869923
2.266214609146118	9685784.772636773
2.2692108154296875	9574271.826400483
2.2722020149230957	9968955.771517944
2.2751877307891846	10326237.746424932
2.278168201446533	10234850.42957315
2.2811436653137207	9914922.868363535
2.284113883972168	9654420.4908465
2.287078857421875	9394413.270315513
2.290038824081421	9130850.177347502
2.2929933071136475	8975653.37502618
2.295942783355713	8865356.425015336
2.298887014389038	8739967.3790549
2.301826238632202	8721077.192543564
2.304760217666626	8945374.415461065
2.3076889514923096	9384517.525411211
2.310612440109253	9765726.18706482
2.3135311603546143	9478016.512560178
2.3164443969726562	8151004.510568594
2.319352865219116	6963720.075773098
2.322256088256836	6775891.667183382
2.3251543045043945	6749677.173694017
2.328047275543213	6686486.982647911
2.330935478210449	6813557.307739649
2.3338186740875244	6941365.837409283
2.3366971015930176	7028277.655036741
2.3395702838897705	7073666.728125561
2.3424389362335205	7005275.287512277
2.3453025817871094	6893313.461695397
2.348161458969116	6940216.621537882
2.351015567779541	7325712.909543032
2.353865146636963	7937126.523499482
2.3567099571228027	8440786.860933399
2.3595502376556396	8801057.643381145
2.3623859882354736	9161464.880764911
2.3652172088623047	8880346.417922266
2.368043899536133	7344846.975481232
2.370866537094116	6142349.839283233
2.3736846446990967	6191112.849112096
2.3764986991882324	6415983.793866837
2.3793084621429443	6491623.919992697
2.3821144104003906	6782033.130578765
2.384916305541992	7483317.860384533
2.387714147567749	8216976.370426061
2.3905084133148193	8460630.289383223
2.393299102783203	8372783.724970433
2.3960859775543213	8202808.745791482
2.398869514465332	8100585.45375611
2.4016497135162354	7933625.565344249
2.4044265747070312	7936115.470566339
2.407200336456299	8312468.174927571
2.409970998764038	8889590.85739416
2.4127390384674072	9276942.008762369
2.415503978729248	9474988.917698866
2.418266534805298	9894203.811537307
2.4210267066955566	10043480.204408826
2.4237842559814453	9664307.37223952
2.426539897918701	9342171.440877419
2.429293394088745	9451366.324003067
2.4320452213287354	9858611.691067874
2.4347951412200928	10090170.958522446
2.4375438690185547	10029634.806888776
2.440291166305542	9818469.031661144
2.443037271499634	9377931.213961206
2.445782423019409	8753279.167494796
2.4485268592834473	8205495.7606237475
2.451270818710327	8120019.014557061
2.454014539718628	8698615.676326452
2.4567582607269287	9276053.785436932
2.4595019817352295	9025015.982993567
2.4622461795806885	9213619.59996433
2.4649908542633057	8952499.143305253
2.4677364826202393	7941169.064265957
2.4704833030700684	6474515.821947379
2.473231554031372	5176670.464967475
2.4759814739227295	4277369.501657905
2.4787333011627197	4174835.232632821
2.481487512588501	4764610.66556156
