#wavelength	surface flux
0.7	1225879.7021199062
0.7001166666666666	1227619.536999839
0.7002333527777778	1229210.0891579406
0.700350058336574	1230800.9064080676
0.7004667833462966	1232391.988794401
0.7005835278101878	1233983.3363611365
0.7007002917314895	1235574.949152464
0.7008170751134447	1237166.8272125898
0.7009338779592968	1238758.9705857248
0.7010507002722901	1240210.6367434885
0.7011675420556689	1241491.2704917297
0.701284403312678	1242772.1176789268
0.7014012840465635	1244053.1783406571
0.7015181842605713	1245334.4525124975
0.701635103957948	1246615.9402300322
0.701752043141941	1247897.641528853
0.701869001815798	1249179.5564445585
0.7019859799827672	1250530.404046148
0.7021029776460976	1251929.3013668382
0.7022199948090387	1253328.4318370833
0.7023370314748403	1254727.7954957397
0.7024540876467528	1256127.3923816723
0.702571163328027	1257527.22253375
0.7026882585219152	1258927.285990857
0.7028053732316688	1260327.5827918716
0.7029225074605406	1262234.552538847
0.7030396612117841	1264337.3996553645
0.7031568344886527	1266440.5972464015
0.7032740272944008	1268544.145370369
0.7033912396322832	1270648.0440856917
0.7035084715055552	1272752.2934507981
0.7036257229174727	1274856.893524133
0.7037429938712924	1276961.8443641486
0.7038602843702709	1278987.1991236676
0.7039775944176659	1280999.331862078
0.7040949240167356	1283011.7999559457
0.7042122731707383	1285024.6034611615
0.7043296418829335	1287037.742433629
0.7044470301565806	1289051.2169292585
0.70456443799494	1291065.027003969
0.7046818654012724	1293079.172713693
0.7047993123788394	1294846.42252396
0.7049167789309024	1296613.6831666369
0.7050342650607243	1298381.238352757
0.7051517707715678	1300149.0881314073
0.7052692960666963	1301917.2325516865
0.705386840949374	1303685.6716627015
0.7055044054228656	1305454.4055135713
0.7056219894904361	1307177.0998571806
0.7057395931553511	1308605.6317964524
0.705857216420877	1310034.4018243821
0.7059748592902804	1311463.409980649
0.7060925217668288	1312892.6563049434
0.70621020385379	1314322.140836958
0.7063279055544321	1315751.863616393
0.7064456268720246	1317181.82468296
0.7065633678098366	1318664.1073677223
0.7066811283711383	1320290.075439056
0.7067989085592001	1321916.3145050681
0.7069167083772933	1323542.8246109236
0.7070345278286895	1325169.6058017977
0.707152366916661	1326796.6581228708
0.7072702256444803	1328423.9816193287
0.7073881040154211	1330051.5763363717
0.7075060020327569	1331794.2052103626
0.7076239196997625	1333704.259156621
0.7077418570197124	1335614.631445202
0.7078598139958823	1337525.3221291644
0.7079777906315483	1339436.3312615757
0.7080957869299869	1341347.6588955077
0.7082138028944751	1343259.3050840446
0.7083318385282908	1345171.2698802806
0.7084498938347124	1346713.1147989987
0.708567968817018	1347941.1513298561
0.7086860634784875	1349169.3925334702
0.7088041778224007	1350397.8384439524
0.7089223118520377	1351626.4890954182
0.7090404655706796	1352855.3445219917
0.709158638981608	1354084.4047578045
0.709276832088105	1355313.6698369903
0.7093950448934531	1357075.7416374662
0.7095132774009353	1359092.110681591
0.7096315296138355	1361108.8157872243
0.7097498015354378	1363125.8570103743
0.7098680931690269	1365143.2344070596
0.7099864045178884	1367160.9480333137
0.7101047355853081	1369178.9979451718
0.7102230863745722	1371197.3841986803
0.7103414568889679	1373142.6508231023
0.7104598471317828	1375071.5507187187
0.7105782571063047	1377000.7720976495
0.7106966868158224	1378930.3150134769
0.710815136263625	1380860.1795197895
0.7109336054530023	1382790.365670188
0.7110520943872445	1384720.8735182774
0.7111706030696424	1386651.703117676
0.7112891315034873	1388328.8586170827
0.7114076796920712	1389994.1747662844
0.7115262476386865	1391659.7684681776
0.7116448353466263	1393325.63976902
0.711763442819184	1394991.7887150801
0.711882070059654	1396658.2153526326
0.7120007170713306	1398324.919727957
0.7121193838575091	1399997.583844446
0.7122380704214853	1401729.788096453
0.7123567767665555	1403462.2810491668
0.7124755028960166	1405195.0627507067
0.7125942488131658	1406928.1332491958
0.7127130145213015	1408661.4925927725
0.7128318000237216	1410395.1408295678
0.7129506053237256	1412129.0780077386
0.7130694304246129	1413850.3525328091
0.7131882753296837	1415526.6304317107
0.7133071400422386	1417203.1877102626
0.7134260245655789	1418880.0244150264
0.7135449289030065	1420557.140592575
0.7136638530578235	1422234.5362894856
0.7137827970333332	1423912.211552348
0.7139017608328388	1425590.1664277539
0.7140207444596443	1427271.036097191
0.7141397479170543	1428956.8867306812
0.7142587712083737	1430643.0183392745
0.7143778143369084	1432329.4309698038
0.7144968773059646	1434016.1246691055
0.7146159601188489	1435703.099484023
0.7147350627788687	1437390.3554614098
0.7148541852893318	1439077.8926481255
0.7149733276535467	1440526.9132199918
0.7150924898748222	1441735.3768595606
0.715211671956468	1442944.0419097363
0.7153308739017941	1444152.9084040879
0.715450095714111	1445361.976376188
0.71556933739673	1446571.245859617
0.7156885989529628	1447780.7168879597
0.7158078803861218	1448990.3894948089
0.7159271816995193	1449384.1965907472
0.7160465028964692	1449299.0888331668
0.7161658439802853	1449213.9668909602
0.7162852049542819	1449128.8307617633
0.7164045858217744	1449043.6804432112
0.716523986586078	1448958.5159329397
0.7166434072505089	1448873.3372285832
0.716762847818384	1448788.1443277758
0.7168823082930204	1449819.0936987877
0.7170017886777359	1451178.5833784444
0.7171212889758488	1452538.2996397137
0.7172408091906781	1453898.24252036
0.7173603493255433	1455258.4120581537
0.7174799093837642	1456618.8082908695
0.7175994893686615	1457979.4312562912
0.7177190892835562	1459340.2809922067
0.7178387091317702	1463172.0846910765
0.7179583489166254	1467252.5457124412
0.7180780086414448	1471333.6868106457
0.7181976883095517	1475415.5080990333
0.7183173879242699	1479498.0096909693
0.718437107488924	1483581.191699838
0.7185568470068389	1487665.0542390433
0.7186766064813399	1491649.629288804
0.7187963859157535	1493135.4447933345
0.7189161853134061	1494621.5079337824
0.719036004677625	1496107.8187514206
0.7191558440117378	1497594.3772875273
0.7192757033190732	1499081.1835833923
0.7193955826029597	1500568.2376803048
0.7195154818667269	1502055.539619568
0.7196354011137046	1503449.1135371896
0.7197553403472235	1504410.2378508765
0.7198752995706147	1505371.522351949
0.7199952787872098	1506332.9670671055
0.720115278000341	1507294.5720230476
0.7202352972133411	1508256.3372464827
0.7203553364295432	1509218.2627641202
0.7204753956522815	1510180.3486026786
0.7205954748848902	1511607.5867543344
0.7207155741307044	1514060.1962741558
0.7208356933930594	1516513.2145622259
0.7209558326752915	1518966.6416866782
0.7210759919807375	1521420.4777156545
0.7211961713127342	1523874.722717299
0.7213163706746197	1526329.376759781
0.7214365900697322	1528784.4399112677
0.7215568295014103	1530567.2685235168
0.721677088972994	1531547.8170046178
0.7217973684878227	1532528.528910464
0.7219176680492374	1533509.4042682957
0.7220379876605789	1534490.443105353
0.722158327325189	1535471.6454488835
0.7222786870464099	1536453.0113261377
0.7223990668275843	1537434.5407643716
0.7225194666720555	1538929.2856068402
0.7226398865831676	1540787.892239644
0.7227603265642646	1542646.808640215
0.722880786618692	1544506.0348601907
0.7230012667497951	1546365.5709512015
0.7231217669609201	1548225.4169648944
0.7232422872554135	1550085.5729529213
0.7233628276366229	1551946.0389669493
0.7234833881078956	1554314.390985492
0.7236039686725803	1556875.8447205324
0.7237245693340255	1559437.7253645246
0.7238451900955812	1562000.0329886288
0.7239658309605971	1564562.7676640009
0.7240864919324239	1567125.9294618221
0.7242071730144127	1569689.5184532767
0.724327874209915	1572253.5347095577
0.7244485955222832	1571972.2844979262
0.7245693369548704	1571220.4759826008
0.7246900985110294	1570468.5421658573
0.7248108801941148	1569716.483026809
0.7249316820074803	1568964.2985445734
0.7250525039544815	1568211.9886982562
0.7251733460384739	1567459.5534669645
0.7252942082628137	1566713.601628411
0.7254150906308574	1569796.8726987708
0.7255359931459625	1572880.6576476425
0.7256569158114868	1575964.9565606737
0.7257778586307888	1579049.769523525
0.7258988216072273	1582135.0966218691
0.7260198047441617	1585220.937941393
0.7261408080449525	1588307.2935678086
0.72626183151296	1591264.225485843
0.7263828751515454	1593358.1369921102
0.7265039389640706	1595452.3974836278
0.726625022953898	1597547.0070185622
0.7267461271243904	1599641.9656550868
0.7268672514789111	1601737.2734513825
0.7269883960208241	1603832.9304656426
0.7271095607534942	1605928.9367560733
0.7272307456802866	1607922.879154355
0.7273519508045666	1609640.511031705
0.7274731761297006	1611358.4291810337
0.7275944216590555	1613076.633650054
0.7277156873959987	1614795.1244864862
0.7278369733438982	1616513.9017380609
0.727958279506122	1618232.965452506
0.7280796058860397	1619952.3156775723
0.7282009524870207	1621126.782102296
0.7283223193124353	1621495.076600789
0.7284437063656539	1621863.4324816978
0.7285651136500483	1622231.849755254
0.7286865411689898	1622600.3284316885
0.7288079889258514	1622968.8685212363
0.7289294569240056	1623337.4700341318
0.7290509451668262	1623706.132980613
0.7291724536576875	1624458.981040536
0.7292939823999636	1625530.242385451
0.7294155313970303	1626601.6822739255
0.7295371006522632	1627673.3007357146
0.7296586901690385	1628745.0978005799
0.7297802999507332	1629817.0734982886
0.7299019300007252	1630889.2278586167
0.7300235803223919	1631961.560911335
0.7301452509191123	1633888.0467170589
0.7302669417942654	1636209.0219268678
0.7303886529512311	1638530.383965879
0.7305103843933897	1640852.1328985642
0.7306321361241218	1643174.268789403
0.7307539081468093	1645496.791702894
0.7308757004648336	1647819.7017035326
0.7309975130815778	1650142.9988558409
0.7311193460004248	1653096.503786943
0.7312411992247582	1656193.0843039255
0.7313630727579622	1659290.1809176602
0.7314849666034219	1662387.793714167
0.7316068807645224	1665485.9227794714
0.7317288152446498	1668584.5681996213
0.7318507700471907	1671683.730060676
0.7319727451755319	1674783.4084487066
0.732094740633061	1675910.6699679403
0.7322167564231665	1676949.2972739132
0.7323387925492371	1677988.0976844372
0.7324608490146619	1679027.0712283626
0.732582925822831	1680066.2179345456
0.7327050229771347	1681105.5378318452
0.7328271404809642	1682145.0309491286
0.7329492783377112	1683161.9141614684
0.7330714365507675	1683954.9843409825
0.7331936151235259	1684748.1866988598
0.7333158140593796	1685541.5212571293
0.7334380333617229	1686334.9880378263
0.7335602730339499	1687128.587062987
0.7336825330794556	1687922.3183546523
0.7338048135016354	1688716.1819348645
0.7339271143038857	1690011.0240555834
0.734049435489603	1692984.2602858962
0.7341717770621846	1695957.9920555812
0.7342941390250283	1698932.2194472263
0.7344165213815324	1701906.9425434354
0.734538924135096	1704882.1614268317
0.7346613472891185	1707857.876180038
0.734783790847	1710834.0868857042
0.7349062548121412	1712802.055200603
0.7350287391879431	1712987.3651448397
0.7351512439778078	1713172.7059740673
0.7352737691851374	1713358.077693433
0.735396314813335	1713543.4803080854
0.7355188808658037	1713728.9138231734
0.7356414673459482	1713914.3782438473
0.7357640742571725	1714099.873575258
0.7358867016028818	1714936.162164297
0.7360093493864824	1716415.2766332142
0.7361320176113801	1717894.6376212076
0.736254706280982	1719374.2451693658
0.7363774153986956	1720854.0993187837
0.7365001449679286	1722334.200110557
0.7366228949920899	1723814.5475857966
0.7367456654745885	1725295.1417856156
0.7368684564188344	1726961.0348933872
0.7369912678282374	1728731.7932209359
0.7371140997062088	1730502.846674873
0.7372369520561599	1732274.1953043875
0.7373598248815024	1734045.8391586698
0.7374827181856494	1735817.7782869306
0.7376056319720137	1737590.0127383796
0.7377285662440091	1739362.5425622375
0.7378515210050496	1740986.8114695647
0.7379744962585505	1742566.6550055295
0.738097492007927	1744146.76184875
0.7382205082565949	1745727.13204311
0.738343545007971	1747307.765632502
0.7384666022654723	1748888.6626608274
0.7385896800325165	1750469.8231719881
0.7387127783125219	1752051.247209903
0.7388358971089073	1753584.6228131687
0.7389590364250921	1755113.4081649878
0.7390821962644963	1756642.4483143666
0.7392053766305403	1758171.743303768
0.7393285775266454	1759701.2931756692
0.7394517989562333	1761231.0979725502
0.7395750409227259	1762761.157736895
0.7396983034295463	1764265.9670484776
0.739821586480118	1765203.6391619027
0.7399448900778645	1766141.4675540116
0.7400682142262109	1767079.4522508553
0.740191558928582	1768017.593278481
0.7403149241884034	1768955.8906629437
0.7404383100091014	1769894.344430304
0.7405617163941028	1770832.954606625
0.7406851433468352	1771601.127745522
0.7408085908707264	1771589.0048029735
0.7409320589692048	1771576.8798399344
0.7410555476456997	1771564.7528560683
0.7411790569036406	1771552.6238510383
0.7413025867464579	1771540.4928245072
0.7414261371775823	1771528.3597761386
0.7415497082004452	1771516.224705595
0.7416732998184786	1771573.3678697876
0.741796912035115	1771779.1403498924
0.7419205448537874	1771984.9471254104
0.7420441982779297	1772190.7882020578
0.742167872310976	1772396.6635855515
0.7422915669563612	1772602.573281609
0.7424152822175206	1772808.5172959492
0.7425390180978901	1773014.4956342918
0.7426627746009065	1773687.7726324
0.7427865517300065	1774930.7905216466
0.7429103494886282	1776174.0155805429
0.7430341678802096	1777417.4478436145
0.7431580069081896	1778661.0873453966
0.7432818665760077	1779904.9341204308
0.7434057468871037	1781148.9882032597
0.7435296478449182	1782393.2496284351
0.7436535694528923	1783182.8878516501
0.7437775117144678	1783661.3121989402
0.7439014746330868	1784139.816283621
0.7440254582121922	1784618.400118983
0.7441494624552276	1785097.0637183175
0.7442734873656368	1785575.8070949186
0.7443975329468645	1786054.630262083
0.7445215992023557	1786533.5332331082
0.7446456861355559	1786565.0441837173
0.7447697937499119	1786431.723642444
0.7448939220488703	1786298.3808810804
0.7450180710358784	1786165.0158959234
0.7451422407143843	1786031.6286832688
0.7452664310878367	1785898.219239412
0.7453906421596846	1785764.787560648
0.7455148739333779	1785631.333643271
0.7456391264123667	1785163.922810254
0.7457633996001021	1784643.0397677075
0.7458876935000356	1784122.0699113198
0.7460120081156189	1783601.0132266234
0.7461363434503048	1783079.8696991464
0.7462606995075466	1782558.639314414
0.7463850762907978	1782037.3220579517
0.7465094738035127	1781515.4209103775
0.7466338920491467	1780863.4190615874
0.746758331031155	1780211.3085458218
0.7468827907529935	1779559.089344971
0.7470072712181189	1778906.7614409202
0.7471317724299886	1778254.3248155518
0.7472562943920602	1777601.7794507463
0.7473808371077922	1776949.1253283795
0.7475054005806435	1776228.2430820563
0.7476299848140736	1775087.652218063
0.7477545898115426	1773946.871255592
0.7478792155765113	1772805.9001629602
0.7480038621124406	1771664.7389084806
0.7481285294227926	1770523.387460459
0.7482532175110298	1769381.8457871948
0.7483779263806148	1768240.1138569866
0.7485026560350116	1766943.0962583367
0.7486274064776842	1765226.102653106
0.748752177712097	1763508.8228822774
0.7488769697417158	1761791.2568981503
0.749001782570006	1760073.4046530277
0.7491266162004343	1758355.266099198
0.7492514706364677	1756636.841188942
0.7493763458815739	1754918.1298745326
0.7495012419392209	1752899.1155318553
0.7496261588128773	1750448.4551053778
0.7497510965060128	1747997.3862354944
0.7498760550220971	1745545.9088541334
0.7500010343646007	1743094.0228932085
0.7501260345369949	1740641.7282846223
0.750251055542751	1738189.0249602708
0.7503760973853414	1735735.9128520305
0.7505011600682389	1732820.2752650485
0.750626243594917	1729518.294921931
0.7507513479688495	1726215.7642487613
0.7508764731935109	1722912.6831538118
0.7510016192723765	1719609.0515453455
0.7511267862089218	1716304.8693316143
0.7512519740066232	1713000.1364208462
0.7513771826689577	1709694.8527212578
0.7515024121994025	1705760.0993860515
0.7516276626014359	1701531.452991737
0.751752933878536	1697302.1018230307
0.7518782260341824	1693072.0457624618
0.7520035390718548	1688841.2846925475
0.7521288729950334	1684609.8184957902
0.7522542278071992	1680377.6470546667
0.7523796035118337	1676144.7702516343
0.7525050001124189	1670935.8673824936
0.7526304176124378	1665513.9859477412
0.7527558560153731	1660091.20086609
0.752881315324709	1654667.5119869197
0.7530067955439299	1649242.919159601
0.7531322966765205	1643817.422233485
0.7532578187259665	1638391.0210578796
0.7533833616957542	1632963.7154820785
0.75350892558937	1626279.5932786777
0.7536345104103016	1619535.30047962
0.7537601161620366	1612789.883631766
0.7538857428480638	1606043.3425477643
0.7540113904718717	1599295.6770402573
0.7541370590369503	1592546.8869218337
0.7542627485467898	1585796.972005053
0.7543884590048808	1578905.8976201273
0.7545141904147151	1570617.234997368
0.7546399427797842	1562327.1909308517
0.7547657161035808	1554035.7651903229
0.754891510389598	1545742.9575455044
0.7550173256413296	1537448.7677660752
0.7551431618622698	1529153.1956216847
0.7552690190559135	1520856.2408819385
0.7553948972257561	1512071.879174055
0.7555207963752938	1501654.6533393955
0.755646716508023	1491235.6913004362
0.755772657627441	1480814.9927678
0.7558986197370455	1470392.5574520736
0.756024602840335	1459968.3850637972
0.7561506069408084	1449542.4753134563
0.7562766320419653	1439114.8279114808
0.7564026781473054	1427680.687157424
0.75652874526033	1414476.5392507834
0.7566548333845401	1401270.1906528184
0.7567809425234375	1388061.6409967584
0.7569070726805247	1374850.889915763
0.7570332238593047	1361637.9370429227
0.7571593960632813	1348422.7820112577
0.7572855892959586	1335205.4244537533
0.7574118035608413	1320997.2271121426
0.7575380388614347	1305819.4460024515
0.7576642952012449	1290639.1352625696
0.7577905725837782	1275456.2944709198
0.7579168710125422	1260270.9232057775
0.7580431904910444	1245083.021045419
0.7581695310227928	1229892.5875680526
0.7582958926112967	1214699.6223517542
0.7584222752600652	1197510.0097531397
0.7585486789726085	1179171.9891281452
0.7586751037524372	1160830.9121663729
0.7588015496030628	1142486.7783584045
0.7589280165279966	1124139.5871948379
0.7590545045307512	1105789.3381660772
0.7591810136148396	1087436.030762479
0.7593075437837755	1069079.6644742861
0.7594340950410726	1048421.1779090588
0.7595606673902461	1027092.2066198518
0.7596872608348112	1005759.6805020752
0.7598138753782836	984423.5989633026
0.75994051102418	963083.9614109201
0.7600671677760173	941740.7672522957
0.7601938456373134	920394.0158946285
0.7603205446115863	899043.7067450803
0.7604472647023548	874972.1083796802
0.7605740059131385	850626.3559612534
0.7607007682474575	826276.5459173999
0.7608275517088319	801922.6775719264
0.7609543563007835	777564.7502483414
0.7610811820268336	753202.763270217
0.7612080288905045	728836.7159609764
0.7613348968953197	704332.3978989604
0.7614617860448022	677070.3081613759
0.7615886963424764	649803.6747421314
0.7617156277918667	622532.49688401
0.7618425803964988	595256.7738295565
0.7619695541598982	567976.5048212679
0.7620965490855914	540691.6891014979
0.7622235651771058	513402.3259124098
0.7623506024379685	486517.55639931606
0.7624776608717082	461421.61971423536
0.7626047404818536	436321.5003730394
0.7627318412719337	411217.197678663
0.762858963245479	386108.7109338218
0.7629861064060198	360996.0394411875
0.7631132707570876	335879.18250327837
0.7632404563022137	310758.1394225687
0.7633676630449308	287138.563414979
0.7634948909887717	266720.08808714227
0.7636221401372697	246298.20968011077
0.7637494104939593	225872.92762665884
0.7638767020623748	205444.2413595608
0.7640040148460518	185012.150311395
0.7641313488485262	164576.65391472192
0.7642587040733344	144137.75160195955
0.7643860805240132	127169.39775389564
0.7645134782041005	114343.68549016435
0.7646408971171346	101515.83560771712
0.764768337266654	88685.84775029417
