#wavelength	surface flux
0.676892	161007.2910586473
0.678297	165121.49053342425
0.679702	169180.5506315386
0.681109	173248.35019975135
0.682517	177378.04582741304
0.683926	181523.3348574459
0.685337	185658.9281406689
0.686749	189842.9145479888
0.688164	194033.65300630828
0.689581	198077.20734467835
0.691	201145.60529494478
0.692422	202981.4620529792
0.693847	208560.69806930385
0.695274	214872.12612249
0.696705	219907.38513151018
0.698139	224151.91282030157
0.699576	228588.13856341378
0.701017	232823.76592607406
0.702461	236485.82913344924
0.70391	242020.9295046628
0.705362	247519.87846349832
0.706819	251826.08520541457
0.70828	256262.05570746592
0.709745	260626.11352009553
0.711216	265922.569268691
0.71269	270506.7023099215
0.71417	274645.1237883865
0.715655	276734.72845810873
0.717145	277033.62848920084
0.71864	283967.316101864
0.72014	288863.78765253525
0.721647	292468.80942981096
0.723158	295398.335955414
0.724676	297249.3235916115
0.726199	299677.52506818244
0.727728	303945.7454197645
0.729264	304099.97664472245
0.730805	307285.6615349292
0.732353	312612.8033043506
0.733907	313959.012198264
0.735468	315527.84277670004
0.737035	315663.11529036117
0.738609	316417.34338691423
0.74019	315190.9055257911
0.741777	310123.7102428612
0.743372	305101.8384674369
0.744973	298936.6595622282
0.746582	289151.5463071991
0.748197	276566.2659470681
0.74982	260590.51278496554
0.751451	240578.56069823905
0.753088	215994.89767594883
0.754734	187134.44386488775
0.756386	154325.99773151788
0.758047	118252.21599413232
0.759715	82150.78889116851
0.76139	48223.671358526684
0.763074	21480.082830013183
0.764765	6180.669192617749
0.766464	1107.1975010329909
0.768172	1457.619783958908
0.769887	1667.312469340879
0.77161	11796.023371619449
0.773341	39087.96996261284
0.775081	81129.93420432885
0.776829	129844.78860324668
0.778585	162902.17021395976
0.780349	189779.7777291912
0.782121	275255.63198560034
0.783902	339845.57693634747
0.785691	388915.35026422713
0.787489	432903.83173431666
0.789295	471872.0422538317
0.79111	501891.4170030112
0.792933	422186.88538899453
0.794764	228249.17552035948
0.796604	518320.50273799035
0.798453	632545.7725146099
0.80031	665361.0698969802
0.802176	692882.0214509034
0.804051	718675.4213334726
0.805934	743589.9860743697
0.807826	765439.2620373667
0.809727	777075.1085158194
0.811636	789011.8636933172
0.813554	807817.0723815435
0.81548	850158.3452084163
0.817416	875822.5318543817
0.81936	899172.3022694824
0.821313	920456.7875735326
0.823274	931618.4531407235
0.825244	968182.8307750613
0.827223	990210.1357493498
0.829211	1003163.5599543815
0.831208	1020741.8308108742
0.833213	1050894.5448735342
0.835227	1070647.3085298545
0.837249	1081905.5632883636
0.83928	1107784.596329709
0.841321	1149620.4184699366
0.843369	1184304.8374215616
0.845427	1209731.1019251298
0.847493	1237808.5335847724
0.849567	1256849.2022414305
0.851651	1258462.7431798729
0.853742	1301091.4853735685
0.855843	1346374.509203694
0.857952	1375334.2775896904
0.86007	1401146.0292155887
0.862196	1412033.3919724268
0.864331	1441553.1867736212
0.866474	1474319.6803187537
0.868626	1504133.0170229692
0.870786	1536655.4635097303
0.872955	1567104.3450520884
0.875132	1589475.61473893
0.877317	1618013.3414400367
0.879511	1632257.337393469
0.881713	1655479.070609535
0.883923	1680792.091029105
0.886142	1701356.8014190558
0.888369	1718576.8695114774
0.890604	1733126.1475885473
0.892847	1690244.5586112738
0.895099	1709407.9021447387
0.897358	1785989.227457092
0.899626	1873009.2320770011
0.901901	1926080.4321383678
0.904185	1983860.4066722994
0.906476	2008260.5056292636
0.908776	2042345.7775384902
0.911083	2098958.7450406114
0.913398	2102796.3187955185
0.915721	2111282.152686086
0.918051	2098979.8912452734
0.92039	2214918.942589456
0.922736	2238843.9178278786
0.925089	2124363.688209419
0.927451	1836647.384128557
0.929819	1497526.105173009
0.932195	1752320.6797905627
0.934579	1736414.8076598227
0.93697	1877392.701226109
0.939369	2117783.688391947
0.941774	2156629.5131842364
0.944187	1891857.3386055815
0.946607	1808505.8013500767
0.949035	2088417.1820164882
0.951469	2043521.9169639142
0.953911	2122766.9213398094
0.956359	2458129.7536551743
0.958814	2119159.4083158923
0.961277	1983245.6580125797
0.963746	2058756.4427543248
0.966222	2129422.510426367
0.968705	2130374.8698839224
0.971194	2598741.746085742
0.97369	2813863.420072365
0.976193	2741153.814228653
0.978702	2902674.235444247
0.981217	2954774.3109128475
0.983739	3042709.1314880056
0.986268	3100239.60666966
0.988802	3233209.789842816
0.991343	3363426.023174711
0.99389	3410478.9771477045
0.996444	3513953.8286222443
0.999003	3583145.687250751
1.00157	3624570.9521796615
1.00414	3690761.4190331707
1.00672	3783539.593461612
1.0093	3859810.03386108
1.01189	3936385.238451143
1.01448	4034243.485087759
1.01708	4099548.848785457
1.01969	4161254.800653147
1.0223	4208777.335599259
1.02492	4204454.3254796555
1.02754	4283739.278951206
1.03017	4256793.891608778
1.0328	4453834.774682378
1.03544	4537865.10036187
1.03808	4604263.758205497
1.04073	4671737.245437035
1.04339	4736080.568420606
1.04604	4797260.048345868
1.04871	4835314.7277942365
1.05138	4889110.386407838
1.05405	4975284.1476236945
1.05673	5053123.564975873
1.05941	5120545.080625934
1.0621	5181985.69022419
1.06479	5245236.583853263
1.06749	5306852.691319727
1.07019	5339122.281507623
1.07289	5415295.557900247
1.0756	5498876.194147682
1.07832	5550814.43554197
1.08104	5626328.308150758
1.08376	5700853.557323916
1.08649	5737961.473649299
1.08922	5711398.690771618
1.09195	5671220.126646327
1.09469	5645989.679633794
1.09743	5695410.413068373
1.10018	4806568.959315342
1.10293	3979726.010198276
1.10568	3425962.129400385
1.10844	4569384.844033295
1.1112	4168622.412637404
1.11396	3490101.4210271686
1.11673	3438145.119859769
1.1195	3507778.301756417
1.12228	2883093.7237254623
1.12505	3885294.4856877355
1.12783	3908225.672226463
1.13062	3992123.3007534165
1.13341	2429149.1330185356
1.1362	3556481.7865691204
1.13899	4818258.5130508
1.14178	4490994.889629004
1.14458	5020999.18520014
1.14738	5523372.125423807
1.15019	4007672.3367998265
1.153	2164700.8730342197
1.1558	2682102.044990022
1.15862	2855956.3869388527
1.16143	3008456.269693447
1.16425	4009019.435746802
1.16707	5071676.55575853
1.16989	4489626.124252886
1.17271	4907262.439949326
1.17554	5890556.865642236
1.17837	6562385.0207700515
1.1812	6815380.90517023
1.18403	7408283.766236699
1.18686	7396585.360546479
1.1897	7422992.736955205
1.19253	7965361.107852289
1.19537	8238047.488227499
1.19822	8388444.685687936
1.20106	8581017.167744515
1.2039	8523496.24168719
1.20675	8723556.569400327
1.2096	8831312.912821976
1.21245	8860908.86635164
1.2153	9106574.625693915
1.21815	9254167.922943363
1.221	9368763.820601782
1.22385	9511988.11595724
1.22671	9661219.525483351
1.22957	9758405.09897451
1.23242	9803490.684812456
1.23528	9922550.63854765
1.23814	10057365.816417316
1.241	10154343.300353853
1.24387	10251134.356147705
1.24673	10337349.536797522
1.24959	10393797.508724844
1.25245	10400989.134914175
1.25532	10601065.20407042
1.25818	10725866.769789124
1.26105	10741126.654481126
1.26392	10791859.366558755
1.26678	10880386.894233942
1.26965	10924157.210350722
1.27252	10934094.800643826
1.27538	11105912.088825706
1.27825	11146961.314105587
1.28112	11064855.427508797
1.28399	11231073.699851891
1.28686	11172168.482208554
1.28973	10946602.160517946
1.2926	10840386.768112471
1.29546	11092661.70872095
1.29833	11267555.21151831
1.3012	10898724.257812716
1.30407	10878466.758435661
1.30694	10813873.226568928
1.30981	11088419.04815923
1.31267	10805757.082158007
1.31554	11323443.489893487
1.31841	11828880.54641118
1.32128	11136955.101416335
1.32414	10129486.48146191
1.32701	9861810.027658923
1.32987	8308699.238405783
1.33274	5241597.596760831
1.3356	3583467.98718364
1.33847	1360596.7823112896
1.34133	483767.36756332114
1.34419	1157042.8204129213
1.34705	1578016.2441458055
1.34991	847305.0447346749
1.35277	377092.8195182481
1.35563	518647.8772988388
1.35849	582648.6723713488
1.36135	272393.4965634227
1.3642	611893.6798400802
1.36706	642316.602152607
1.36991	516466.03818196873
1.37277	1452773.664438577
1.37562	2741718.936633598
1.37847	3111116.596513847
1.38132	1221668.0432356095
1.38417	163252.580278361
1.38701	362543.9953270146
1.38986	283521.64343889966
1.39271	351993.12391234015
1.39555	555518.0096844787
1.39839	404494.94732178526
1.40123	816698.096961574
1.40407	1509955.338668428
1.40691	2071637.8693451695
1.40974	1075028.1226116337
1.41258	318776.5087698059
1.41541	802811.7120055569
1.41824	1037319.3910866299
1.42107	586597.1488158297
1.4239	395150.4633339095
1.42673	896136.7632090108
1.42955	1457855.8886007324
1.43237	947948.3192999396
1.43519	1627047.7160898393
1.43801	1137133.3282254257
1.44083	1429934.9474844742
1.44365	2265592.9719189503
1.44646	2480028.5401915326
1.44927	4417924.931493217
1.45208	5484821.126690047
1.45489	4357075.812490496
1.45769	5314750.976412628
1.4605	5954728.970950242
1.4633	6158462.333067509
1.4661	6551346.839003261
1.4689	4866800.78780389
1.47169	5125146.722315965
1.47449	4961938.492680979
1.47728	4982680.210926154
1.48007	5050237.205487128
1.48286	6888586.602797428
1.48564	8371116.858520919
1.48842	8378821.470243435
1.4912	8557689.60727702
1.49398	8220938.9874193575
1.49676	7299231.432761225
1.49953	8697122.634982558
1.5023	10188343.04471406
1.50507	10100716.472035097
1.50784	9536197.228288522
1.51061	9932564.00397575
1.51337	10528818.10941987
1.51613	11404569.998432253
1.51888	12362315.495424991
1.52164	13730574.42768018
1.52439	14538605.423128895
1.52714	13987221.642975615
1.52989	13778954.597129287
1.53263	14453304.13040469
1.53538	15197671.023185935
1.53812	15366150.130804276
1.54086	15372571.353196032
1.54359	15510508.506165462
1.54632	16144864.313276222
1.54905	16212468.08258802
1.55178	16746723.389110683
1.5545	16723255.892500306
1.55723	16374890.164124781
1.55995	16628261.173320971
1.56266	17052915.252044853
1.56538	17724358.895404164
1.56809	18079269.323274706
1.5708	18019891.013231855
1.57351	17584741.31249024
1.57621	17212171.49566989
1.57891	16359669.166444596
1.58161	17100092.263962287
1.5843	18542786.09048399
1.587	18850971.674140286
1.58969	18792800.636557594
1.59238	18645713.01922949
1.59506	18304786.30263299
1.59774	17952207.74291272
1.60042	17737828.809101045
1.6031	17725138.919110205
1.60577	17865318.127486788
1.60844	17905360.75928989
1.61111	17677841.573829845
1.61378	17213973.30293491
1.61644	16886532.643864673
1.6191	16390170.636584435
1.62176	15693301.640158573
1.62441	15118273.675305346
1.62707	14550022.263589712
1.62971	13421516.822851785
1.63236	13002126.642312186
1.635	14961084.301974751
1.63764	17662645.126439847
1.64028	18538360.035793576
1.64292	18327986.47336507
1.64555	17103637.08319332
1.64818	14903653.611547587
1.65081	14767983.467628863
1.65343	16560332.056941153
1.65605	17201116.956006147
1.65867	17408367.19772236
1.66128	16989074.328118514
1.6639	14627795.165725464
1.66651	10015710.584752318
1.66911	9381215.435147198
1.67172	13245891.54539377
1.67432	15925926.412092399
1.67692	15798341.30515495
1.67951	14631401.281699602
1.68211	14772998.557976125
1.6847	14941518.182937087
1.68728	14054593.584236767
1.68987	13615628.506253257
1.69245	12757168.115575459
1.69503	10543377.774762042
1.6976	9297701.249325123
1.70018	10578890.250854705
1.70275	10539621.980251543
1.70531	10952021.849448448
1.70788	12459863.811999159
1.71044	12372942.051399888
1.713	13185341.906740325
1.71556	14015086.551270258
1.71811	14505394.146864763
1.72066	15415138.691796405
1.72321	15236538.07727867
1.72575	14787643.942489985
1.7283	14451110.646816855
1.73084	13817687.2205795
1.73337	13021734.58284288
1.73591	12473554.951764205
1.73844	12409257.654546078
1.74097	12588051.833544679
1.74349	11971742.370938053
1.74602	11051422.911145575
1.74854	10604833.889342947
1.75105	9655817.870093795
1.75357	8248228.642041086
1.75608	9414543.626348704
1.75859	12075726.33895734
1.7611	12997718.208518328
1.7636	12401101.677346243
1.7661	10130824.747565476
1.7686	8284985.479589984
1.7711	6516186.615742634
1.77359	4701808.826011299
1.77608	2928616.6253798148
1.77857	2127621.1176525266
1.78105	2585406.7337734764
1.78354	3084214.155977512
1.78602	2424467.614675909
1.78849	1815216.0592276745
1.79097	2357753.4566900367
1.79344	3277441.2012619125
1.79591	4288009.731219128
1.79837	5459204.013075515
1.80084	3499392.4276848235
1.8033	1588932.4336315976
1.80576	757748.5433303881
1.80821	508018.7074847204
1.81067	1491624.0406303222
1.81312	2320132.0979288323
1.81557	1268876.7141431365
1.81801	670089.1233295404
1.82046	1593137.5937789292
1.8229	2422125.4703316977
1.82533	1638711.8535212511
1.82777	564480.4154926047
1.8302	370396.30327232194
1.83263	719804.2507845939
1.83506	1224557.993116696
1.83749	1955649.999785802
1.83991	2320986.8604540625
1.84233	1854006.9605021684
1.84475	1710216.3649234497
1.84716	1982082.580613119
1.84957	2516580.056442189
1.85198	2468322.5109761423
1.85439	1280931.9850689378
1.8568	892690.9326563932
1.8592	1161228.706962288
1.8616	890843.4031947119
1.864	464360.2231362661
1.86639	409629.188889739
1.86878	648068.5226277886
1.87118	1165918.8317149237
1.87356	1821252.2853858576
1.87595	2240322.0491047697
1.87833	3439537.5614586277
1.88071	5422141.318943658
1.88309	5275959.219955236
1.88547	4034548.9392870544
1.88784	3643859.5123943794
1.89021	3344010.6094179433
1.89258	5293115.681862748
1.89494	6782256.751895608
1.89731	4374339.2642253265
1.89967	1663046.1011866764
1.90203	541869.77353271
1.90439	496207.92384067585
1.90674	850261.54601184
1.90909	931783.0182802803
1.91144	597593.0213572608
1.91379	276429.72492752626
1.91613	251683.25761197798
1.91848	458261.571729186
1.92082	704308.6230622034
1.92315	691884.4813161462
1.92549	503762.2660950802
1.92782	579189.8883694182
1.93015	862933.4839595405
1.93248	1108650.7608390646
1.93481	1155040.384901318
1.93713	1008932.274993967
1.93945	1036859.4173208331
1.94177	1361890.9122960805
1.94409	1606232.0790752044
1.94641	1663454.5263983696
1.94872	2049260.2003391427
1.95103	2518994.4374019234
1.95334	1682856.8932823476
1.95564	1158997.0770715668
1.95795	1363913.4071893876
1.96025	1431599.0913606337
1.96255	1466636.092614292
1.96484	1769153.0648563695
1.96714	2563096.495301785
1.96943	3636579.2533364715
1.97172	4253890.924469834
1.97401	3875161.5448063025
1.97629	4130463.612518189
1.97858	5181974.252099568
1.98086	5837285.6058331495
1.98314	6582354.609232653
1.98541	7059517.232152001
1.98769	6526509.113435025
1.98996	5152841.427207965
1.99223	4927947.030397511
1.9945	5880070.193092181
1.99677	5589084.367827417
1.99903	5476622.12427254
2.00129	6660418.2818676075
2.00355	8358201.115929083
2.00581	9338497.01327339
2.00806	9687034.040358234
2.01031	11364925.310684463
2.01256	12130192.79268048
2.01481	11041094.031540712
2.01706	9751935.73282556
2.0193	9748776.77102571
2.02154	11265409.224560032
2.02378	12864532.552658416
2.02602	13246236.269414706
2.02825	13807808.085996045
2.03049	14528764.543255258
2.03272	15262952.775095059
2.03494	15891710.098004363
2.03717	16393730.074553475
2.03939	16895768.95727069
2.04162	17851302.84167702
2.04384	18718948.456886876
2.04605	19616651.220855303
2.04827	20388065.800812557
2.05048	20357112.28186635
2.05269	19219928.21789114
2.0549	18923795.65554191
2.05711	19395009.72384922
2.05931	20161742.936621327
2.06151	20772565.16652331
2.06371	21255105.507385295
2.06591	21582177.091376767
2.06811	21807434.17798647
2.0703	21898147.861387033
2.07249	21811971.50931488
2.07468	21494942.12800572
2.07686	21422642.06119045
2.07905	21591974.88492926
2.08123	21777399.58932764
2.08341	21872786.78052495
2.08559	21906819.60646827
2.08776	21986728.72219555
2.08994	21914097.756127812
2.09211	21700264.890321083
2.09428	21455309.99689409
2.09645	21465008.68753381
2.09861	21427385.936879985
2.10077	21312191.23497209
2.10293	21126399.41961345
2.10509	20887987.825107425
2.10725	20647650.64947834
2.1094	20796603.982651453
2.11155	20934138.396201685
2.1137	20860228.440903448
2.11585	20388786.362890124
2.11799	20039706.3098842
2.12013	19880420.226013992
2.12227	19883950.378762793
2.12441	20006121.253783695
2.12655	20092232.013644066
2.12868	20068770.678157285
2.13081	20058441.213635907
2.13294	20044766.436336704
2.13507	19730888.696303584
2.13719	19164493.529709186
2.13931	18684765.245167155
2.14143	18270085.101781603
2.14355	17611323.5653809
2.14567	17248373.27500215
2.14778	16981857.256428353
2.14989	16684350.848635033
2.152	16113153.76472607
2.1541	16280513.530815909
2.15621	16503510.922199786
2.15831	16501370.733276773
2.16041	15728960.65600773
2.16251	15346965.643372199
2.1646	15109042.915570656
2.1667	14987837.314234372
2.16879	15150881.754448192
2.17087	15317315.186105315
2.17296	15402341.93205911
2.17504	15358008.558669528
2.17713	15109579.998515826
2.1792	14691702.185350738
2.18128	14156033.437287392
2.18336	13544081.646734705
2.18543	12905010.959870027
2.1875	12242298.438966196
2.18957	11475176.015957365
2.19163	10258666.343622467
2.1937	8512373.477565266
2.19576	6725158.745877933
2.19782	5118928.8520452175
2.19987	4292108.635521229
2.20193	3834434.561408245
2.20398	3684109.8761018
2.20603	3740511.8035684535
2.20808	4015329.2572634984
2.21012	4402224.757064584
2.21217	4877867.402337688
2.21421	5126387.779882217
2.21625	5103218.537580797
2.21828	4841377.76432413
2.22032	4697576.3005396435
2.22235	4586968.630091281
2.22438	4408374.811159668
2.22641	3920955.1833268814
2.22843	3384292.7044046125
2.23046	2922081.265666
2.23248	2643861.386083425
2.2345	2559957.7780809337
2.23651	2496997.3817276075
2.23853	2429717.6547209765
2.24054	2180755.153111395
2.24255	1896517.5953781484
2.24456	1603833.2738223213
2.24657	1646360.682774888
2.24857	1858678.371552312
2.25057	2161145.0631312737
2.25257	2276123.7341017965
2.25457	2375830.891818797
2.25656	2467198.7601726977
2.25856	2561667.161249919
2.26055	2428107.13722117
2.26254	2177110.5847493755
2.26453	1876782.6708018663
2.26651	1700179.126612889
2.2685	1628366.3673738844
2.27048	1762222.540390208
2.27246	1961710.9114347664
2.27443	2148785.334242109
2.27641	2177502.417733193
2.27838	2088805.4115521193
2.28036	1952934.085476996
2.28233	1852066.5220335007
2.28429	1765086.7037592847
2.28626	1681093.1443780942
2.28823	1574732.030920731
2.29019	1525011.285477005
2.29215	1518643.4205782097
2.29411	1600279.656633554
2.29607	1682107.159630347
2.29802	1763763.9348887405
2.29998	1863092.6124607602
2.30193	2064028.9424263553
2.30388	2381667.4796613595
2.30583	2981982.971649087
2.30778	3581321.824330784
2.30972	4132983.809420308
2.31167	4089739.6757518933
2.31361	3694232.7524814387
2.31555	2667759.7245839126
2.31749	1864255.74407951
2.31943	1241170.6234909992
2.32137	1188874.4784858674
2.32331	1177871.7969422587
2.32524	1199638.1682881485
2.32718	1175723.4709903654
2.32911	1164729.093115781
2.33104	1173233.9322274285
2.33297	1165622.6605208525
2.3349	1150884.937261641
2.33683	1124714.98166721
2.33876	1096039.0576884232
2.34068	1063654.3355787462
2.34261	992473.628840294
2.34453	926493.1100444351
2.34646	865673.0207079707
2.34838	910326.1883879844
2.3503	1013268.4689374224
2.35223	1233840.4027345693
2.35415	1451654.528075778
2.35607	1664540.5777171433
2.35799	1815335.929978517
2.35991	1961089.3102513552
2.36183	2100757.5519173117
2.36375	2027319.8370031507
2.36566	1844277.3041074642
2.36758	1415563.2869975255
2.3695	1059802.143958569
2.37142	750805.6637856878
2.37334	778586.8587345295
2.37526	832446.9538376887
2.37718	926833.1593627648
2.3791	1018325.1752510928
2.38101	1116972.38969835
2.38293	1279219.3951026495
2.38485	1436409.3405851843
2.38677	1588435.761726513
2.3887	1577514.08550655
2.39062	1540935.3334506457
2.39254	1499809.5756348881
2.39446	1519837.2060837527
2.39639	1579374.2083227145
2.39831	1653954.398336559
2.40024	1687588.0788386676
2.40216	1643101.6187601858
2.40409	1672680.6383403863
2.40602	1751698.4306329763
2.40795	2057003.1433191781
2.40989	2327110.0339056333
2.41182	2550822.9721329026
2.41376	2660561.5728793335
2.4157	2773314.35682489
2.41764	3014429.527797804
2.41958	3170094.7330441447
2.42152	3256281.928774505
