#wavelength	surface flux
0.8	899678.6430272155
0.8002000000000001	910028.8834944528
0.8004000500000003	920682.8933387881
0.8006001500125003	931342.6089184749
0.8008003000500035	942004.9894270574
0.8010005001250161	952670.0355307721
0.8012007502500472	963337.7478959973
0.8014010504376099	973120.5473694699
0.8016014007002193	982608.4804197103
0.8018018010503944	992098.7854532131
0.8020022515006572	1001591.4630629786
0.8022027520635323	1011086.5138421383
0.8024033027515483	1020792.5235721702
0.8026039035772362	1030705.3651598672
0.8028045545531306	1040620.6849579617
0.8030052556917691	1050538.4835860103
0.803206007005692	1060458.7616637072
0.8034068085074435	1070496.648865183
0.8036076602095705	1080859.7691651948
0.8038085621246229	1091225.4802452736
0.8040095142651542	1101593.7827531286
0.8042105166437206	1111964.6773366071
0.8044115692728815	1122316.6526547761
0.8046126721651998	1131745.947420528
0.8048138253332411	1141177.5995099638
0.8050150287895745	1150611.6095124306
0.805216282546772	1160047.9780173956
0.8054175866174087	1169486.7056144818
0.8056189410140631	1178988.789918243
0.8058203457493168	1188510.5158572772
0.8060218008357541	1198034.622227784
0.8062233062859632	1207561.1096248883
0.8064248621125346	1217089.978643835
0.806626468328063	1227127.0690193244
0.8068281249451449	1237601.1232945465
0.8070298319763813	1248077.7960833504
0.8072315894343755	1258557.0880403437
0.8074333973317341	1269038.9998203302
0.8076352556810671	1278472.8325079696
0.8078371644949874	1285379.8143406773
0.8080391237861113	1292288.5229188448
0.8082411335670578	1299198.9586741528
0.8084431938504498	1306111.1220384066
0.8086453046489125	1312971.5966341647
0.8088474659750746	1318839.2610596197
0.8090496778415686	1324708.3924011886
0.809251940261029	1330578.991025589
0.8094542532460944	1336451.0572996503
0.8096566168094059	1342324.5915902737
0.8098590309636085	1348787.5863392958
0.8100614957213493	1355389.8211832326
0.8102640110952797	1361993.7065858813
0.8104665770980536	1368599.242959883
0.8106691937423283	1375206.430717981
0.8108718610407639	1382592.9888658691
0.8110745790060241	1390576.0742416403
0.8112773476507757	1398561.1553887622
0.8114801669876885	1406548.232806169
0.8116830370294355	1414537.3069929252
0.8118859577886929	1421915.5138723128
0.8120889292781401	1428022.6187799887
0.8122919515104597	1434131.250463891
0.8124950244983374	1440241.4093057148
0.8126981482544621	1446353.0956872478
0.8129013227915257	1452580.9205138483
0.8131045481222237	1460122.6103126085
0.8133078242592543	1467666.1855338193
0.8135111512153191	1475211.646648833
0.813714529003123	1482758.9941291267
0.8139179576353739	1490308.2284462918
0.8141214371247829	1509801.331958509
0.8143249674840641	1531615.059896366
0.814528548725935	1553434.2412661943
0.8147321808631167	1575258.8774313948
0.8149358639083326	1597088.9697556295
0.8151395978743097	1612855.0453809926
0.8153433827737784	1624524.2710877575
0.8155472186194719	1636196.414100945
0.8157511054241268	1647871.4751498834
0.815955043200483	1659549.4549640922
0.8161590319612831	1669789.642608779
0.8163630717192736	1677392.461790755
0.8165671624872033	1684997.1816775182
0.8167713042778252	1692603.8027442603
0.8169754971038948	1700212.3254662731
0.8171797409781707	1706663.7396067039
0.8173840359134155	1703864.025128353
0.8175883819223938	1701063.6107213858
0.8177927790178745	1698262.4962108154
0.8179972272126291	1695460.6814216163
0.8182017265194322	1692658.166178723
0.8184062769510622	1700594.0964885172
0.8186108785203001	1710184.6064308858
0.8188155312399301	1719777.514000727
0.8190202351227402	1729372.8197974714
0.819224990181521	1738970.524420659
0.8194297964290664	1756362.677267245
0.8196346538781738	1778455.8217429887
0.8198395625416434	1800554.4895048428
0.8200445224322789	1822658.6819336466
0.820249533562887	1844768.4004105509
0.8204545959462778	1862816.1434556483
0.8206597095952644	1874321.8623891843
0.8208648745226633	1885830.4577524625
0.8210700907412941	1897341.9302645798
0.8212753582639793	1908856.2806448133
0.8214806771035456	1917972.1758389978
0.8216860472728215	1912295.2083075666
0.8218914687846397	1906616.821534252
0.822096941651836	1900937.0151642414
0.822302465887249	1895255.7888426415
0.8225080415037209	1889573.142214458
0.8227136685140968	1901630.4270852369
0.8229193469312254	1915704.7405399245
0.8231250767679583	1929782.5725729803
0.8233308580371503	1943863.924064037
0.8235366907516598	1957948.7958929765
0.8237425749243477	1973792.9383253527
0.8239485105680789	1990571.6198327122
0.824154497695721	2007354.4960104378
0.824360536320145	2024141.5679072111
0.8245666264542252	2040932.8365719577
0.8247727681108388	2055838.65044633
0.8249789613028664	2068041.8525834407
0.8251852060431922	2080248.1055210961
0.825391502344703	2092457.4100219808
0.8255978502202894	2104669.7668490014
0.8258042496828445	2116324.415614591
0.8260107007452654	2125258.602023361
0.8262172034204517	2134195.021978724
0.8264237577213068	2143133.6760390783
0.8266303636607373	2152074.5647629513
0.8268370212516525	2161017.688709001
0.8270437305069654	2163255.191305379
0.8272504914395923	2164969.077837994
0.8274573040624523	2166683.392842242
0.8276641683884679	2168398.1364252395
0.8278710844305652	2170113.3086941354
0.8280780522016729	2177841.8106201445
0.8282850717147234	2188320.730521688
0.8284921429826521	2198802.270153196
0.8286992660183978	2209286.4301696206
0.8289064408349024	2219773.2112260414
0.8291136674451112	2227569.2822566684
0.8293209458619727	2231971.1459659026
0.8295282760984382	2236374.110141058
0.829735658167463	2240778.175057262
0.8299430920820048	2245183.34098969
0.8301505778550254	2249950.9381008362
0.8303581154994891	2256161.900502247
0.8305657050283641	2262374.415644264
0.8307733464546212	2268588.483915061
0.8309810397912352	2274804.105702937
0.8311887850511829	2281021.281396247
0.8313965822474458	2299690.896668323
0.8316044313930077	2318943.0907923323
0.8318123325008561	2338200.0979648908
0.8320202855839813	2357461.9193892325
0.8322282906553774	2376728.5562689323
0.8324363477280413	2386331.7455015024
0.8326444568149735	2392044.9264299693
0.8328526179291771	2397759.535653662
0.8330608310836596	2403475.573529669
0.8332690962914304	2409193.0404151375
0.8334774135655034	2414140.804864295
0.833685782918895	2418228.426707167
0.8338942043646247	2422317.070455498
0.834102677915716	2426406.736364769
0.834311203585195	2430497.4246905134
0.8345197813860912	2437755.0621207785
0.8347284113314379	2455671.318396911
0.8349370934342709	2473592.0537371025
0.8351458277076294	2491517.2692611073
0.8353546141645565	2509446.9660890233
0.8355634528180977	2527381.1453411384
0.8357723436813022	2517289.829843232
0.8359812867672226	2506849.892705238
0.8361902820889144	2496407.3455829653
0.8363993296594368	2485962.1878239084
0.8366084294918518	2475514.4187754085
0.8368175815992247	2485677.7468335284
0.8370267859946247	2502943.188846655
0.8372360426911234	2520212.9472202794
0.8374453517017962	2537487.0230334955
0.8376547130397217	2554765.4173656628
0.8378641267179816	2567045.2800154975
0.8380735927496613	2574364.0836648527
0.8382831111478488	2581684.7170151155
0.8384926819256358	2589007.180523712
0.8387023050961173	2596331.4746481925
0.8389119806723914	2603627.589883295
0.8391217086675596	2610841.071305535
0.8393314890947265	2618056.3560981243
0.8395413219670003	2625273.444711913
0.8397512072974922	2632492.33759786
0.8399611450993165	2639977.5469108294
0.8401711353855914	2660600.1842059717
0.8403811781694378	2681227.9771604324
0.8405912734639802	2701860.9270631373
0.8408014212823464	2722499.035203327
0.8410116216376671	2743142.3028705493
0.8412218745430766	2761372.1069677286
0.8414321800117124	2778902.7421508105
0.8416425380567154	2796437.759992697
0.8418529486912297	2813977.1615890474
0.8420634119284025	2831520.9480357827
0.8422739277813847	2844703.965743262
0.8424844962633302	2854044.4085426345
0.842695117387396	2863387.186452695
0.8429057911667428	2872732.300057234
0.8431165176145345	2882079.749940178
0.8433272967439382	2890191.9607490283
0.8435381285681244	2895287.4087213073
0.8437490131002665	2900384.1305555785
0.8439599503535415	2905482.126570305
0.84417094034113	2910581.397084039
0.8443819830762154	2915954.7830732516
0.8445930785719846	2926825.9107858203
0.8448042268416277	2937699.756280311
0.8450154278983382	2948576.320236174
0.8452266817553128	2959455.6033330252
0.8454379884257517	2970337.6062506516
0.8456493479228583	2982340.058470594
0.845860760259839	2994614.6738323695
0.846072225449904	3006892.3578479853
0.8462837435062666	3019173.1112846076
0.8464953144421433	3031456.934909596
0.8467069382707537	3041097.596852264
0.8469186150053215	3048678.0118894656
0.847130344659073	3056260.3220304293
0.8473421272452377	3063844.52774892
0.8475539627770492	3071430.629518849
0.8477658512677435	3079260.3980934825
0.8479777927305605	3087605.4914614675
0.8481897871787432	3095952.6711027925
0.848401834625538	3104301.9375390327
0.8486139350841944	3112653.2912918767
0.8488260885679657	3120297.5715459483
0.8490382950901076	3119299.3379227794
0.8492505546638802	3118300.8547412045
0.8494628673025462	3117302.1219388344
0.8496752330193721	3116303.1394532626
0.8498876518276269	3115303.9072220703
0.8501001237405839	3065721.901900232
0.8503126487715191	3006429.5761828306
0.850525226933712	2947122.4273840324
0.8507378582404455	2887800.4517980353
0.8509505427050057	2828463.6457181075
0.8511632803406821	2786614.0628555007
0.8513760711607672	2756739.7220087633
0.8515889151785576	2726857.9125767685
0.8518018124073523	2696968.6326924404
0.8520147628604541	2667071.8804881587
0.8522277665511693	2670363.474558407
0.8524408234928071	2735047.5488614663
0.8526539336986805	2799747.7941831187
0.8528670971821053	2864464.2145661055
0.8530803139564007	2929196.8140541124
0.8532935840348901	2993883.164133774
0.8535069074308987	3058058.4109426606
0.8537202841577566	3122249.701563303
0.8539337142287962	3186457.040006608
0.8541471976573534	3250680.4302844834
0.8543607344567677	3314919.87640994
0.8545743246403821	3340691.058704694
0.8547879682215422	3360356.933338842
0.8550016652135977	3380027.724441646
0.8552154156299011	3399703.4332422274
0.8554292194838088	3419384.060970023
0.8556430767886797	3434102.1385388174
0.855856987557877	3445807.7788498527
0.8560709518047664	3457516.345570958
0.8562849695427177	3469227.8394337487
0.8564990407851035	3480942.261170008
0.8567131655452999	3492006.8282313645
0.8569273438366862	3502004.554244416
0.8571415756726455	3512004.7796889725
0.8573558610665638	3522007.505189894
0.8575702000318304	3532012.73137218
0.8577845925818384	3542265.4035873683
0.857999038729984	3554050.653969813
0.8582135384896665	3565838.8506648513
0.858428091874289	3577629.9944090634
0.8586426988972576	3589424.085939209
0.8588573595719821	3601221.125992241
0.8590720739118751	3609255.724658188
0.8592868419303532	3616848.381165562
0.8595016636408359	3624442.935837064
0.8597165390567462	3632039.389147231
0.8599314681915105	3639637.741570727
0.8601464510585584	3644140.8852703986
0.860361487671323	3647001.2312838826
0.8605765780432408	3649862.292383869
0.8607917221877518	3652724.0687491326
0.8610069201182988	3655586.560558487
0.8612221718483286	3648025.5895978673
0.8614374773912907	3625434.8645359273
0.8616528367606385	3602838.491792728
0.8618682499698288	3580236.4699563286
0.8620837170323213	3557628.797614474
0.8622992379615795	3539996.334067086
0.8625148127710699	3547007.833809957
0.8627304414742627	3554021.086427764
0.8629461240846313	3561036.0923587265
0.8631618606156526	3568052.8520411723
0.8633776510808066	3575071.365913538
0.8635934954935769	3601437.006665058
0.8638093938674504	3629395.0139788855
0.8640253462159173	3657360.0107945404
0.8642413525524714	3685331.998859399
0.8644574128906095	3713310.979921268
0.8646735272438323	3724788.6961929817
0.8648896956256433	3728592.4837876316
0.8651059180495498	3732397.222329181
0.8653221945290621	3736202.912055362
0.8655385250776946	3740009.5532039795
0.8657549097089641	3750627.705484307
0.8659713484363913	3769967.5255598845
0.8661878412735006	3789312.1805904903
0.866404388233819	3808661.671784851
0.8666209893308775	3828016.000352001
0.8668376445782103	3845424.968169087
0.8670543539893549	3854878.534753264
0.8672711175778525	3864334.4647290935
0.8674879353572469	3873792.7586874063
0.8677048073410862	3883253.4172192127
0.8679217335429217	3892716.4409156577
0.8681387139763074	3905189.269897311
0.8683557486548015	3917814.619019901
0.8685728375919655	3930443.1244797865
0.8687899808013633	3943074.78706601
0.8690071782965637	3955709.607567896
0.869224430091138	3965076.26316337
0.8694417361986609	3973114.1629806287
0.8696590966327107	3981154.07227284
0.869876511406869	3989195.9915423747
0.8700939805347206	3997239.921291723
0.8703115040298544	4006061.0345930182
0.870529081905862	4015770.599668665
0.8707467141763385	4025482.592135577
0.8709644008548827	4035197.012600606
0.8711821419550964	4044913.8616707446
0.8713999374905854	4054714.492658337
0.871617787474958	4064798.350215426
0.8718356919218269	4074884.7287369133
0.8720536508448075	4084973.628853032
0.8722716642575187	4095065.0511941737
0.8724897321735832	4105158.996390905
0.8727078546066265	4116581.8317608177
0.8729260315702784	4128027.7012278954
0.873144263078171	4139476.4321623277
0.8733625491439405	4150928.025279495
0.8735808897812266	4162382.481294946
0.8737992850036719	4169581.047794301
0.874017734824923	4175273.0336023127
0.8742362392586293	4180966.4424067736
0.874454798318444	4186661.274563436
0.8746734120180236	4192357.5304281362
0.8748920803710283	4199314.411102464
0.875110803391121	4207538.407761224
0.8753295810919689	4215764.460419151
0.875548413487242	4223992.5695902435
0.8757673005906139	4232222.735788629
0.8759862424157616	4242908.292225071
0.8762052389763657	4260695.353987405
0.8764242902861098	4278486.862515167
0.8766433963586814	4296282.818920067
0.8768625572077712	4314083.224314072
0.8770817728470732	4331761.454232495
0.8773010432902849	4339557.498167934
0.8775203685511077	4347355.491114368
0.8777397486432454	4355155.433559028
0.8779591835804065	4362957.32598931
0.8781786733763015	4370761.168892688
0.8783982180446457	4371680.749150467
0.878617817599157	4370552.039468623
0.8788374720535569	4369423.047609358
0.8790571814215703	4368293.773502129
0.8792769457169257	4367164.217076374
0.879496764953355	4366460.098604237
0.8797166391445934	4366138.554652407
0.8799365683043796	4365816.930314588
0.8801565524464557	4365495.225570685
0.8803765915845676	4365173.440400597
0.8805966857324639	4368901.975291217
0.880816834903897	4382804.834128803
0.881037039112623	4396711.168681105
0.8812572983724012	4410620.979817043
0.8814776126969944	4424534.268405771
0.8816979821001687	4438055.528880323
0.8819184065956938	4442269.881587854
0.8821388861973429	4446485.287883565
0.8823594209188923	4450701.748030846
0.882580010774122	4454919.262293162
0.8828006557768155	4459137.830934046
0.8830213559407598	4471024.163443105
0.8832421112797452	4484841.722728234
0.8834629218075651	4498662.736403174
0.8836837875380171	4512487.205331538
0.8839047084849018	4526315.130377135
0.884125684662023	4534023.454320526
0.8843467160831886	4536826.856295519
0.8845678027622095	4539630.959121004
0.8847889447129001	4542435.762972197
0.8850101419490785	4545241.268024352
0.8852313944845657	4553789.337089222
0.885452702333187	4574907.77623928
0.8856740655087704	4596031.494999121
0.8858954840251476	4617160.494688647
0.8861169578961539	4638294.776628085
0.886338487135628	4656662.092378479
0.886560071757412	4638142.544584212
0.8867817117753515	4619618.366902996
0.8870034072032955	4601089.558177351
0.8872251580550963	4582556.117249547
0.8874469643446101	4564018.042961499
0.8876688260856963	4573604.156140311
0.8878907432922178	4589014.286049209
0.8881127159780409	4604428.268490573
0.8883347441570356	4619846.104427568
0.8885568278430749	4635267.79482353
0.8887789670500358	4647518.967927075
0.8890011617917983	4657521.387481652
0.8892234120822464	4667526.3076411225
0.8894457179352669	4677533.729030624
0.8896680793647509	4687543.652275481
0.8898904963845921	4689108.283441707
0.8901129690086883	4674554.691375908
0.8903354972509405	4659997.460912098
0.8905580811252535	4645436.5911406595
0.8907807206455347	4630872.081151798
0.8910034158256963	4614951.932796866
0.8912261666796527	4586945.053935193
0.8914489732213227	4558931.173353799
0.8916718354646282	4530910.289302231
0.8918947534234944	4502882.400029677
0.8921177271118502	4474847.503784822
0.8923407565436284	4413321.130375552
0.8925638417327644	4346317.148084803
0.8927869826931977	4279296.414798458
0.8930101794388711	4212258.926328797
0.8932334319837308	4145204.678487028
0.8934567403417267	4099444.0247687297
0.8936801045268123	4066913.8096388145
0.8939035245529441	4034375.4619551394
0.8941270004340824	4001828.9796845303
0.894350532184191	3969274.360793362
0.8945741198172371	3992293.163675311
0.8947977633471915	4107493.1092522345
0.8950214627880284	4222721.854815547
0.8952452181537254	4337979.407565183
0.8954690294582639	4453265.774703074
0.8956928967156286	4557595.375190807
0.8959168199398075	4590658.503766469
0.8961407991447926	4623729.898124284
0.8963648343445789	4656809.560330687
0.896588925553165	4689897.492452624
0.8968130727845534	4722993.696557595
0.8970372760527496	4727928.216716611
0.8972615353717629	4729339.34146933
0.8974858507556059	4730750.8190032365
0.8977102222182949	4732162.649406526
0.8979346497738496	4733574.832767418
0.8981591334362931	4778618.155653166
0.8983836732196523	4847533.390580545
0.8986082691379572	4916465.854316612
0.8988329212052417	4985415.551168613
0.8990576294355432	5054382.485444886
0.8992823938429022	5102254.9947082745
0.8995072144413631	5118749.106528923
0.8997320912449734	5135247.34187752
0.8999570242677847	5151749.701784952
0.9001820135238516	5168256.18728236
0.9004070590272328	5183918.940090394
0.9006321607919896	5195140.840821179
0.9008573188321878	5206365.547027159
0.9010825331618959	5217593.059409684
0.9013078037951865	5228823.378670307
0.9015331307461353	5240056.505510739
0.9017585140288219	5252824.24713978
0.9019839536573292	5265727.119169104
0.9022094496457435	5278633.216916427
0.9024350020081551	5291542.541188201
0.9026606107586572	5304455.092791039
0.902886275911347	5331231.984349151
0.9031119974803249	5364697.590848765
0.9033377754796951	5398171.563750005
0.903563609923565	5431653.905144456
0.903789500826046	5465144.617124276
0.9040154482012526	5485087.583557583
0.904241452063303	5487474.768221088
0.9044675124263188	5489862.549680757
0.9046936293044254	5492250.928085792
0.9049198027117517	5494639.903585428
0.9051460326624297	5499234.219169352
0.9053723191705955	5513217.991249132
0.9055986622503881	5527205.259271918
0.9058250619159507	5541196.024111711
0.9060515181814298	5555190.286642723
0.9062780310609752	5569188.047739357
0.9065046005687405	5544482.982368111
0.906731226718883	5517612.429244023
0.9069579095255627	5490735.158481689
0.907184649002944	5463851.168401663
0.907411445165195	5436960.4573240895
0.9076382980264862	5461686.271248451
0.907865207600993	5507857.305776923
0.9080921739028933	5554039.883064013
0.9083191969463691	5600234.005995417
0.9085462767456058	5646439.677457577
0.9087734133147922	5674260.92410596
0.9090006066681211	5680841.545496057
0.909227856819788	5687423.812041494
0.9094551637839932	5694007.7241535755
0.9096825275749393	5700593.282243684
0.9099099482068329	5709686.352640171
0.9101374256938848	5727687.587223568
0.9103649600503083	5745693.322115603
0.9105925512903209	5763703.558441357
0.9108201994281437	5781718.297326212
0.9110479044780008	5799737.539895767
0.9112756664541204	5816764.32997669
0.911503485370734	5833772.556578307
0.9117313612420768	5850785.035236576
0.9119592940823873	5867801.7670145035
0.912187283905908	5884822.752975381
0.9124153307268845	5859064.529940477
0.9126434345595664	5817771.97059048
0.9128715954182063	5776469.088100684
0.9130998133170609	5735155.879890245
0.9133280882703902	5693832.343377757
0.913556420292458	5686089.962181611
0.9137848093975312	5712989.04110036
0.9140132555998806	5739894.844788836
0.9142417589137806	5766807.374928236
0.9144703193535092	5793726.633200188
