#wavelength	surface flux
0.7	284248457.88916314
0.7001166666666666	292521257.55208427
0.7002333527777778	293296201.12795854
0.700350058336574	294071273.86109513
0.7004667833462966	294846475.77301955
0.7005835278101878	295621806.8852648
0.7007002917314895	296397267.2193608
0.7008170751134447	297172856.79684573
0.7009338779592968	297948575.6392599
0.7010507002722901	296982908.3044477
0.7011675420556689	293897771.4867588
0.701284403312678	290812120.47960526
0.7014012840465635	287725955.1972795
0.7015181842605713	284639275.5540739
0.701635103957948	281552081.4642633
0.701752043141941	278464372.8421049
0.701869001815798	275376149.6018384
0.7019859799827672	267098879.81729388
0.7021029776460976	255209304.48133695
0.7022199948090387	243317747.54947552
0.7023370314748403	231424208.69146413
0.7024540876467528	219528687.57697827
0.702571163328027	207631183.87565956
0.7026882585219152	195731697.25702554
0.7028053732316688	183830227.39063895
0.7029225074605406	181673818.6744772
0.7030396612117841	183280831.5374371
0.7031568344886527	184888112.23587444
0.7032740272944008	186495660.81442717
0.7033912396322832	188103477.31774384
0.7035084715055552	189711561.79047608
0.7036257229174727	191319914.27728775
0.7037429938712924	192928534.82284874
0.7038602843702709	197624299.33975083
0.7039775944176659	202844403.220519
0.7040949240167356	208065377.11860278
0.7042122731707383	213287221.17900017
0.7043296418829335	218509935.54674384
0.7044470301565806	223733520.3668813
0.70456443799494	228957975.78448477
0.7046818654012724	234183301.944661
0.7047993123788394	235103866.01903835
0.7049167789309024	236019642.61584997
0.7050342650607243	236935571.84209582
0.7051517707715678	237851653.7232123
0.7052692960666963	238767888.28464183
0.705386840949374	239684275.5518312
0.7055044054228656	240600815.55023327
0.7056219894904361	241153221.29309198
0.7057395931553511	239390713.92108342
0.705857216420877	237627912.79784483
0.7059748592902804	235864817.87442002
0.7060925217668288	234101429.1018395
0.70621020385379	232337746.43113056
0.7063279055544321	230573769.81331202
0.7064456268720246	228809499.19938785
0.7065633678098366	228014751.5577551
0.7066811283711383	229890765.30808914
0.7067989085592001	231767091.72738156
0.7069167083772933	233643730.86774263
0.7070345278286895	235520682.78129503
0.707152366916661	237397947.5201667
0.7072702256444803	239275525.13649267
0.7073881040154211	241153415.68242392
0.7075060020327569	241499025.66476917
0.7076239196997625	239612704.67773426
0.7077418570197124	237726069.30387005
0.7078598139958823	235839119.490777
0.7079777906315483	233951855.18604657
0.7080957869299869	232064276.3372668
0.7082138028944751	230176382.89201325
0.7083318385282908	228288174.79785076
0.7084498938347124	228806177.7324234
0.708567968817018	231364568.68766573
0.7086860634784875	233923386.04140356
0.7088041778224007	236482629.86470243
0.7089223118520377	239042300.22863513
0.7090404655706796	241602397.20429367
0.709158638981608	244162920.8627845
0.709276832088105	246723871.27521887
0.7093950448934531	247697282.36477965
0.7095132774009353	247913537.50255695
0.7096315296138355	248129828.6828573
0.7097498015354378	248346155.91168764
0.7098680931690269	248562519.1950559
0.7099864045178884	248778918.53897166
0.7101047355853081	248995353.9494447
0.7102230863745722	249211825.43248603
0.7103414568889679	244869880.10150886
0.7104598471317828	239491423.2185775
0.7105782571063047	234112069.92616972
0.7106966868158224	228731820.07488012
0.710815136263625	223350673.51528308
0.7109336054530023	217968630.0979227
0.7110520943872445	212585689.673328
0.7111706030696424	207201852.09199268
0.7112891315034873	206597677.51488465
0.7114076796920712	206221496.5422672
0.7115262476386865	205845252.87282094
0.7116448353466263	205468946.49609673
0.711763442819184	205092577.40164286
0.711882070059654	204716145.57900622
0.7120007170713306	204339651.01773274
0.7121193838575091	204347534.16754442
0.7122380704214853	208365034.22419563
0.7123567767665555	212383203.86418548
0.7124755028960166	216402043.19911733
0.7125942488131658	220421552.34060195
0.7127130145213015	224441731.40028787
0.7128318000237216	228462580.48980463
0.7129506053237256	232484099.720842
0.7130694304246129	235126668.483982
0.7131882753296837	232946037.6198977
0.7133071400422386	230765043.31733552
0.7134260245655789	228583685.51572436
0.7135449289030065	226401964.15447897
0.7136638530578235	224219879.17300785
0.7137827970333332	222037430.51070333
0.7139017608328388	219854618.1069556
0.7140207444596443	218512924.5913695
0.7141397479170543	218672129.06380868
0.7142587712083737	218831360.0703264
0.7143778143369084	218990617.61534527
0.7144968773059646	219149901.7032884
0.7146159601188489	219309212.33857945
0.7147350627788687	219468549.52564305
0.7148541852893318	219627913.26890445
0.7149733276535467	221613692.5053858
0.7150924898748222	225441492.48254558
0.715211671956468	229269930.42636904
0.7153308739017941	233099006.4431861
0.715450095714111	236928720.63933748
0.71556933739673	240759073.12118876
0.7156885989529628	244590063.99511987
0.7158078803861218	248421693.36753565
0.7159271816995193	245267723.46685824
0.7160465028964692	238012742.130779
0.7161658439802853	230756551.631144
0.7162852049542819	223499151.76642707
0.7164045858217744	216240542.33506155
0.716523986586078	208980723.13546056
0.7166434072505089	201719693.9659966
0.716762847818384	194457454.62500176
0.7168823082930204	190712958.1705402
0.7170017886777359	188003098.7071099
0.7171212889758488	185292787.60043746
0.7172408091906781	182582024.7752464
0.7173603493255433	179870810.15625033
0.7174799093837642	177159143.6681526
0.7175994893686615	174447025.23563907
0.7177190892835562	171734454.78338796
0.7178387091317702	177969727.471987
0.7179583489166254	185104294.95100698
0.7180780086414448	192240051.52461234
0.7181976883095517	199376997.39097974
0.7183173879242699	206515132.74832553
0.718437107488924	213654457.79489923
0.7185568470068389	220794972.7289834
0.7186766064813399	227753964.9009866
0.7187963859157535	230145893.04252768
0.7189161853134061	232538219.83875886
0.719036004677625	234930945.35612303
0.7191558440117378	237324069.66107193
0.7192757033190732	239717592.82007498
0.7193955826029597	242111514.8996017
0.7195154818667269	244505835.9661437
0.7196354011137046	246014245.14001757
0.7197553403472235	243442171.69044277
0.7198752995706147	240869669.56196085
0.7199952787872098	238296738.68312237
0.720115278000341	235723378.9824709
0.7202352972133411	233149590.3885356
0.7203553364295432	230575372.82983857
0.7204753956522815	228000726.23487806
0.7205954748848902	225715454.6951541
0.7207155741307044	224068712.14323
0.7208356933930594	222421695.1342168
0.7209558326752915	220774403.6223683
0.7210759919807375	219126837.56193236
0.7211961713127342	217478996.90715516
0.7213163706746197	215830881.61226618
0.7214365900697322	214182491.63149643
0.7215568295014103	212019166.37139976
0.721677088972994	209241403.82248184
0.7217973684878227	206463178.31314376
0.7219176680492374	203684489.76621747
0.7220379876605789	200905338.10453507
0.722158327325189	198125723.25090802
0.7222786870464099	195345645.12814012
0.7223990668275843	192565103.6590173
0.7225194666720555	189431641.29629606
0.7226398865831676	186047861.25710455
0.7227603265642646	182663517.2545813
0.722880786618692	179278609.194717
0.7230012667497951	175893136.98351172
0.7231217669609201	172507100.52693743
0.7232422872554135	169120499.73095673
0.7233628276366229	165733334.5015042
0.7234833881078956	165727223.61062312
0.7236039686725803	167004981.88199544
0.7237245693340255	168282953.11307764
0.7238451900955812	169561137.33936736
0.7239658309605971	170839534.59636
0.7240864919324239	172118144.9195638
0.7242071730144127	173396968.34448823
0.724327874209915	174676004.90664747
0.7244485955222832	174626350.3805632
0.7245693369548704	174356964.4864065
0.7246900985110294	174087533.69460118
0.7248108801941148	173818057.99766317
0.7249316820074803	173548537.3881099
0.7250525039544815	173278971.8584546
0.7251733460384739	173009361.401211
0.7252942082628137	172746582.3519205
0.7254150906308574	176468130.45086455
0.7255359931459625	180190298.80782548
0.7256569158114868	183913087.5261804
0.7257778586307888	187636496.70932353
0.7258988216072273	191360526.46066278
0.7260198047441617	195085176.88362312
0.7261408080449525	198810448.08166033
0.72626183151296	201664452.03023756
0.7263828751515454	198724734.78488255
0.7265039389640706	195784527.5866539
0.726625022953898	192843830.35389036
0.7267461271243904	189902643.00492
0.7268672514789111	186960965.45806006
0.7269883960208241	184018797.63161156
0.7271095607534942	181076139.44385666
0.7272307456802866	178159221.980187
0.7273519508045666	175312675.07749912
0.7274731761297006	172465653.75032884
0.7275944216590555	169618157.9196041
0.7277156873959987	166770187.50623986
0.7278369733438982	163921742.4311355
0.727958279506122	161072822.6151929
0.7280796058860397	158223427.97927746
0.7282009524870207	157672671.9792734
0.7283223193124353	160522469.1338739
0.7284437063656539	163372741.25466102
0.7285651136500483	166223488.42080623
0.7286865411689898	169074710.7114733
0.7288079889258514	171926408.20586234
0.7289294569240056	174778580.98316056
0.7290509451668262	177631229.1225916
0.7291724536576875	179686935.34394243
0.7292939823999636	181082238.06053078
0.7294155313970303	182477773.32757473
0.7295371006522632	183873541.18382943
0.7296586901690385	185269541.6680591
0.7297802999507332	186665774.81903553
0.7299019300007252	188062240.67554075
0.7300235803223919	189458939.2763516
0.7301452509191123	188710167.69622096
0.7302669417942654	186970880.3853713
0.7303886529512311	185231303.1933026
0.7305103843933897	183491436.07170147
0.7306321361241218	181751278.97224808
0.7307539081468093	180010831.84660834
0.7308757004648336	178270094.64645138
0.7309975130815778	176529067.32342565
0.7311193460004248	175952717.6168739
0.7312411992247582	175640005.68715635
0.7313630727579622	175327241.63878393
0.7314849666034219	175014425.4630698
0.7316068807645224	174701557.1513266
0.7317288152446498	174388636.6948646
0.7318507700471907	174075664.08499303
0.7319727451755319	173762639.31301996
0.732094740633061	173465113.08357903
0.7322167564231665	173168237.36447176
0.7323387925492371	172871312.16607797
0.7324608490146619	172574337.48015118
0.732582925822831	172277313.29844332
0.7327050229771347	171980239.61270553
0.7328271404809642	171683116.41468647
0.7329492783377112	171208751.04496416
0.7330714365507675	168992315.32948056
0.7331936151235259	166775510.20804492
0.7333158140593796	164558335.61909157
0.7334380333617229	162340791.50103667
0.7335602730339499	160122877.79229444
0.7336825330794556	157904594.4312669
0.7338048135016354	155685941.35635018
0.7339271143038857	153480672.56559908
0.734049435489603	151321121.761198
0.7341717770621846	149161211.03166246
0.7342941390250283	147000940.31700644
0.7344165213815324	144840309.5572321
0.734538924135096	142679318.692328
0.7346613472891185	140517967.6622826
0.734783790847	138356256.40706474
0.7349062548121412	136758676.225839
0.7350287391879431	136158591.3128883
0.7351512439778078	135558406.38578418
0.7352737691851374	134958121.42785963
0.735396314813335	134357736.42244154
0.7355188808658037	133757251.35285689
0.7356414673459482	133156666.20242608
0.7357640742571725	132555980.95447062
0.7358867016028818	132796602.03883657
0.7360093493864824	133868227.97099298
0.7361320176113801	134940032.50746995
0.736254706280982	136012015.67803636
0.7363774153986956	137084177.51246592
0.7365001449679286	138156518.04053232
0.7366228949920899	139229037.29202098
0.7367456654745885	140301735.2967182
0.7368684564188344	139778146.28460652
0.7369912678282374	138352181.18225396
0.7371140997062088	136925978.41905046
0.7372369520561599	135499537.95538503
0.7373598248815024	134072859.75164557
0.7374827181856494	132645943.76820306
0.7376056319720137	131218789.9654299
0.7377285662440091	129791398.30368938
0.7378515210050496	127288971.08673106
0.7379744962585505	124462752.88062967
0.738097492007927	121636063.63816132
0.7382205082565949	118808903.28082097
0.738343545007971	115981271.73008828
0.7384666022654723	113153168.90742762
0.7385896800325165	110324594.7343008
0.7387127783125219	107495549.13214156
0.7388358971089073	108774218.05850048
0.7389590364250921	110465161.35255788
0.7390821962644963	112156386.4704989
0.7392053766305403	113847893.45929044
0.7393285775266454	115539682.36591467
0.7394517989562333	117231753.2373583
0.7395750409227259	118924106.12061112
0.7396983034295463	120528207.91183652
0.739821586480118	120163091.22563806
0.7399448900778645	119797913.68665929
0.7400682142262109	119432675.28475624
0.740191558928582	119067376.0097866
0.7403149241884034	118702015.85160476
0.7404383100091014	118336594.80006312
0.7405617163941028	117971112.84501313
0.7406851433468352	117328233.06574336
0.7408085908707264	115416496.47103143
0.7409320589692048	113504441.25355463
0.7410555476456997	111592067.36020671
0.7411790569036406	109679374.73787796
0.7413025867464579	107766363.33344495
0.7414261371775823	105853033.09377733
0.7415497082004452	103939383.96573791
0.7416732998184786	102480172.04154804
0.741796912035115	101996258.38193592
0.7419205448537874	101512264.07004732
0.7420441982779297	101028189.09244008
0.742167872310976	100544033.43566947
0.7422915669563612	100059797.0862894
0.7424152822175206	99575480.03085124
0.7425390180978901	99091082.25590414
0.7426627746009065	98644635.71391335
0.7427865517300065	98244478.45402417
0.7429103494886282	97844254.5012579
0.7430341678802096	97443963.84449981
0.7431580069081896	97043606.4726323
0.7432818665760077	96643182.37453558
0.7434057468871037	96242691.5390895
0.7435296478449182	95842133.95517108
0.7436535694528923	94697392.56590165
0.7437775117144678	93043089.44420744
0.7439014746330868	91388510.6053288
0.7440254582121922	89733656.00330889
0.7441494624552276	88078525.592188
0.7442734873656368	86423119.32599895
0.7443975329468645	84767437.15876418
0.7445215992023557	83111479.04450175
0.7446456861355559	81617829.66543575
0.7447697937499119	80183823.24173316
0.7448939220488703	78749577.81696028
0.7450180710358784	77315093.35128453
0.7451422407143843	75880369.80486433
0.7452664310878367	74445407.13785173
0.7453906421596846	73010205.31039615
0.7455148739333779	71574764.28263554
0.7456391264123667	71200462.38996276
0.7457633996001021	70995806.64680046
0.7458876935000356	70791116.79434724
0.7460120081156189	70586392.82691902
0.7461363434503048	70381634.73882945
0.7462606995075466	70176842.5243917
0.7463850762907978	69972016.1779185
0.7465094738035127	69767042.53832185
0.7466338920491467	69532433.91352333
0.746758331031155	69297786.1872871
0.7468827907529935	69063099.35309678
0.7470072712181189	68828373.4044341
0.7471317724299886	68593608.33477992
0.7472562943920602	68358804.1376143
0.7473808371077922	68123960.8064156
0.7475054005806435	67816511.38668106
0.7476299848140736	67062026.78476341
0.7477545898115426	66307416.43541194
0.7478792155765113	65552680.31766872
0.7480038621124406	64797818.410573155
0.7481285294227926	64042830.6931599
0.7482532175110298	63287717.14445962
0.7483779263806148	62532477.743502274
0.7485026560350116	61755142.22142186
0.7486274064776842	60918215.49030831
0.748752177712097	60081149.27140776
0.7488769697417158	59243943.54146894
0.749001782570006	58406598.27724282
0.7491266162004343	57569113.4554729
0.7492514706364677	56731489.05289897
0.7493763458815739	55893725.04625711
0.7495012419392209	55077132.250934064
0.7496261588128773	54291040.2269808
0.7497510965060128	53504817.18768966
0.7498760550220971	52718463.1112256
0.7500010343646007	51931977.97574867
0.7501260345369949	51145361.75941544
0.750251055542751	50358614.44038038
0.7503760973853414	49571735.99679166
0.7505011600682389	48784979.91009066
0.750626243594917	47998304.366828196
0.7507513479688495	47211497.710976385
0.7508764731935109	46424559.92068166
0.7510016192723765	45637490.974088356
0.7511267862089218	44850290.84933802
0.7512519740066232	44062959.524566606
0.7513771826689577	43275496.977907285
0.7515024121994025	42563013.35836106
0.7516276626014359	41885431.57416433
0.751752933878536	41207736.85967142
0.7518782260341824	40529929.196059205
0.7520035390718548	39852008.564502746
0.7521288729950334	39173974.94617472
0.7522542278071992	38495828.32224358
0.7523796035118337	37817568.67387479
0.7525050001124189	37156668.109874964
0.7526304176124378	36499457.1927886
0.7527558560153731	35842136.740550235
0.752881315324709	35184706.73490253
0.7530067955439299	34527167.15758698
0.7531322966765205	33869517.99034274
0.7532578187259665	33211759.214903776
0.7533833616957542	32553890.813002255
0.75350892558937	31904935.21076546
0.7536345104103016	31256295.71038278
0.7537601161620366	30607548.103417035
0.7538857428480638	29958692.371849503
0.7540113904718717	29309728.49766088
0.7541370590369503	28660656.462826703
0.7542627485467898	28011476.249319643
0.7543884590048808	27373840.0332055
0.7545141904147151	26852294.5442394
0.7546399427797842	26330662.13102598
0.7547657161035808	25808942.779076945
0.754891510389598	25287136.473902613
0.7550173256413296	24765243.20101054
0.7551431618622698	24243262.94590644
0.7552690190559135	23721195.694093276
0.7553948972257561	23195211.943857186
0.7555207963752938	22656286.38281828
0.755646716508023	22117271.000852846
0.755772657627441	21578165.782990232
0.7558986197370455	21038970.714257892
0.756024602840335	20499685.779680904
0.7561506069408084	19960310.964281492
0.7562766320419653	19420846.253079027
0.7564026781473054	18900273.589935895
0.75652874526033	18413017.348011844
0.7566548333845401	17925679.89671389
0.7567809425234375	17438261.22250756
0.7569070726805247	16950761.311855804
0.7570332238593047	16463180.151219007
0.7571593960632813	15975517.727054968
0.7572855892959586	15487774.025820212
0.7574118035608413	15045104.371036764
0.7575380388614347	14646537.877893802
0.7576642952012449	14247904.957001833
0.7577905725837782	13849205.59729029
0.7579168710125422	13450439.787684754
0.7580431904910444	13051607.517110797
0.7581695310227928	12652708.77449225
0.7582958926112967	12253743.548749432
0.7584222752600652	11878132.737811511
0.7585486789726085	11515913.743457774
0.7586751037524372	11153634.379271507
0.7588015496030628	10791294.635190502
0.7589280165279966	10428894.501152866
0.7590545045307512	10066433.967092892
0.7591810136148396	9703913.022943914
0.7593075437837755	9341331.658637045
0.7594340950410726	9019797.611629054
0.7595606673902461	8710136.83655423
0.7596872608348112	8400424.451349914
0.7598138753782836	8090660.447415073
0.75994051102418	7780844.816145954
0.7600671677760173	7470977.548938531
0.7601938456373134	7161058.637186337
0.7603205446115863	6851088.072282359
0.7604472647023548	6585496.699951191
0.7605740059131385	6324277.484004463
0.7607007682474575	6063014.731521489
0.7608275517088319	5801708.435247015
0.7609543563007835	5540358.5879225815
0.7610811820268336	5278965.182290418
0.7612080288905045	5017528.211091151
0.7613348968953197	4757962.106138984
0.7614617860448022	4537632.802847166
0.7615886963424764	4317266.778004497
0.7617156277918667	4096864.0254912362
0.7618425803964988	3876424.5391857075
0.7619695541598982	3655948.312965853
0.7620965490855914	3435435.340708459
0.7622235651771058	3214885.616288766
0.7623506024379685	3005013.9470576383
0.7624776608717082	2842071.4962952696
0.7626047404818536	2679101.8884577667
0.7627318412719337	2516105.119019237
0.762858963245479	2353081.1834523655
0.7629861064060198	2190030.077229551
0.7631132707570876	2026951.7958221973
0.7632404563022137	1863846.334701422
0.7633676630449308	1715033.1666803446
0.7634948909887717	1596676.6093834196
0.7636221401372697	1478300.3259937656
0.7637494104939593	1359904.3132234353
0.7638767020623748	1241488.5677844808
0.7640040148460518	1123053.0863878182
0.7641313488485262	1004597.8657442606
0.7642587040733344	886122.9025637946
0.7643860805240132	787083.5080153523
0.7645134782041005	711243.6291838865
0.7646408971171346	635391.1103725838
0.764768337266654	559525.9494748404
0.7648957986561985	483648.1443835895
0.7650232812893079	407757.6929915002
