#wavelength	surface flux
0.7	91605.99337995797
0.7001166666666666	91899.54458565483
0.7002333527777778	91955.27764069129
0.700350058336574	92011.01998457023
0.7004667833462966	92066.77161883973
0.7005835278101878	92122.53254504844
0.7007002917314895	92178.30276474476
0.7008170751134447	92234.08227947769
0.7009338779592968	92289.87109079638
0.7010507002722901	92129.89482199047
0.7011675420556689	91707.30881743782
0.701284403312678	91284.6523818851
0.7014012840465635	90861.92550359252
0.7015181842605713	90439.12817082029
0.701635103957948	90016.26037182623
0.701752043141941	89593.32209486575
0.701869001815798	89170.31332819184
0.7019859799827672	89013.19012376454
0.7021029776460976	89041.13117709287
0.7022199948090387	89069.07688726347
0.7023370314748403	89097.0272550524
0.7024540876467528	89124.98228123596
0.702571163328027	89152.94196659052
0.7026882585219152	89180.9063118927
0.7028053732316688	89208.87531791905
0.7029225074605406	89752.90390739507
0.7030396612117841	90496.29564055103
0.7031568344886527	91239.81127232933
0.7032740272944008	91983.4508233791
0.7033912396322832	92727.21431435445
0.7035084715055552	93471.10176591088
0.7036257229174727	94215.11319870951
0.7037429938712924	94959.24863341432
0.7038602843702709	95493.43772358054
0.7039775944176659	95992.08637373915
0.7040949240167356	96490.8181320063
0.7042122731707383	96989.63301223292
0.7043296418829335	97488.53102827318
0.7044470301565806	97987.51219398271
0.70456443799494	98486.57652321947
0.7046818654012724	98985.72402984473
0.7047993123788394	99242.60469750008
0.7049167789309024	99499.25007118502
0.7050342650607243	99755.93821909928
0.7051517707715678	100012.66914837142
0.7052692960666963	100269.44286613163
0.705386840949374	100526.25937951138
0.7055044054228656	100783.11869564376
0.7056219894904361	100976.4701477239
0.7057395931553511	100765.99605744335
0.705857216420877	100555.48688814758
0.7059748592902804	100344.94263399037
0.7060925217668288	100134.36328912394
0.70621020385379	99923.74884770006
0.7063279055544321	99713.09930386955
0.7064456268720246	99502.4146517814
0.7065633678098366	99363.11006996271
0.7066811283711383	99420.46099806596
0.7067989085592001	99477.82148465722
0.7069167083772933	99535.19153132955
0.7070345278286895	99592.57113967635
0.707152366916661	99649.96031129122
0.7072702256444803	99707.35904776797
0.7073881040154211	99764.76735070086
0.7075060020327569	99957.73251659123
0.7076239196997625	100348.1337890842
0.7077418570197124	100738.60012845554
0.7078598139958823	101129.13154555007
0.7079777906315483	101519.72805121451
0.7080957869299869	101910.38965629625
0.7082138028944751	102301.1163716453
0.7083318385282908	102691.90820811386
0.7084498938347124	102578.802655264
0.708567968817018	102038.40852840022
0.7086860634784875	101497.92433584803
0.7088041778224007	100957.35006259663
0.7089223118520377	100416.68569363374
0.7090404655706796	99875.93121394301
0.709158638981608	99335.08660850502
0.709276832088105	98794.15186229936
0.7093950448934531	98922.1759132471
0.7095132774009353	99369.2979649093
0.7096315296138355	99816.49453691363
0.7097498015354378	100263.76564167981
0.7098680931690269	100711.11129162971
0.7099864045178884	101158.5314991885
0.7101047355853081	101606.02627678178
0.7102230863745722	102053.5956368377
0.7103414568889679	102427.89449846621
0.7104598471317828	102785.59001002528
0.7105782571063047	103143.34513750266
0.7106966868158224	103501.15989083462
0.710815136263625	103859.03427995872
0.7109336054530023	104216.96831481457
0.7110520943872445	104574.96200534276
0.7111706030696424	104933.01536148626
0.7112891315034873	104932.19556898948
0.7114076796920712	104914.2499211045
0.7115262476386865	104896.30128227823
0.7116448353466263	104878.34965201217
0.711763442819184	104860.39502980771
0.711882070059654	104842.4374151662
0.7120007170713306	104824.47680758893
0.7121193838575091	104809.77870104474
0.7122380704214853	104829.13641623265
0.7123567767665555	104848.49735770642
0.7124755028960166	104867.86152600378
0.7125942488131658	104887.22892166249
0.7127130145213015	104906.59954522055
0.7128318000237216	104925.9733972158
0.7129506053237256	104945.35047818642
0.7130694304246129	104950.33533127158
0.7131882753296837	104904.98942485065
0.7133071400422386	104859.63596077863
0.7134260245655789	104814.27493779597
0.7135449289030065	104768.9063546428
0.7136638530578235	104723.5302100591
0.7137827970333332	104678.1465027846
0.7139017608328388	104632.7552315589
0.7140207444596443	104573.9778095327
0.7141397479170543	104491.32452238159
0.7142587712083737	104408.65745968273
0.7143778143369084	104325.97661914001
0.7144968773059646	104243.2819984572
0.7146159601188489	104160.57359533761
0.7147350627788687	104077.85140748418
0.7148541852893318	103995.11543259947
0.7149733276535467	103702.03152744078
0.7150924898748222	103196.8025284763
0.715211671956468	102691.48932467857
0.7153308739017941	102186.09190201314
0.715450095714111	101680.61024644418
0.71556933739673	101175.04434393255
0.7156885989529628	100669.39418043723
0.7158078803861218	100163.65974191391
0.7159271816995193	98857.82702822011
0.7160465028964692	97082.21837754034
0.7161658439802853	95306.31379208551
0.7162852049542819	93530.11322253343
0.7164045858217744	91753.61661955202
0.716523986586078	89976.82393380417
0.7166434072505089	88199.73511594294
0.716762847818384	86422.35011661141
0.7168823082930204	85594.19078675918
0.7170017886777359	85045.23873264143
0.7171212889758488	84496.19518651502
0.7172408091906781	83947.06013313076
0.7173603493255433	83397.83355723743
0.7174799093837642	82848.51544358175
0.7175994893686615	82299.10577690692
0.7177190892835562	81749.60454195454
0.7178387091317702	83785.5617605129
0.7179583489166254	86081.40324456544
0.7180780086414448	88377.62736886714
0.7181976883095517	90674.23419718945
0.7183173879242699	92971.22379331672
0.718437107488924	95268.59622104387
0.7185568470068389	97566.35154417652
0.7186766064813399	99762.89261957511
0.7187963859157535	99419.64571000978
0.7189161853134061	99076.3415926262
0.719036004677625	98732.98025788969
0.7191558440117378	98389.56169626427
0.7192757033190732	98046.08589821143
0.7193955826029597	97702.55285419266
0.7195154818667269	97358.96255466626
0.7196354011137046	96958.71457013965
0.7197553403472235	96297.80142679364
0.7198752995706147	95636.77813125735
0.7199952787872098	94975.64466517135
0.720115278000341	94314.40101017436
0.7202352972133411	93653.04714790145
0.7203553364295432	92991.58305998583
0.7204753956522815	92330.00872805461
0.7205954748848902	92041.83244607494
0.7207155741307044	92577.05436634105
0.7208356933930594	93112.3654902596
0.7209558326752915	93647.76583269895
0.7210759919807375	94183.2554085294
0.7211961713127342	94718.8342326218
0.7213163706746197	95254.5023198524
0.7214365900697322	95790.25968509699
0.7215568295014103	95763.92316526265
0.721677088972994	95066.80301764102
0.7217973684878227	94369.56668332929
0.7219176680492374	93672.21414296102
0.7220379876605789	92974.74537716978
0.722158327325189	92277.16036658396
0.7222786870464099	91579.4590918301
0.7223990668275843	90881.64153353014
0.7225194666720555	90297.26946408952
0.7226398865831676	89793.28408414869
0.7227603265642646	89289.21470664574
0.722880786618692	88785.06131757879
0.7230012667497951	88280.82390294733
0.7231217669609201	87776.5024487467
0.7232422872554135	87272.09694097082
0.7233628276366229	86767.60736560944
0.7234833881078956	87108.98902240657
0.7236039686725803	87771.60416184917
0.7237245693340255	88434.32973714729
0.7238451900955812	89097.16576670918
0.7239658309605971	89760.1122689419
0.7240864919324239	90423.1692622592
0.7242071730144127	91086.33676507542
0.724327874209915	91749.61479580739
0.7244485955222832	89964.27859276622
0.7245693369548704	87773.76887933393
0.7246900985110294	85582.89408095262
0.7248108801941148	83391.65413676578
0.7249316820074803	81200.0489859289
0.7250525039544815	79008.07856756328
0.7251733460384739	76815.74282079427
0.7252942082628137	74628.43858926813
0.7254150906308574	75567.90722901307
0.7255359931459625	76507.53244686473
0.7256569158114868	77447.31426891965
0.7257778586307888	78387.25272127872
0.7258988216072273	79327.34783004624
0.7260198047441617	80267.59962133085
0.7261408080449525	81208.00812124895
0.72626183151296	82026.30385264945
0.7263828751515454	82032.18496464279
0.7265039389640706	82038.06705682146
0.726625022953898	82043.95012934881
0.7267461271243904	82049.83418238827
0.7268672514789111	82055.71921610323
0.7269883960208241	82061.60523065714
0.7271095607534942	82067.49222621346
0.7272307456802866	82057.54401965029
0.7273519508045666	82004.81680157015
0.7274731761297006	81952.08079562036
0.7275944216590555	81899.33600033626
0.7277156873959987	81846.58241425292
0.7278369733438982	81793.82003590514
0.727958279506122	81741.04886382777
0.7280796058860397	81688.268896555
0.7282009524870207	81236.3222302904
0.7283223193124353	80193.90125186178
0.7284437063656539	79151.30653660557
0.7285651136500483	78108.53805556176
0.7286865411689898	77065.59577977327
0.7288079889258514	76022.47968026962
0.7289294569240056	74979.18972808513
0.7290509451668262	73935.72589424074
0.7291724536576875	73175.96343624548
0.7292939823999636	72651.29558456098
0.7294155313970303	72126.54028823349
0.7295371006522632	71601.69753269009
0.7296586901690385	71076.7673033545
0.7297802999507332	70551.7495856476
0.7299019300007252	70026.64436498638
0.7300235803223919	69501.4516267898
0.7301452509191123	69625.59396892204
0.7302669417942654	70049.51063903156
0.7303886529512311	70473.49796191957
0.7305103843933897	70897.55594936149
0.7306321361241218	71321.68461313433
0.7307539081468093	71745.88396501855
0.7308757004648336	72170.15401679385
0.7309975130815778	72594.49478024495
0.7311193460004248	73470.67271413647
0.7312411992247582	74449.2708340134
0.7313630727579622	75428.03205357675
0.7314849666034219	76406.95640001101
0.7316068807645224	77386.04390050241
0.7317288152446498	78365.29458224434
0.7318507700471907	79344.70847243375
0.7319727451755319	80324.28559827113
0.732094740633061	79884.7584993196
0.7322167564231665	79381.26227407498
0.7323387925492371	78877.6821327928
0.7324608490146619	78374.01806148721
0.732582925822831	77870.27004616961
0.7327050229771347	77366.43807285003
0.7328271404809642	76862.5221275344
0.7329492783377112	76339.61500144238
0.7330714365507675	75630.74298984981
0.7331936151235259	74921.75283292214
0.7333158140593796	74212.64451096913
0.7334380333617229	73503.4180042947
0.7335602730339499	72794.07329320218
0.7336825330794556	72084.61035799098
0.7338048135016354	71375.02917895863
0.7339271143038857	70978.23270822168
0.734049435489603	71629.80961924892
0.7341717770621846	72281.49512642811
0.7342941390250283	72933.28924785818
0.7344165213815324	73585.19200164155
0.734538924135096	74237.20340588485
0.7346613472891185	74889.32347869467
0.734783790847	75541.55223818353
0.7349062548121412	75660.28323380333
0.7350287391879431	74835.862791679
0.7351512439778078	74011.30494614596
0.7352737691851374	73186.60967430632
0.735396314813335	72361.776953254
0.7355188808658037	71536.80676008285
0.7356414673459482	70711.69907187783
0.7357640742571725	69886.45386572533
0.7358867016028818	69396.31363862836
0.7360093493864824	69237.1739422033
0.7361320176113801	69078.00772249572
0.736254706280982	68918.81497508484
0.7363774153986956	68759.59569554919
0.7365001449679286	68600.34987946728
0.7366228949920899	68441.07752241589
0.7367456654745885	68281.77861997166
0.7368684564188344	68208.2699851115
0.7369912678282374	68183.25095546481
0.7371140997062088	68158.22775597984
0.7372369520561599	68133.20038596158
0.7373598248815024	68108.16884471505
0.7374827181856494	68083.13313154495
0.7376056319720137	68058.09324575597
0.7377285662440091	68033.0491866527
0.7378515210050496	67848.95552689325
0.7379744962585505	67616.97925437661
0.738097492007927	67384.96431914794
0.7382205082565949	67152.91071476355
0.738343545007971	66920.81843477848
0.7384666022654723	66688.6874727465
0.7385896800325165	66456.51782222121
0.7387127783125219	66224.30947675387
0.7388358971089073	66199.43091006635
0.7389590364250921	66195.34777021439
0.7390821962644963	66191.26394983909
0.7392053766305403	66187.17944882708
0.7393285775266454	66183.09426706491
0.7394517989562333	66179.0084044391
0.7395750409227259	66174.92186083618
0.7396983034295463	66156.15411549128
0.739821586480118	65810.80413491488
0.7399448900778645	65465.39659600906
0.7400682142262109	65119.93148917904
0.740191558928582	64774.40880483158
0.7403149241884034	64428.82853337034
0.7404383100091014	64083.1906651971
0.7405617163941028	63737.49519071272
0.7406851433468352	63337.92088603641
0.7408085908707264	62692.060873827344
0.7409320589692048	62046.093218283226
0.7410555476456997	61400.017901462656
0.7411790569036406	60753.834905423086
0.7413025867464579	60107.544212217326
0.7414261371775823	59461.14580389586
0.7415497082004452	58814.63966250683
0.7416732998184786	58203.24498733833
0.741796912035115	57667.30056818879
0.7419205448537874	57131.26682496952
0.7420441982779297	56595.143742793065
0.742167872310976	56058.93130676908
0.7422915669563612	55522.62950200578
0.7424152822175206	54986.23831360849
0.7425390180978901	54449.75772668014
0.7426627746009065	54158.16695434839
0.7427865517300065	54165.17480505634
0.7429103494886282	54172.18382373942
0.7430341678802096	54179.19401059227
0.7431580069081896	54186.2053658096
0.7432818665760077	54193.217889586136
0.7434057468871037	54200.231582116634
0.7435296478449182	54207.24644359588
0.7436535694528923	54070.1139950075
0.7437775117144678	53834.28463551058
0.7439014746330868	53598.41597112076
0.7440254582121922	53362.50799528668
0.7441494624552276	53126.560701456525
0.7442734873656368	52890.57408307745
0.7443975329468645	52654.548133595126
0.7445215992023557	52418.48284645458
0.7446456861355559	52063.4994104199
0.7447697937499119	51664.66501529994
0.7448939220488703	51265.76414778089
0.7450180710358784	50866.796796784256
0.7451422407143843	50467.76295122909
0.7452664310878367	50068.662600032614
0.7453906421596846	49669.495732111376
0.7455148739333779	49270.26233637868
0.7456391264123667	48885.79722719758
0.7457633996001021	48503.640047056564
0.7458876935000356	48121.419174051516
0.7460120081156189	47739.13459756836
0.7461363434503048	47356.78630698894
0.7462606995075466	46974.37429169408
0.7463850762907978	46591.898541063914
0.7465094738035127	46209.45482493367
0.7466338920491467	45852.00300321156
0.746758331031155	45494.49160618548
0.7468827907529935	45136.920623926984
0.7470072712181189	44779.29004650477
0.7471317724299886	44421.59986398625
0.7472562943920602	44063.85006643756
0.7473808371077922	43706.0406439223
0.7475054005806435	43350.46957695858
0.7476299848140736	43008.993968139715
0.7477545898115426	42667.4614467193
0.7478792155765113	42325.872003211894
0.7480038621124406	41984.225628130844
0.7481285294227926	41642.522311987355
0.7482532175110298	41300.76204529082
0.7483779263806148	40958.94481855031
0.7485026560350116	40614.01912546554
0.7486274064776842	40260.77718293988
0.748752177712097	39907.47636675777
0.7488769697417158	39554.11666710555
0.749001782570006	39200.69807417048
0.7491266162004343	38847.22057813669
0.7492514706364677	38493.68416918674
0.7493763458815739	38140.0888375016
0.7495012419392209	37775.80358243895
0.7496261588128773	37396.17429696924
0.7497510965060128	37016.48173995169
0.7498760550220971	36636.72590084144
0.7500010343646007	36256.90676909128
0.7501260345369949	35877.02433415231
0.750251055542751	35497.07858547461
0.7503760973853414	35117.06951250523
0.7505011600682389	34733.74849497472
0.750626243594917	34347.651075777445
0.7507513479688495	33961.48930701089
0.7508764731935109	33575.263177949404
0.7510016192723765	33188.97267786631
0.7511267862089218	32802.61779603357
0.7512519740066232	32416.198521720376
0.7513771826689577	32029.714844194583
0.7515024121994025	31647.990917973788
0.7516276626014359	31268.452668041453
0.751752933878536	30888.85116173479
0.7518782260341824	30509.186388510283
0.7520035390718548	30129.458337823406
0.7521288729950334	29749.666999128276
0.7522542278071992	29369.812361876666
0.7523796035118337	28989.894415518662
0.7525050001124189	28617.554179284998
0.7526304176124378	28246.813639435095
0.7527558560153731	27876.01130949569
0.752881315324709	27505.147179167605
0.7530067955439299	27134.221238150996
0.7531322966765205	26763.233476144713
0.7532578187259665	26392.18388284465
0.7533833616957542	26021.072447945717
0.75350892558937	25666.737236594836
0.7536345104103016	25313.134743806495
0.7537601161620366	24959.473317269538
0.7538857428480638	24605.75294716115
0.7540113904718717	24251.973623658196
0.7541370590369503	23898.13533693474
0.7542627485467898	23544.238077163274
0.7543884590048808	23191.040519860166
0.7545141904147151	22845.34979252382
0.7546399427797842	22499.601450066806
0.7547657161035808	22153.795482886
0.754891510389598	21807.931881377343
0.7550173256413296	21462.010635934967
0.7551431618622698	21116.03173695176
0.7552690190559135	20769.995174818803
0.7553948972257561	20426.07172787262
0.7555207963752938	20089.377478228318
0.755646716508023	19752.627112875936
0.755772657627441	19415.820622462546
0.7558986197370455	19078.957997634036
0.756024602840335	18742.03922903481
0.7561506069408084	18405.064307307483
0.7562766320419653	18068.0332230929
0.7564026781473054	17733.274571263966
0.75652874526033	17402.55784852204
0.7566548333845401	17071.786006326147
0.7567809425234375	16740.959035490006
0.7569070726805247	16410.076926825586
0.7570332238593047	16079.139671143095
0.7571593960632813	15748.14725925101
0.7572855892959586	15417.099681956925
0.7574118035608413	15103.891830851906
0.7575380388614347	14808.138943883923
0.7576642952012449	14512.336764768
0.7577905725837782	14216.485285289318
0.7579168710125422	13920.584497230197
0.7580431904910444	13624.634392372955
0.7581695310227928	13328.634962498609
0.7582958926112967	13032.586199385578
0.7584222752600652	12744.594781988424
0.7585486789726085	12461.212348419487
0.7586751037524372	12177.782684444848
0.7588015496030628	11894.305782192327
0.7589280165279966	11610.78163378999
0.7590545045307512	11327.210231362922
0.7591810136148396	11043.591567035453
0.7593075437837755	10759.925632930179
0.7594340950410726	10493.949470352389
0.7595606673902461	10233.07514505749
0.7596872608348112	9972.157340708112
0.7598138753782836	9711.196050058297
0.75994051102418	9450.191265859798
0.7600671677760173	9189.142980864135
0.7601938456373134	8928.051187820773
0.7603205446115863	8666.915879478716
0.7604472647023548	8420.532237425856
0.7605740059131385	8175.578171435938
0.7607007682474575	7930.583279768116
0.7608275517088319	7685.547555618893
0.7609543563007835	7440.470992181768
0.7610811820268336	7195.353582650885
0.7612080288905045	6950.195320218884
0.7613348968953197	6705.566383445497
0.7614617860448022	6472.595619973343
0.7615886963424764	6239.586028040291
0.7617156277918667	6006.537601175477
0.7618425803964988	5773.4503329059935
0.7619695541598982	5540.324216758527
0.7620965490855914	5307.15924625854
0.7622235651771058	5073.955414929868
0.7623506024379685	4847.108041580596
0.7624776608717082	4648.254269162811
0.7626047404818536	4449.367354449613
0.7627318412719337	4250.447291917639
0.762858963245479	4051.494076041783
0.7629861064060198	3852.5077012965976
0.7631132707570876	3653.488162155414
0.7632404563022137	3454.435453091219
0.7633676630449308	3264.4729971406737
0.7634948909887717	3093.8996310403872
0.7636221401372697	2923.297836045973
0.7637494104939593	2752.667607418899
0.7638767020623748	2582.008940420633
0.7640040148460518	2411.3218303110066
0.7641313488485262	2240.6062723497016
0.7642587040733344	2069.8622617952087
0.7643860805240132	1911.7157992485324
0.7645134782041005	1768.6095882382538
0.7646408971171346	1625.4795261927472
0.764768337266654	1482.3256091369522
0.7648957986561985	1339.1478330949349
0.7650232812893079	1195.9461940902627
0.7651507851695227	1052.7206881457553
0.7652783103003843	909.471311283608
0.7654058566854343	805.5235130397475
0.7655334243282153	728.3597149844079
0.7656610132322699	651.1830562961595
