#wavelength	surface flux
0.7	120454.73812665697
0.7001166666666666	120703.04739662014
0.7002333527777778	120863.54727268728
0.700350058336574	121024.0738987337
0.7004667833462966	121184.62727921759
0.7005835278101878	121345.20741859866
0.7007002917314895	121505.81432133603
0.7008170751134447	121666.4479918905
0.7009338779592968	121827.10843472333
0.7010507002722901	121906.54608664745
0.7011675420556689	121887.12165605804
0.701284403312678	121867.69398806356
0.7014012840465635	121848.2630821244
0.7015181842605713	121828.8289377009
0.701635103957948	121809.39155425337
0.701752043141941	121789.95093124192
0.701869001815798	121770.50706812661
0.7019859799827672	121848.09685775977
0.7021029776460976	121993.23179289784
0.7022199948090387	122138.39091719197
0.7023370314748403	122283.5742346734
0.7024540876467528	122428.78174937441
0.702571163328027	122574.01346532762
0.7026882585219152	122719.2693865672
0.7028053732316688	122864.5495171268
0.7029225074605406	123213.61690265434
0.7030396612117841	123641.42472125847
0.7031568344886527	124069.30384116578
0.7032740272944008	124497.25427425947
0.7033912396322832	124925.27603242555
0.7035084715055552	125353.3691275509
0.7036257229174727	125781.53357152561
0.7037429938712924	126209.76937624138
0.7038602843702709	126551.56126479837
0.7039775944176659	126878.73649258602
0.7040949240167356	127205.96624957843
0.7042122731707383	127533.25054486352
0.7043296418829335	127860.58938753132
0.7044470301565806	128187.98278667286
0.70456443799494	128515.43075138066
0.7046818654012724	128842.93329074945
0.7047993123788394	129081.10813219697
0.7049167789309024	129319.22009931612
0.7050342650607243	129557.37175176352
0.7051517707715678	129795.56309615287
0.7052692960666963	130033.7941390995
0.705386840949374	130272.06488721985
0.7055044054228656	130510.37534713195
0.7056219894904361	130725.10677983897
0.7057395931553511	130789.77938706423
0.705857216420877	130854.46277305741
0.7059748592902804	130919.1569396149
0.7060925217668288	130983.86188853355
0.70621020385379	131048.57762161033
0.7063279055544321	131113.30414064255
0.7064456268720246	131178.04144742803
0.7065633678098366	131269.3670924484
0.7066811283711383	131433.90301485008
0.7067989085592001	131598.46635990552
0.7069167083772933	131763.057132185
0.7070345278286895	131927.67533626
0.707152366916661	132092.32097670235
0.7072702256444803	132256.99405808462
0.7073881040154211	132421.69458498064
0.7075060020327569	132636.5363518782
0.7076239196997625	132924.39701161746
0.7077418570197124	133212.30564813307
0.7078598139958823	133500.26226942142
0.7079777906315483	133788.26688348025
0.7080957869299869	134076.3194983079
0.7082138028944751	134364.4201219045
0.7083318385282908	134652.56876227193
0.7084498938347124	134747.6998865097
0.708567968817018	134679.16195542127
0.7086860634784875	134610.6126013442
0.7088041778224007	134542.05182237478
0.7089223118520377	134473.47961660894
0.7090404655706796	134404.89598214216
0.709158638981608	134336.30091706957
0.709276832088105	134267.69441948613
0.7093950448934531	134460.4620798937
0.7095132774009353	134777.91947709658
0.7096315296138355	135095.4297838658
0.7097498015354378	135412.9930090194
0.7098680931690269	135730.6091613769
0.7099864045178884	136048.2782497602
0.7101047355853081	136366.00028299144
0.7102230863745722	136683.77526989472
0.7103414568889679	136971.84411840732
0.7104598471317828	137253.19900954852
0.7105782571063047	137534.60079317135
0.7106966868158224	137816.04947709144
0.710815136263625	138097.54506912548
0.7109336054530023	138379.08757709168
0.7110520943872445	138660.6770088091
0.7111706030696424	138942.31337209867
0.7112891315034873	139082.73862474278
0.7114076796920712	139216.44745321033
0.7115262476386865	139350.17856648265
0.7116448353466263	139483.93196827374
0.711763442819184	139617.70766229855
0.711882070059654	139751.50565227246
0.7120007170713306	139885.3259419113
0.7121193838575091	140020.3414926394
0.7122380704214853	140167.61319460542
0.7123567767665555	140314.90944185498
0.7124755028960166	140462.23023847915
0.7125942488131658	140609.57558856934
0.7127130145213015	140756.94549621825
0.7128318000237216	140904.33996551798
0.7129506053237256	141051.75900056283
0.7130694304246129	141193.32255649986
0.7131882753296837	141314.3509838137
0.7133071400422386	141435.3995825321
0.7134260245655789	141556.46835601685
0.7135449289030065	141677.55730763057
0.7136638530578235	141798.66644073615
0.7137827970333332	141919.79575869744
0.7139017608328388	142040.94526487836
0.7140207444596443	142155.87924306886
0.7141397479170543	142259.70847208615
0.7142587712083737	142363.5550059748
0.7143778143369084	142467.41884761918
0.7144968773059646	142571.29999990383
0.7146159601188489	142675.19846571385
0.7147350627788687	142779.11424793486
0.7148541852893318	142883.04734945283
0.7149733276535467	142893.88336476174
0.7150924898748222	142810.82669787735
0.715211671956468	142727.75618821513
0.7153308739017941	142644.6718334679
0.715450095714111	142561.57363132827
0.71556933739673	142478.46157948827
0.7156885989529628	142395.33567563962
0.7158078803861218	142312.19591747355
0.7159271816995193	141859.31156864078
0.7160465028964692	141189.34286513223
0.7161658439802853	140519.2625001731
0.7162852049542819	139849.07045515327
0.7164045858217744	139178.76671145885
0.716523986586078	138508.3512504741
0.7166434072505089	137837.82405357953
0.716762847818384	137167.1851021519
0.7168823082930204	136891.16885323953
0.7170017886777359	136731.23580453143
0.7171212889758488	136571.2761003153
0.7172408091906781	136411.28973614844
0.7173603493255433	136251.27670758747
0.7174799093837642	136091.23701018852
0.7175994893686615	135931.1706395066
0.7177190892835562	135771.0775910963
0.7178387091317702	136856.12059552563
0.7179583489166254	138066.33745232382
0.7180780086414448	139276.75601193236
0.7181976883095517	140487.3763079675
0.7183173879242699	141698.19837405207
0.718437107488924	142909.2222438146
0.7185568470068389	144120.44795088927
0.7186766064813399	145283.92978705096
0.7187963859157535	145248.85632678858
0.7189161853134061	145213.77702094952
0.719036004677625	145178.69186855946
0.7191558440117378	145143.60086864402
0.7192757033190732	145108.50402022855
0.7193955826029597	145073.40132233838
0.7195154818667269	145038.29277399855
0.7196354011137046	144975.13351629645
0.7197553403472235	144782.8401930666
0.7198752995706147	144590.5148209496
0.7199952787872098	144398.1573946038
0.720115278000341	144205.76790868692
0.7202352972133411	144013.3463578557
0.7203553364295432	143820.8927367663
0.7204753956522815	143628.40704007316
0.7205954748848902	143610.40653925107
0.7207155741307044	143977.14840867269
0.7208356933930594	144343.95140173854
0.7209558326752915	144710.81552863665
0.7210759919807375	145077.74079955643
0.7211961713127342	145444.72722468755
0.7213163706746197	145811.77481422343
0.7214365900697322	146178.88357835717
0.7215568295014103	146304.01782015472
0.721677088972994	146140.3835450003
0.7217973684878227	145976.72199746696
0.7219176680492374	145813.03317300882
0.7220379876605789	145649.31706708006
0.722158327325189	145485.57367513355
0.7222786870464099	145321.80299262184
0.7223990668275843	145158.00501499628
0.7225194666720555	144976.34672249
0.7226398865831676	144782.01944926888
0.7227603265642646	144587.65978816935
0.722880786618692	144393.26773379257
0.7230012667497951	144198.84328074017
0.7231217669609201	144004.38642361225
0.7232422872554135	143809.89715700832
0.7233628276366229	143615.37547552626
0.7234833881078956	143853.2604352855
0.7236039686725803	144255.36546560033
0.7237245693340255	144657.53751341958
0.7238451900955812	145059.77658991423
0.7239658309605971	145462.08270625447
0.7240864919324239	145864.4558736146
0.7242071730144127	146266.89610316936
0.724327874209915	146669.40340609488
0.7244485955222832	145793.44033908597
0.7245693369548704	144705.93591184827
0.7246900985110294	143618.2502338743
0.7248108801941148	142530.38327495113
0.7249316820074803	141442.33500487177
0.7250525039544815	140354.1053934123
0.7251733460384739	139265.69441035073
0.7252942082628137	138180.01833965373
0.7254150906308574	138783.96613539694
0.7255359931459625	139388.01458910617
0.7256569158114868	139992.16371755785
0.7257778586307888	140596.41353753125
0.7258988216072273	141200.7640658078
0.7260198047441617	141805.21531917175
0.7261408080449525	142409.76731441228
0.72626183151296	142946.8462558616
0.7263828751515454	143034.94795583564
0.7265039389640706	143123.06433942632
0.726625022953898	143211.19540908097
0.7267461271243904	143299.3411672473
0.7268672514789111	143387.50161637325
0.7269883960208241	143475.67675890733
0.7271095607534942	143563.86659729853
0.7272307456802866	143641.68221580304
0.7273519508045666	143691.44782793196
0.7274731761297006	143741.22173432956
0.7275944216590555	143791.00393637823
0.7277156873959987	143840.79443546056
0.7278369733438982	143890.5932329595
0.727958279506122	143940.40033025792
0.7280796058860397	143990.21572873925
0.7282009524870207	143786.48642610462
0.7283223193124353	143207.6900405103
0.7284437063656539	142628.79718885288
0.7285651136500483	142049.80785505258
0.7286865411689898	141470.72202303118
0.7288079889258514	140891.53967670305
0.7289294569240056	140312.26079998518
0.7290509451668262	139732.8853767872
0.7291724536576875	139306.9139674711
0.7292939823999636	139008.06331450044
0.7294155313970303	138709.162853087
0.7295371006522632	138410.2125749301
0.7296586901690385	138111.21247172705
0.7297802999507332	137812.1625351736
0.7299019300007252	137513.06275696328
0.7300235803223919	137213.91312879074
0.7301452509191123	137314.843339999
0.7302669417942654	137600.47801709964
0.7303886529512311	137886.16029997985
0.7305103843933897	138171.89019657398
0.7306321361241218	138457.6677148173
0.7307539081468093	138743.49286264752
0.7308757004648336	139029.36564800175
0.7309975130815778	139315.28607882056
0.7311193460004248	139832.08727041716
0.7312411992247582	140401.23226423113
0.7313630727579622	140970.47211554393
0.7314849666034219	141539.80684016587
0.7316068807645224	142109.23645390823
0.7317288152446498	142678.76097258646
0.7318507700471907	143248.3804120181
0.7319727451755319	143818.09478802278
0.732094740633061	143529.86005826094
0.7322167564231665	143202.9478741359
0.7323387925492371	142875.9812046468
0.7324608490146619	142548.9600407129
0.732582925822831	142221.88437325158
0.7327050229771347	141894.7541931794
0.7328271404809642	141567.56949141022
0.7329492783377112	141227.86982510443
0.7330714365507675	140765.6142914611
0.7331936151235259	140303.28171522898
0.7333158140593796	139840.87208356799
0.7334380333617229	139378.38538363436
0.7335602730339499	138915.82160258386
0.7336825330794556	138453.18072756976
0.7338048135016354	137990.46274574404
0.7339271143038857	137722.14247593793
0.734049435489603	138105.40152444266
0.7341717770621846	138488.72444945553
0.7342941390250283	138872.11126162237
0.7344165213815324	139255.56197159112
0.734538924135096	139639.07659001206
0.7346613472891185	140022.65512753557
0.734783790847	140406.2975948155
0.7349062548121412	140446.17581386343
0.7350287391879431	139878.33031365697
0.7351512439778078	139310.39017253267
0.7352737691851374	138742.35537471887
0.735396314813335	138174.22590443824
0.7355188808658037	137606.00174591353
0.7356414673459482	137037.68288336124
0.7357640742571725	136469.2693009989
0.7358867016028818	136098.07204081008
0.7360093493864824	135921.67537753828
0.7361320176113801	135745.24931482284
0.736254706280982	135568.79384776362
0.7363774153986956	135392.30897145966
0.7365001449679286	135215.79468101
0.7366228949920899	135039.2509715118
0.7367456654745885	134862.67783806202
0.7368684564188344	134698.79577834523
0.7369912678282374	134542.07576493747
0.7371140997062088	134385.32963152745
0.7372369520561599	134228.55737376167
0.7373598248815024	134071.75898728665
0.7374827181856494	133914.93446774693
0.7376056319720137	133758.0838107873
0.7377285662440091	133601.20701205145
0.7378515210050496	133354.67844261552
0.7379744962585505	133081.14316119632
0.738097492007927	132807.56229056363
0.7382205082565949	132533.93582311933
0.738343545007971	132260.26375126385
0.7384666022654723	131986.5460673961
0.7385896800325165	131712.7827639148
0.7387127783125219	131438.9738332159
0.7388358971089073	131250.84577177055
0.7389590364250921	131071.28493678581
0.7390821962644963	130891.69417499512
0.7392053766305403	130712.07348141106
0.7393285775266454	130532.4228510446
0.7394517989562333	130352.74227890624
0.7395750409227259	130173.03176000615
0.7396983034295463	129983.22547554533
0.739821586480118	129569.4660374834
0.7399448900778645	129155.63763951596
0.7400682142262109	128741.7402701476
0.740191558928582	128327.77391788477
0.7403149241884034	127913.73857123023
0.7404383100091014	127499.63421868448
0.7405617163941028	127085.46084874691
0.7406851433468352	126623.26023839368
0.7408085908707264	125941.58531041344
0.7409320589692048	125259.79676994555
0.7410555476456997	124577.8945980537
0.7411790569036406	123895.87877580035
0.7413025867464579	123213.7492842431
0.7414261371775823	122531.50610443707
0.7415497082004452	121849.14921743493
0.7416732998184786	121178.63591908205
0.741796912035115	120533.66166297195
0.7419205448537874	119888.57991115266
0.7420441982779297	119243.39064570809
0.742167872310976	118598.09384871866
0.7422915669563612	117952.6895022631
0.7424152822175206	117307.17758841664
0.7425390180978901	116661.5580892516
0.7426627746009065	116180.13290630461
0.7427865517300065	115898.92329103334
0.7429103494886282	115617.66680749257
0.7430341678802096	115336.36344787142
0.7431580069081896	115055.01320435702
0.7432818665760077	114773.61606913497
0.7434057468871037	114492.17203439062
0.7435296478449182	114210.68109230729
0.7436535694528923	113797.15021421944
0.7437775117144678	113293.1971429136
0.7439014746330868	112789.16007942996
0.7440254582121922	112285.03900976863
0.7441494624552276	111780.83391992883
0.7442734873656368	111276.54479590751
0.7443975329468645	110772.17162369844
0.7445215992023557	110267.71438929405
0.7446456861355559	109660.34890631287
0.7447697937499119	109015.00450083165
0.7448939220488703	108369.55253794967
0.7450180710358784	107723.9929997411
0.7451422407143843	107078.3258682761
0.7452664310878367	106432.5511256219
0.7453906421596846	105786.66875384463
0.7455148739333779	105140.67873500517
0.7456391264123667	104447.06989623277
0.7457633996001021	103745.74868503373
0.7458876935000356	103044.3105869649
0.7460120081156189	102342.75558254773
0.7461363434503048	101641.08365229616
0.7462606995075466	100939.29477672225
0.7463850762907978	100237.38893633679
0.7465094738035127	99535.35931572085
0.7466338920491467	98831.43491422321
0.746758331031155	98127.3931919913
0.7468827907529935	97423.23412947319
0.7470072712181189	96718.9577071113
0.7471317724299886	96014.56390534555
0.7472562943920602	95310.05270461334
0.7473808371077922	94605.42408534704
0.7475054005806435	93895.09174546631
0.7476299848140736	93150.23170739239
0.7477545898115426	92405.24752597863
0.7478792155765113	91660.13918053446
0.7480038621124406	90914.90665036663
0.7481285294227926	90169.54991477726
0.7482532175110298	89424.06895306453
0.7483779263806148	88678.46374452588
0.7485026560350116	87922.30672038646
0.7486274064776842	87137.8019017555
0.748752177712097	86353.16633232287
0.7488769697417158	85568.39999029366
0.749001782570006	84783.50285387508
0.7491266162004343	83998.4749012673
0.7492514706364677	83213.31611066707
0.7493763458815739	82428.02646026763
0.7495012419392209	81619.34123404432
0.7496261588128773	80777.07545657096
0.7497510965060128	79934.66930146744
0.7498760550220971	79092.12274533838
0.7500010343646007	78249.43576478316
0.7501260345369949	77406.60833639745
0.750251055542751	76563.6404367746
0.7503760973853414	75720.53204250132
0.7505011600682389	74859.85043350366
0.750626243594917	73984.46947447627
0.7507513479688495	73108.9426186237
0.7508764731935109	72233.26984162818
0.7510016192723765	71357.45111916962
0.7511267862089218	70481.48642692479
0.7512519740066232	69605.37574056428
0.7513771826689577	68729.11903575555
0.7515024121994025	67852.08424703535
0.7516276626014359	66974.60859275678
0.751752933878536	66096.98669253738
0.7518782260341824	65219.21852200097
0.7520035390718548	64341.304056769084
0.7521288729950334	63463.24327246011
0.7522542278071992	62585.03614468702
0.7523796035118337	61706.68264905887
0.7525050001124189	60813.3415639735
0.7526304176124378	59916.62396022756
0.7527558560153731	59019.75690354881
0.752881315324709	58122.74036902641
0.7530067955439299	57225.574331747936
0.7531322966765205	56328.258766797786
0.7532578187259665	55430.793649253195
0.7533833616957542	54533.17895418905
0.75350892558937	53638.06574936974
0.7536345104103016	52742.928020970474
0.7537601161620366	51847.64110295026
0.7538857428480638	50952.20497044285
0.7540113904718717	50056.61959858118
0.7541370590369503	49160.88496249106
0.7542627485467898	48265.00103729436
0.7543884590048808	47372.41128547904
0.7545141904147151	46514.011614931755
0.7546399427797842	45655.468877774096
0.7547657161035808	44796.783050160106
0.754891510389598	43937.95410824157
0.7550173256413296	43078.982028165694
0.7551431618622698	42219.86678607667
0.7552690190559135	41360.608358114165
0.7553948972257561	40506.222464621256
0.7555207963752938	39668.53013844808
0.755646716508023	38830.69819688767
0.755772657627441	37992.726616670065
0.7558986197370455	37154.615374522284
0.756024602840335	36316.364447167696
0.7561506069408084	35477.97381132523
0.7562766320419653	34639.443443709366
0.7564026781473054	33809.58969079984
0.75652874526033	32995.11208758195
0.7566548333845401	32180.498738096434
0.7567809425234375	31365.749619719627
0.7569070726805247	30550.864709823552
0.7570332238593047	29735.843985775944
0.7571593960632813	28920.68742494021
0.7572855892959586	28105.39500467763
0.7574118035608413	27341.050985995702
0.7575380388614347	26626.556998495624
0.7576642952012449	25911.943928664026
0.7577905725837782	25197.211756655157
0.7579168710125422	24482.360462616343
0.7580431904910444	23767.390026694924
0.7581695310227928	23052.300429035084
0.7582958926112967	22337.09164977474
0.7584222752600652	21666.8993534968
0.7585486789726085	21022.524086650454
0.7586751037524372	20378.04142392606
0.7588015496030628	19733.451347423284
0.7589280165279966	19088.753839242367
0.7590545045307512	18443.948881476757
0.7591810136148396	17799.036456218197
0.7593075437837755	17154.016545554477
0.7594340950410726	16577.27831678027
0.7595606673902461	16020.28616871114
0.7596872608348112	15463.201188616775
0.7598138753782836	14906.023361026342
0.75994051102418	14348.75267046412
0.7600671677760173	13791.38910145391
0.7601938456373134	13233.932638515102
0.7603205446115863	12676.383266166118
0.7604472647023548	12196.121115431317
0.7605740059131385	11723.470498324126
0.7607007682474575	11250.741106113624
0.7608275517088319	10777.932925672136
0.7609543563007835	10305.045943866191
0.7610811820268336	9832.080147563564
0.7612080288905045	9359.035523629129
0.7613348968953197	8889.479512723496
0.7614617860448022	8493.041517373476
0.7615886963424764	8096.537449023692
0.7617156277918667	7699.967296662899
0.7618425803964988	7303.331049276385
0.7619695541598982	6906.628695848746
0.7620965490855914	6509.860225362496
0.7622235651771058	6113.025626797372
0.7623506024379685	5736.285979744529
0.7624776608717082	5447.851803661715
0.7626047404818536	5159.369555216208
0.7627318412719337	4870.839226396455
0.762858963245479	4582.260809188385
0.7629861064060198	4293.634295577421
0.7631132707570876	4004.9596775472214
0.7632404563022137	3716.2369470809426
0.7633676630449308	3453.178411415636
0.7634948909887717	3244.809014852594
0.7636221401372697	3036.404890057063
0.7637494104939593	2827.966031240536
0.7638767020623748	2619.4924326145065
0.7640040148460518	2410.984088388469
0.7641313488485262	2202.440992771735
0.7642587040733344	1993.863139972162
0.7643860805240132	1814.9113068693505
0.7645134782041005	1671.3238536219924
0.7646408971171346	1527.712469132367
0.764768337266654	1384.0771494120456
0.7648957986561985	1240.4178904717246
