#wavelength	surface flux
0.8	993572.8006157521
0.8002000000000001	998093.1727269447
0.8004000500000003	1003109.0939881457
0.8006001500125003	1008131.2633489402
0.8008003000500035	1013154.6882520751
0.8010005001250161	1018179.3690114382
0.8012007502500472	1023205.3059409839
0.8014010504376099	1027307.492326397
0.8016014007002193	1031100.8551639006
0.8018018010503944	1034895.1663421135
0.8020022515006572	1038690.4260981227
0.8022027520635323	1042486.6346690676
0.8024033027515483	1046304.0063973337
0.8026039035772362	1050142.141503802
0.8028045545531306	1053981.2361440472
0.8030052556917691	1057821.2905579542
0.803206007005692	1061662.3049854615
0.8034068085074435	1065662.8788433657
0.8036076602095705	1070109.0296013248
0.8038085621246229	1074556.29189697
0.8040095142651542	1079004.6660081916
0.8042105166437206	1083454.15221294
0.8044115692728815	1087884.5879140566
0.8046126721651998	1091448.8904381117
0.8048138253332411	1095014.084037795
0.8050150287895745	1098580.1689358812
0.805216282546772	1102147.1453551913
0.8054175866174087	1105715.0135186042
0.8056189410140631	1109279.8571550995
0.8058203457493168	1112844.4833807
0.8060218008357541	1116410.0007628521
0.8062233062859632	1119976.4095243516
0.8064248621125346	1123543.7098880392
0.806626468328063	1127568.485015743
0.8068281249451449	1131986.4158470014
0.8070298319763813	1136405.4511609727
0.8072315894343755	1140825.5912337694
0.8074333973317341	1145246.836341586
0.8076352556810671	1148765.782140842
0.8078371644949874	1150110.9619047167
0.8080391237861113	1151456.4779635328
0.8082411335670578	1152802.3304013629
0.8084431938504498	1154148.5193023037
0.8086453046489125	1155458.4344289687
0.8088474659750746	1156087.058438619
0.8090496778415686	1156715.8396042725
0.809251940261029	1157344.777965217
0.8094542532460944	1157973.8735607523
0.8096566168094059	1158603.1264301855
0.8098590309636085	1159950.6500415667
0.8100614957213493	1161466.5908454428
0.8102640110952797	1162982.91063452
0.8104665770980536	1164499.609503545
0.8106691937423283	1166016.687547288
0.8108718610407639	1168045.5948640988
0.8110745790060241	1170466.0883813177
0.8112773476507757	1172887.187021918
0.8114801669876885	1175308.8909371777
0.8116830370294355	1177731.2002784146
0.8118859577886929	1179747.1647424272
0.8120889292781401	1180918.379308365
0.8122919515104597	1182089.8866779443
0.8124950244983374	1183261.6869243663
0.8126981482544621	1184433.7801208494
0.8129013227915257	1185702.8162440457
0.8131045481222237	1188078.8257966503
0.8133078242592543	1190455.4293516434
0.8135111512153191	1192832.6270575244
0.813714529003123	1195210.4190628324
0.8139179576353739	1197588.805516142
0.8141214371247829	1208451.1994386136
0.8143249674840641	1220961.3854050247
0.814528548725935	1233474.69891792
0.8147321808631167	1245991.1407592103
0.8149358639083326	1258510.7117109573
0.8151395978743097	1266475.8281432227
0.8153433827737784	1271363.6406059633
0.8155472186194719	1276252.675021818
0.8157511054241268	1281142.9316962752
0.815955043200483	1286034.4109349048
0.8161590319612831	1290202.5920095753
0.8163630717192736	1293044.2186506144
0.8165671624872033	1295886.5556983105
0.8167713042778252	1298729.6033302713
0.8169754971038948	1301573.3617241418
0.8171797409781707	1304030.8976052082
0.8173840359134155	1303400.038282858
0.8175883819223938	1302769.0212456777
0.8177927790178745	1302137.8464542378
0.8179972272126291	1301506.5138690998
0.8182017265194322	1300875.0234508163
0.8184062769510622	1306127.8079251957
0.8186108785203001	1312287.4327042957
0.8188155312399301	1318448.5973895823
0.8190202351227402	1324611.302366047
0.819224990181521	1330775.548018752
0.8194297964290664	1336436.8766690502
0.8196346538781738	1341795.5594483528
0.8198395625416434	1347155.5818983482
0.8200445224322789	1352516.9443539584
0.820249533562887	1357879.6471501808
0.8204545959462778	1362775.4281520965
0.8206597095952644	1366918.7772952116
0.8208648745226633	1371063.1622756154
0.8210700907412941	1375208.5833522636
0.8212753582639793	1379355.040784177
0.8214806771035456	1382077.1015299726
0.8216860472728215	1376017.4369900597
0.8218914687846397	1369956.2575340115
0.822096941651836	1363893.562783096
0.822302465887249	1357829.3523584963
0.8225080415037209	1351763.6258812873
0.8227136685140968	1357001.8417427228
0.8229193469312254	1363524.7730114881
0.8231250767679583	1370049.3350130727
0.8233308580371503	1376575.528155154
0.8235366907516598	1383103.3528455258
0.8237425749243477	1390419.432514536
0.8239485105680789	1398154.265233754
0.824154497695721	1405891.0316611468
0.824360536320145	1413629.7322801477
0.8245666264542252	1421370.3675743032
0.8247727681108388	1428182.8263290979
0.8249789613028664	1433664.8931878917
0.8251852060431922	1439148.3305634048
0.825391502344703	1444633.1387982594
0.8255978502202894	1450119.3182351778
0.8258042496828445	1455231.4584275112
0.8260107007452654	1458521.667718084
0.8262172034204517	1461812.6995609764
0.8264237577213068	1465104.5541618303
0.8266303636607373	1468397.2317263358
0.8268370212516525	1471690.732460231
0.8270437305069654	1470865.0807883046
0.8272504914395923	1469717.2733725018
0.8274573040624523	1468569.1790048447
0.8276641683884679	1467420.7976135968
0.8278710844305652	1466272.1291269998
0.8280780522016729	1468795.984314007
0.8282850717147234	1472999.3054986624
0.8284921429826521	1477203.6775136099
0.8286992660183978	1481409.1006215643
0.8289064408349024	1485615.5750852928
0.8291136674451112	1488195.1360749593
0.8293209458619727	1488722.5595492793
0.8295282760984382	1489250.1148794673
0.829735658167463	1489777.8020984882
0.8299430920820048	1490305.6212393134
0.8301505778550254	1490984.880820778
0.8303581154994891	1492268.226693024
0.8305657050283641	1493551.8934017392
0.8307733464546212	1494835.8810271306
0.8309810397912352	1496120.1896494306
0.8311887850511829	1497404.8193488836
0.8313965822474458	1506676.9426729474
0.8316044313930077	1516322.1109521769
0.8318123325008561	1525969.6905234852
0.8320202855839813	1535619.6819896817
0.8322282906553774	1545272.0859537455
0.8324363477280413	1549375.769847302
0.8326444568149735	1551245.613030631
0.8328526179291771	1553115.9236747539
0.8330608310836596	1554986.7018965404
0.8332690962914304	1556857.94781288
0.8334774135655034	1558213.5753421632
0.833685782918895	1558993.0565466697
0.8338942043646247	1559772.732621477
0.834102677915716	1560552.6036153033
0.834311203585195	1561332.6695768777
0.8345197813860912	1563913.8632980825
0.8347284113314379	1572557.8103472323
0.8349370934342709	1581203.9183831394
0.8351458277076294	1589852.187946045
0.8353546141645565	1598502.619576356
0.8355634528180977	1607155.2138145706
0.8357723436813022	1599167.4100146894
0.8359812867672226	1590972.1160386505
0.8361902820889144	1582774.773239122
0.8363993296594368	1574575.381103891
0.8366084294918518	1566373.9391206233
0.8368175815992247	1570295.004079036
0.8370267859946247	1578392.871371737
0.8372360426911234	1586492.7631312585
0.8374453517017962	1594594.679863719
0.8376547130397217	1602698.6220753617
0.8378641267179816	1608128.0201546075
0.8380735927496613	1610902.9222496718
0.8382831111478488	1613678.518070258
0.8384926819256358	1616454.807789798
0.8387023050961173	1619231.7915817702
0.8389119806723914	1621942.0374773848
0.8391217086675596	1624463.1848518872
0.8393314890947265	1626984.9625132312
0.8395413219670003	1629507.370618991
0.8397512072974922	1632030.409326779
0.8399611450993165	1634700.8285268287
0.8401711353855914	1644659.4546065086
0.8403811781694378	1654620.5703427058
0.8405912734639802	1664584.1763578395
0.8408014212823464	1674550.2732744815
0.8410116216376671	1684518.8617153515
0.8412218745430766	1692912.5468983117
0.8414321800117124	1700849.36930929
0.8416425380567154	1708788.175925875
0.8418529486912297	1716728.9672441161
0.8420634119284025	1724671.74376018
0.8422739277813847	1729548.5749210496
0.8424844962633302	1731723.6589880856
0.842695117387396	1733899.2868261356
0.8429057911667428	1736075.4585711448
0.8431165176145345	1738252.1743590918
0.8433272967439382	1740648.9000660393
0.8435381285681244	1743581.5627522885
0.8437490131002665	1746514.9586042084
0.8439599503535415	1749449.0878050895
0.84417094034113	1752383.9505382732
0.8443819830762154	1755398.4685248858
0.8445930785719846	1760003.6212657008
0.8448042268416277	1764609.9252946987
0.8450154278983382	1769217.3808997031
0.8452266817553128	1773825.9883686085
0.8454379884257517	1778435.7479893817
0.8456493479228583	1783338.3824615753
0.845860760259839	1788312.4928551263
0.846072225449904	1793287.846776276
0.8462837435062666	1798264.4445359067
0.8464953144421433	1803242.2864449802
0.8467069382707537	1807045.5105023554
0.8469186150053215	1809933.1368062417
0.847130344659073	1812821.4850167048
0.8473421272452377	1815710.5553142175
0.8475539627770492	1818600.3478793076
0.8477658512677435	1821938.3602633935
0.8479777927305605	1826227.4088901987
0.8481897871787432	1830517.5297791597
0.848401834625538	1834808.7231983452
0.8486139350841944	1839100.9894158829
0.8488260885679657	1843273.6595858461
0.8490382950901076	1845976.4592597748
0.8492505546638802	1848679.9346336236
0.8494628673025462	1851384.0858763147
0.8496752330193721	1854088.9131568202
0.8498876518276269	1856794.4166441425
0.8501001237405839	1853316.0021868306
0.8503126487715191	1848602.1644804992
0.850525226933712	1843887.1483147438
0.8507378582404455	1839170.953394947
0.8509505427050057	1834453.5794264176
0.8511632803406821	1832027.7794739187
0.8513760711607672	1831171.4892810981
0.8515889151785576	1830314.985015728
0.8518018124073523	1829458.2666242924
0.8520147628604541	1828601.334053259
0.8522277665511693	1832029.2800564365
0.8524408234928071	1843382.8442241393
0.8526539336986805	1854739.2467828873
0.8528670971821053	1866098.4884422757
0.8530803139564007	1877460.5699120653
0.8532935840348901	1888684.1444160787
0.8535069074308987	1898716.7730643495
0.8537202841577566	1908751.909869791
0.8539337142287962	1918789.5554594349
0.8541471976573534	1928829.7104604698
0.8543607344567677	1938872.375500257
0.8545743246403821	1945014.3423335373
0.8547879682215422	1950537.9704780795
0.8550016652135977	1956062.9795296574
0.8552154156299011	1961589.3698334983
0.8554292194838088	1967117.1417349193
0.8556430767886797	1971652.137764538
0.855856987557877	1975584.6411753013
0.8560709518047664	1979518.1277119147
0.8562849695427177	1983452.5976201638
0.8564990407851035	1987388.0511458912
0.8567131655452999	1991295.2684189703
0.8569273438366862	1995155.5843610964
0.8571415756726455	1999016.8653822087
0.8573558610665638	2002879.1117235778
0.8575702000318304	2006742.323626528
0.8577845925818384	2010675.2195747925
0.857999038729984	2015038.338204695
0.8582135384896665	2019402.5476142538
0.858428091874289	2023767.8480761652
0.8586426988972576	2028134.239863191
0.8588573595719821	2032501.723248165
0.8590720739118751	2036063.0467799122
0.8592868419303532	2039530.0832522153
0.8595016636408359	2042997.9864836365
0.8597165390567462	2046466.7566908645
0.8599314681915105	2049936.394090645
0.8601464510585584	2052885.6389731464
0.860361487671323	2055558.9400365525
0.8605765780432408	2058232.9094252237
0.8607917221877518	2060907.5473062443
0.8610069201182988	2063582.8538467344
0.8612221718483286	2061347.5651313486
0.8614374773912907	2052031.465776948
0.8616528367606385	2042713.0373977113
0.8618682499698288	2033392.2794113741
0.8620837170323213	2024069.1912355416
0.8622992379615795	2016625.1285886527
0.8625148127710699	2018489.316477136
0.8627304414742627	2020353.9704125917
0.8629461240846313	2022219.0905115313
0.8631618606156526	2024084.6768904962
0.8633776510808066	2025950.7296660552
0.8635934954935769	2041321.1339934377
0.8638093938674504	2057802.318802128
0.8640253462159173	2074287.62390702
0.8642413525524714	2090777.050338188
0.8644574128906095	2107270.59912596
0.8646735272438323	2110974.046354362
0.8648896956256433	2108728.7503332724
0.8651059180495498	2106482.8929881775
0.8653221945290621	2104236.474178748
0.8655385250776946	2101989.4937646138
0.8657549097089641	2104674.3960036985
0.8659713484363913	2113674.5825746115
0.8661878412735006	2122677.0191921713
0.866404388233819	2131681.7064188845
0.8666209893308775	2140688.6448174003
0.8668376445782103	2148508.3028468983
0.8670543539893549	2151474.831421399
0.8672711175778525	2154442.1016280456
0.8674879353572469	2157410.1136522405
0.8677048073410862	2160378.8676794423
0.8679217335429217	2163348.363895153
0.8681387139763074	2167447.45771663
0.8683557486548015	2171603.6549634626
0.8685728375919655	2175760.891259612
0.8687899808013633	2179919.1668648263
0.8690071782965637	2184078.4820389473
0.869224430091138	2188504.1874713064
0.8694417361986609	2193038.9700843217
0.8696590966327107	2197574.8863929887
0.869876511406869	2202111.9366807337
0.8700939805347206	2206650.121231048
0.8703115040298544	2211329.133274079
0.870529081905862	2216169.0245197252
0.8707467141763385	2221010.125738182
0.8709644008548827	2225852.437231943
0.8711821419550964	2230695.9593035746
0.8713999374905854	2235527.022842804
0.871617787474958	2240312.1162611432
0.8718356919218269	2245098.405952841
0.8720536508448075	2249885.8922169623
0.8722716642575187	2254674.575352647
0.8724897321735832	2259464.4556591175
0.8727078546066265	2263497.163838204
0.8729260315702784	2267519.3429050166
0.873144263078171	2271542.5275165914
0.8733625491439405	2275566.7179243197
0.8735808897812266	2279591.9143796517
0.8737992850036719	2281174.2011401085
0.874017734824923	2281891.2886119382
0.8742362392586293	2282608.555355636
0.874454798318444	2283326.0014160196
0.8746734120180236	2284043.626837918
0.8748920803710283	2285756.746139233
0.875110803391121	2288470.4899255387
0.8753295810919689	2291184.9121477925
0.875548413487242	2293900.012975602
0.8757673005906139	2296615.792578618
0.8759862424157616	2300657.010338677
0.8762052389763657	2308532.491702494
0.8764242902861098	2316409.941936647
0.8766433963586814	2324289.3615333606
0.8768625572077712	2332170.7509849756
0.8770817728470732	2339991.271047087
0.8773010432902849	2342907.378144155
0.8775203685511077	2345824.214268001
0.8777397486432454	2348741.7796008745
0.8779591835804065	2351660.0743250847
0.8781786733763015	2354579.098622972
0.8783982180446457	2353480.7019602503
0.878617817599157	2351186.70596514
0.8788374720535569	2348892.136471032
0.8790571814215703	2346596.993334551
0.8792769457169257	2344301.276412286
0.879496764953355	2341149.7431892618
0.8797166391445934	2337228.5030176016
0.8799365683043796	2333306.282535898
0.8801565524464557	2329383.0814990737
0.8803765915845676	2325458.899661987
0.8805966857324639	2326497.3937662593
0.880816834903897	2340003.3658015192
0.881037039112623	2353512.7143297936
0.8812572983724012	2367025.4401951986
0.8814776126969944	2380541.544242076
0.8816979821001687	2393658.067342853
0.8819184065956938	2397292.124005213
0.8821388861973429	2400927.0891817412
0.8823594209188923	2404562.9630995607
0.882580010774122	2408199.7459858577
0.8828006557768155	2411837.4380678786
0.8830213559407598	2416140.6877251663
0.8832421112797452	2420612.1789518152
0.8834629218075651	2425084.788051268
0.8836837875380171	2429558.5153029975
0.8839047084849018	2434033.36098654
0.884125684662023	2435054.680975833
0.8843467160831886	2433307.800012843
0.8845678027622095	2431560.4823296126
0.8847889447129001	2429812.727816961
0.8850101419490785	2428064.5363656813
0.8852313944845657	2429768.3564128536
0.885452702333187	2439029.5888378015
0.8856740655087704	2448293.136570854
0.8858954840251476	2457559.0001908373
0.8861169578961539	2466827.1802767213
0.886338487135628	2474972.8255941765
0.886560071757412	2468151.6466222983
0.8867817117753515	2461328.762355677
0.8870034072032955	2454504.1723679863
0.8872251580550963	2447677.8762328066
0.8874469643446101	2440849.8735235888
0.8876688260856963	2446832.0634468766
0.8878907432922178	2455467.335740816
0.8881127159780409	2464104.766852823
0.8883347441570356	2472744.3573226184
0.8885568278430749	2481386.1076900223
0.8887789670500358	2487683.06318824
0.8890011617917983	2492316.7246855977
0.8892234120822464	2496951.544598332
0.8894457179352669	2501587.5232160403
0.8896680793647509	2506224.660828407
0.8898904963845921	2507985.889424949
0.8901129690086883	2504258.0362790446
0.8903354972509405	2500529.2511698543
0.8905580811252535	2496799.533864384
0.8907807206455347	2493068.8841295927
0.8910034158256963	2488740.5025601345
0.8912261666796527	2479077.4662570446
0.8914489732213227	2469412.0141948764
0.8916718354646282	2459744.1457696836
0.8918947534234944	2450073.860377393
0.8921177271118502	2440401.157413761
0.8923407565436284	2428460.650539129
0.8925638417327644	2416147.612525632
0.8927869826931977	2403831.496252628
0.8930101794388711	2391512.300950556
0.8932334319837308	2379190.025849661
0.8934567403417267	2369639.881298038
0.8936801045268123	2361811.8162360424
0.8939035245529441	2353981.794157786
0.8941270004340824	2346149.814574007
0.894350532184191	2338315.8769953344
0.8945741198172371	2347838.44864024
0.8947977633471915	2386150.3490391215
0.8950214627880284	2424471.827413101
0.8952452181537254	2462802.886156651
0.8954690294582639	2501143.5276649105
0.8956928967156286	2534786.153312999
0.8959168199398075	2537886.5359751177
0.8961407991447926	2540987.693732903
0.8963648343445789	2544089.6267801276
0.896588925553165	2547192.3353106123
0.8968130727845534	2550295.8195182304
0.8970372760527496	2548852.4221637608
0.8972615353717629	2546839.6604336486
0.8974858507556059	2544826.3955131033
0.8977102222182949	2542812.6272763284
0.8979346497738496	2540798.3555974937
0.8981591334362931	2558794.8560119676
0.8983836732196523	2587739.551674636
0.8986082691379572	2616691.4835112006
0.8988329212052417	2645650.653330725
0.8990576294355432	2674617.062942729
0.8992823938429022	2694205.1327243675
0.8995072144413631	2699842.93265764
0.8997320912449734	2705482.142040894
0.8999570242677847	2711122.761226492
0.9001820135238516	2716764.7905668872
0.9004070590272328	2722108.779820914
0.9006321607919896	2725884.282898505
0.9008573188321878	2729660.72985187
0.9010825331618959	2733438.120916971
0.9013078037951865	2737216.456329839
0.9015331307461353	2740995.736326558
0.9017585140288219	2747352.3445613473
0.9019839536573292	2753932.4525299724
0.9022094496457435	2760514.2055255845
0.9024350020081551	2767097.6039594533
0.9026606107586572	2773682.648242928
0.902886275911347	2785532.18654555
0.9031119974803249	2799921.7461802335
0.9033377754796951	2814314.9032048257
0.903563609923565	2828711.658518668
0.903789500826046	2843112.013021348
0.9040154482012526	2852859.2612889055
0.904241452063303	2856576.589925048
0.9044675124263188	2860294.8478933484
0.9046936293044254	2864014.0354261403
0.9049198027117517	2867734.1527558174
0.9051460326624297	2871916.5088476753
0.9053723191705955	2878064.2704300326
0.9055986622503881	2884213.5689527798
0.9058250619159507	2890364.4048001575
0.9060515181814298	2896516.7783565014
0.9062780310609752	2902670.6900062296
0.9065046005687405	2890529.647752073
0.906731226718883	2877364.8630212657
0.9069579095255627	2864196.787094293
0.907184649002944	2851025.4191483376
0.907411445165195	2837850.758360382
0.9076382980264862	2848230.057514559
0.907865207600993	2868395.2352865594
0.9080921739028933	2888565.4543529972
0.9083191969463691	2908740.715974198
0.9085462767456058	2928921.0214108145
0.9087734133147922	2941847.1325907838
0.9090006066681211	2946391.963888971
0.909227856819788	2950937.9313949775
0.9094551637839932	2955485.0353928665
0.9096825275749393	2960033.2761667534
0.9099099482068329	2965423.4421198424
0.9101374256938848	2973803.131168348
0.9103649600503083	2982184.915139111
0.9105925512903209	2990568.7945558657
0.9108201994281437	2998954.769942483
0.9110479044780008	3007342.8418229376
0.9112756664541204	3015252.135257563
0.911503485370734	3023152.398860955
0.9117313612420768	3031054.6375302486
0.9119592940823873	3038958.8517592065
0.912187283905908	3046865.042041724
0.9124153307268845	3037347.0319913556
0.9126434345595664	3021501.9588182494
0.9128715954182063	3005652.924376865
0.9130998133170609	2989799.9276768616
0.9133280882703902	2973942.967727685
0.913556420292458	2971795.6654734835
