#wavelength	surface flux
0.7	483053.77876039624
0.7001166666666666	483832.9930092016
0.7002333527777778	484443.16909415455
0.700350058336574	485053.4468751214
0.7004667833462966	485663.82636905095
0.7005835278101878	486274.3075928978
0.7007002917314895	486884.8905636143
0.7008170751134447	487495.5752981592
0.7009338779592968	488106.3618134929
0.7010507002722901	488571.73356668005
0.7011675420556689	488860.0989027913
0.701284403312678	489148.5122997914
0.7014012840465635	489436.9737656914
0.7015181842605713	489725.48330850236
0.701635103957948	490014.0409362369
0.701752043141941	490302.6466569094
0.701869001815798	490591.3004785357
0.7019859799827672	490940.0202878891
0.7021029776460976	491330.56728135503
0.7022199948090387	491721.179365987
0.7023370314748403	492111.8565526329
0.7024540876467528	492502.5988521432
0.702571163328027	492893.4062753694
0.7026882585219152	493284.2788331672
0.7028053732316688	493675.21653639077
0.7029225074605406	494549.4136206012
0.7030396612117841	495610.33985433786
0.7031568344886527	496671.44290911366
0.7032740272944008	497732.7228143979
0.7033912396322832	498794.1795996669
0.7035084715055552	499855.81329439906
0.7036257229174727	500917.6239280807
0.7037429938712924	501979.6115302024
0.7038602843702709	502964.6823459491
0.7039775944176659	503936.8416701864
0.7040949240167356	504909.16302097804
0.7042122731707383	505881.6464253277
0.7043296418829335	506854.29191024526
0.7044470301565806	507827.09950274345
0.70456443799494	508800.0692298397
0.7046818654012724	509773.2011185577
0.7047993123788394	510468.2598265755
0.7049167789309024	511163.11509027623
0.7050342650607243	511858.0861631886
0.7051517707715678	512553.17306461284
0.7052692960666963	513248.37581385364
0.705386840949374	513943.694430219
0.7055044054228656	514639.12893302157
0.7056219894904361	515289.5885519563
0.7057395931553511	515653.60941293737
0.705857216420877	516017.69094406225
0.7059748592902804	516381.8331554421
0.7060925217668288	516746.03605719085
0.70621020385379	517110.2996594232
0.7063279055544321	517474.6239722554
0.7064456268720246	517839.009005807
0.7065633678098366	518248.2801566662
0.7066811283711383	518781.06945570366
0.7067989085592001	519313.9475529577
0.7069167083772933	519846.91446322756
0.7070345278286895	520379.9702013161
0.707152366916661	520913.11478202784
0.7072702256444803	521446.3482201691
0.7073881040154211	521979.6705305507
0.7075060020327569	522609.877180582
0.7076239196997625	523381.15666737047
0.7077418570197124	524152.5647007393
0.7078598139958823	524924.1013021136
0.7079777906315483	525695.7664929222
0.7080957869299869	526467.5602945954
0.7082138028944751	527239.4827285684
0.7083318385282908	528011.533816281
0.7084498938347124	528429.8392198394
0.708567968817018	528548.1924283539
0.7086860634784875	528666.5653624033
0.7088041778224007	528784.958025275
0.7089223118520377	528903.3704202572
0.7090404655706796	529021.8025506384
0.709158638981608	529140.2544197082
0.709276832088105	529258.7260307561
0.7093950448934531	529872.1619806231
0.7095132774009353	530721.7445859513
0.7096315296138355	531571.4687883806
0.7097498015354378	532421.3346115102
0.7098680931690269	533271.3420789427
0.7099864045178884	534121.4912142876
0.7101047355853081	534971.7820411548
0.7102230863745722	535822.2145831593
0.7103414568889679	536567.7365089871
0.7104598471317828	537289.5123183948
0.7105782571063047	538011.4084237703
0.7106966868158224	538733.4248451632
0.710815136263625	539455.5616026263
0.7109336054530023	540177.8187162161
0.7110520943872445	540900.1962059912
0.7111706030696424	541622.694092015
0.7112891315034873	542103.1964955983
0.7114076796920712	542572.2269361014
0.7115262476386865	543041.3355483445
0.7116448353466263	543510.5223453561
0.711763442819184	543979.7873401673
0.711882070059654	544449.1305458115
0.7120007170713306	544918.5519753229
0.7121193838575091	545392.5928547191
0.7122380704214853	545914.0764298837
0.7123567767665555	546435.6469189768
0.7124755028960166	546957.3043364851
0.7125942488131658	547479.0486968958
0.7127130145213015	548000.8800147014
0.7128318000237216	548522.7983043917
0.7129506053237256	549044.8035804643
0.7130694304246129	549543.3772588825
0.7131882753296837	549959.8047272797
0.7133071400422386	550376.301600255
0.7134260245655789	550792.8678893754
0.7135449289030065	551209.5036062109
0.7136638530578235	551626.2087623323
0.7137827970333332	552042.9833693138
0.7139017608328388	552459.8274387295
0.7140207444596443	552872.6736548976
0.7141397479170543	553278.3329706145
0.7142587712083737	553684.0598962168
0.7143778143369084	554089.8544429739
0.7144968773059646	554495.7166221553
0.7146159601188489	554901.6464450331
0.7147350627788687	555307.6439228816
0.7148541852893318	555713.7090669761
0.7149733276535467	555895.7131664566
0.7150924898748222	555851.7412061155
0.715211671956468	555807.7619171144
0.7153308739017941	555763.7752982317
0.715450095714111	555719.7813482459
0.71556933739673	555675.7800659352
0.7156885989529628	555631.7714500774
0.7158078803861218	555587.7554994501
0.7159271816995193	554809.9432148152
0.7160465028964692	553601.3129329293
0.7161658439802853	552392.4812126629
0.7162852049542819	551183.4480204433
0.7164045858217744	549974.213322691
0.716523986586078	548764.777085823
0.7166434072505089	547555.1392762495
0.716762847818384	546345.2998603737
0.7168823082930204	546088.2413927729
0.7170017886777359	546111.5035040263
0.7171212889758488	546134.7694922981
0.7172408091906781	546158.0393582347
0.7173603493255433	546181.3131024824
0.7174799093837642	546204.5907256873
0.7175994893686615	546227.8722284961
0.7177190892835562	546251.1576115554
0.7178387091317702	548513.9715534354
0.7179583489166254	551001.9725508122
0.7180780086414448	553490.3882150238
0.7181976883095517	555979.2186151794
0.7183173879242699	558468.4638204018
0.718437107488924	560958.1238998258
0.7185568470068389	563448.1989225972
0.7186766064813399	565847.571721562
0.7187963859157535	565969.2127028645
0.7189161853134061	566090.873957664
0.719036004677625	566212.5554893392
0.7191558440117378	566334.2573012697
0.7192757033190732	566455.9793968356
0.7193955826029597	566577.7217794172
0.7195154818667269	566699.4844523962
0.7196354011137046	566736.384494531
0.7197553403472235	566382.4745288197
0.7198752995706147	566028.5055781142
0.7199952787872098	565674.4776325834
0.720115278000341	565320.3906823951
0.7202352972133411	564966.244717715
0.7203553364295432	564612.0397287079
0.7204753956522815	564257.7757055355
0.7205954748848902	564291.0995855888
0.7207155741307044	565179.0456569269
0.7208356933930594	566067.1397192755
0.7209558326752915	566955.3817973015
0.7210759919807375	567843.7719156748
0.7211961713127342	568732.3100990667
0.7213163706746197	569620.9963721574
0.7214365900697322	570509.8307596259
0.7215568295014103	570782.9125933344
0.721677088972994	570321.1666576859
0.7217973684878227	569859.3437643822
0.7219176680492374	569397.4439005957
0.7220379876605789	568935.4670534988
0.722158327325189	568473.4132102607
0.7222786870464099	568011.282358049
0.7223990668275843	567549.0744840282
0.7225194666720555	567575.1457282929
0.7226398865831676	567947.3315492907
0.7227603265642646	568319.5794012577
0.722880786618692	568691.8892945341
0.7230012667497951	569064.2612394592
0.7231217669609201	569436.6952463752
0.7232422872554135	569809.1913256253
0.7233628276366229	570181.7494875559
0.7234833881078956	570921.0425134738
0.7236039686725803	571799.6702554715
0.7237245693340255	572678.4444354249
0.7238451900955812	573557.3650777432
0.7239658309605971	574436.4322068342
0.7240864919324239	575315.6458471145
0.7242071730144127	576195.0060230016
0.724327874209915	577074.5127589162
0.7244485955222832	575540.6745741769
0.7245693369548704	573607.5303197365
0.7246900985110294	571674.0638745899
0.7248108801941148	569740.2751850305
0.7249316820074803	567806.1641973627
0.7250525039544815	565871.7308578605
0.7251733460384739	563936.9751128014
0.7252942082628137	562007.3708479401
0.7254150906308574	563249.2188971054
0.7255359931459625	564491.2739209457
0.7256569158114868	565733.535953957
0.7257778586307888	566976.005030641
0.7258988216072273	568218.6811855042
0.7260198047441617	569461.5644530584
0.7261408080449525	570704.654867826
0.72626183151296	571834.0979154981
0.7263828751515454	572207.100402007
0.7265039389640706	572580.165055597
0.726625022953898	572953.2918866295
0.7267461271243904	573326.4809054673
0.7268672514789111	573699.7321224747
0.7269883960208241	574073.045548018
0.7271095607534942	574446.4211924657
0.7272307456802866	574730.3266474148
0.7273519508045666	574772.4307461164
0.7274731761297006	574814.5418621679
0.7275944216590555	574856.6599967387
0.7277156873959987	574898.7851509985
0.7278369733438982	574940.9173261174
0.727958279506122	574983.0565232654
0.7280796058860397	575025.202743613
0.7282009524870207	574629.5282504434
0.7283223193124353	573586.1918307492
0.7284437063656539	572542.6815216539
0.7285651136500483	571498.997294172
0.7286865411689898	570455.139119321
0.7288079889258514	569411.106968105
0.7289294569240056	568366.9008115329
0.7290509451668262	567322.5206206001
0.7291724536576875	566575.0625639836
0.7292939823999636	566073.6561125362
0.7294155313970303	565572.1660933458
0.7295371006522632	565070.5924924858
0.7296586901690385	564568.9352960258
0.7297802999507332	564067.1944900334
0.7299019300007252	563565.3700605722
0.7300235803223919	563063.4619937072
0.7301452509191123	563204.5900171595
0.7302669417942654	563642.5859869361
0.7303886529512311	564080.6549560413
0.7305103843933897	564518.7969366413
0.7306321361241218	564957.0119409044
0.7307539081468093	565395.2999810025
0.7308757004648336	565833.6610691062
0.7309975130815778	566272.0952173918
0.7311193460004248	567150.5962203415
0.7312411992247582	568128.852615463
0.7313630727579622	569107.2720533166
0.7314849666034219	570085.8545610775
0.7316068807645224	571064.6001659225
0.7317288152446498	572043.5088950355
0.7318507700471907	573022.5807756038
0.7319727451755319	574001.8158348184
0.732094740633061	573424.323783434
0.7322167564231665	572776.64378826
0.7323387925492371	572128.85584642
0.7324608490146619	571480.9599399233
0.732582925822831	570832.9560507752
0.7327050229771347	570184.8441609798
0.7328271404809642	569536.6242525354
0.7329492783377112	568869.3918112975
0.7330714365507675	568016.1969608621
0.7331936151235259	567162.8599112853
0.7333158140593796	566309.3806388678
0.7334380333617229	565455.7591199037
0.7335602730339499	564601.995330686
0.7336825330794556	563748.0892475032
0.7338048135016354	562894.0408466415
0.7339271143038857	562398.9238702827
0.734049435489603	563106.8677086075
0.7341717770621846	563814.9295375721
0.7342941390250283	564523.1093768411
0.7344165213815324	565231.4072460831
0.734538924135096	565939.8231649711
0.7346613472891185	566648.3571531778
0.734783790847	567357.009230383
0.7349062548121412	567323.0950802892
0.7350287391879431	565976.4503822187
0.7351512439778078	564629.5812433624
0.7352737691851374	563282.4876263179
0.735396314813335	561935.1694936694
0.7355188808658037	560587.6268080011
0.7356414673459482	559239.8595318823
0.7357640742571725	557891.8676278852
0.7358867016028818	556982.7660822574
0.7360093493864824	556507.1787051384
0.7361320176113801	556031.5120634573
0.736254706280982	555555.7661440026
0.7363774153986956	555079.9409335606
0.7365001449679286	554604.0364189178
0.7366228949920899	554128.0525868556
0.7367456654745885	553651.9894241547
0.7368684564188344	553332.5706851925
0.7369912678282374	553101.6756803534
0.7371140997062088	552870.7421930133
0.7372369520561599	552639.7702167586
0.7373598248815024	552408.7597451749
0.7374827181856494	552177.7107718455
0.7376056319720137	551946.623290354
0.7377285662440091	551715.4972942822
0.7378515210050496	551263.9057534536
0.7379744962585505	550745.9191616357
0.738097492007927	550227.8462387192
0.7382205082565949	549709.686970316
0.738343545007971	549191.4413420347
0.7384666022654723	548673.1093394816
0.7385896800325165	548154.690948262
0.7387127783125219	547636.1861539767
0.7388358971089073	547076.5433006451
0.7389590364250921	546512.6895919611
0.7390821962644963	545948.7419076585
0.7392053766305403	545384.7002320761
0.7393285775266454	544820.5645495473
0.7394517989562333	544256.3348444042
0.7395750409227259	543692.0111009779
0.7396983034295463	543111.1592953545
0.739821586480118	542164.6239374719
0.7399448900778645	541217.9308236982
0.7400682142262109	540271.079927736
0.740191558928582	539324.071223292
0.7403149241884034	538376.9046840648
0.7404383100091014	537429.5802837474
0.7405617163941028	536482.0979960307
0.7406851433468352	535421.0676066823
0.7408085908707264	533841.1275385281
0.7409320589692048	532260.9241470299
0.7410555476456997	530680.4573882984
0.7411790569036406	529099.7272184417
0.7413025867464579	527518.7335935561
0.7414261371775823	525937.4764697327
0.7415497082004452	524355.9558030566
0.7416732998184786	522808.50683459436
0.741796912035115	521334.45590438985
0.7419205448537874	519860.1592990306
0.7420441982779297	518385.6169775706
0.742167872310976	516910.82889905554
0.7422915669563612	515435.7950225275
0.7424152822175206	513960.51530702045
0.7425390180978901	512484.9897115617
0.7426627746009065	511300.037786992
0.7427865517300065	510469.41827795136
0.7429103494886282	509638.6603323251
0.7430341678802096	508807.7639270418
0.7431580069081896	507976.7290390243
0.7432818665760077	507145.55564519105
0.7434057468871037	506314.2437224595
0.7435296478449182	505482.7932477413
0.7436535694528923	504358.72411392897
0.7437775117144678	503034.25604648254
0.7439014746330868	501709.56723436015
0.7440254582121922	500384.6576407679
0.7441494624552276	499059.5272289096
0.7442734873656368	497734.1759619829
0.7443975329468645	496408.60380317736
0.7445215992023557	495082.81071567885
0.7446456861355559	493543.48770009587
0.7447697937499119	491925.33077263366
0.7448939220488703	490306.9041523506
0.7450180710358784	488688.20779429894
0.7451422407143843	487069.24165352073
0.7452664310878367	485450.00568505086
0.7453906421596846	483830.49984392134
0.7455148739333779	482210.7240851511
0.7456391264123667	480400.2849373295
0.7457633996001021	478559.1011935724
0.7458876935000356	476717.61058585474
0.7460120081156189	474875.81306303927
0.7461363434503048	473033.7085739692
0.7462606995075466	471191.29706748255
0.7463850762907978	469348.5784924143
0.7465094738035127	467505.439163758
0.7466338920491467	465632.26666835434
0.746758331031155	463758.78197753296
0.7468827907529935	461884.9850392653
0.7470072712181189	460010.8758015079
0.7471317724299886	458136.45421221055
0.7472562943920602	456261.72021931625
0.7473808371077922	454386.67377075483
0.7475054005806435	452487.23700767884
0.7476299848140736	450439.17382479814
0.7477545898115426	448390.76929805323
0.7478792155765113	446342.02337055333
0.7480038621124406	444292.93598540046
0.7481285294227926	442243.5070856839
0.7482532175110298	440193.73661448184
0.7483779263806148	438143.6245148708
0.7485026560350116	436048.3656345026
0.7486274064776842	433831.4942315834
0.748752177712097	431614.253350101
0.7488769697417158	429396.642928467
0.749001782570006	427178.66290509875
0.7491266162004343	424960.31321839395
0.7492514706364677	422741.5938067403
0.7493763458815739	420522.5046085158
0.7495012419392209	418205.0690268579
0.7496261588128773	415746.3942607128
0.7497510965060128	413287.3097154382
0.7498760550220971	410827.8153227404
0.7500010343646007	408367.9110143101
0.7501260345369949	405907.5967218271
0.750251055542751	403446.87237696483
0.7503760973853414	400985.7379113769
0.7505011600682389	398416.5301187377
0.750626243594917	395756.99786641693
0.7507513479688495	393097.0223587248
0.7508764731935109	390436.60352178046
0.7510016192723765	387775.741281696
0.7511267862089218	385114.43556457397
0.7512519740066232	382452.6862964981
0.7513771826689577	379790.4934035428
0.7515024121994025	377032.52204207034
0.7516276626014359	374229.6405915449
0.751752933878536	371426.2919941159
0.7518782260341824	368622.4761719198
0.7520035390718548	365818.19304708537
0.7521288729950334	363013.4425417316
0.7522542278071992	360208.22457796003
0.7523796035118337	357402.5390778598
0.7525050001124189	354414.34192602837
0.7526304176124378	351386.0562344883
0.7527558560153731	348357.2658286703
0.752881315324709	345327.9706244483
0.7530067955439299	342298.1705376912
0.7531322966765205	339267.86548425705
0.7532578187259665	336237.0553799797
0.7533833616957542	333205.7401406851
0.75350892558937	330007.63007688086
0.7536345104103016	326801.1675822262
0.7537601161620366	323594.1706771574
0.7538857428480638	320386.6392726013
0.7540113904718717	317178.5732794819
0.7541370590369503	313969.9726086977
0.7542627485467898	310760.837171133
0.7543884590048808	307540.692868249
0.7545141904147151	304215.5638659243
0.7546399427797842	300889.8806754379
0.7547657161035808	297563.64320441923
0.754891510389598	294236.8513604889
0.7550173256413296	290909.50505124993
0.7551431618622698	287581.60418429354
0.7552690190559135	284253.14866719337
0.7553948972257561	280877.4352814314
0.7555207963752938	277344.3944654287
0.755646716508023	273810.7648092921
0.755772657627441	270276.54621487827
0.7558986197370455	266741.73858403147
0.756024602840335	263206.3418185804
0.7561506069408084	259670.35582033516
0.7562766320419653	256133.78049108703
0.7564026781473054	252498.80301444253
0.75652874526033	248691.09541986312
0.7566548333845401	244882.75320734928
0.7567809425234375	241073.77627113473
0.7569070726805247	237264.16450543297
0.7570332238593047	233453.91780443743
0.7571593960632813	229643.03606232145
0.7572855892959586	225831.5191732482
0.7574118035608413	222057.92874871055
0.7575380388614347	218321.43557899806
0.7576642952012449	214584.31966042257
0.7577905725837782	210846.58088919934
0.7579168710125422	207108.21916150762
0.7580431904910444	203369.23437352653
0.7581695310227928	199629.62642141883
0.7582958926112967	195889.39520131442
0.7584222752600652	192077.35569988738
0.7585486789726085	188223.78784477693
0.7586751037524372	184369.57772835583
0.7588015496030628	180514.72524357447
0.7589280165279966	176659.23028338663
0.7590545045307512	172803.0927407054
0.7591810136148396	168946.31250843382
0.7593075437837755	165088.88947945117
0.7594340950410726	161218.73118549323
0.7595606673902461	157344.41942894054
0.7596872608348112	153469.46195375788
0.7598138753782836	149593.85865233364
0.75994051102418	145717.6094170222
0.7600671677760173	141840.71414017456
0.7601938456373134	137963.17271411113
0.7603205446115863	134084.98503114557
0.7604472647023548	130196.00448010802
0.7605740059131385	126305.36720441183
0.7607007682474575	122414.0814891659
0.7608275517088319	118522.1472263094
0.7609543563007835	114629.56430773379
0.7610811820268336	110736.33262534076
0.7612080288905045	106842.45207100814
0.7613348968953197	102945.44405387096
0.7614617860448022	98996.93354296453
0.7615886963424764	95047.76494696757
0.7617156277918667	91097.93815620842
0.7618425803964988	87147.45306098089
0.7619695541598982	83196.30955157187
0.7620965490855914	79244.50751824754
0.7622235651771058	75292.04685124641
0.7623506024379685	71427.25432039738
0.7624776608717082	67948.96401236113
0.7626047404818536	64470.09398927337
0.7627318412719337	60990.644154521084
0.762858963245479	57510.61441146081
0.7629861064060198	54030.00466344305
0.7631132707570876	50548.81481379701
0.7632404563022137	47067.044765845814
0.7633676630449308	43763.6422287818
0.7634948909887717	40840.60958922869
0.7636221401372697	37917.08977757279
0.7637494104939593	34993.0827126122
0.7638767020623748	32068.588313145
0.7640040148460518	29143.606497941226
0.7641313488485262	26218.137185768355
0.7642587040733344	23292.180295373473
0.7643860805240132	20778.815069757155
0.7645134782041005	18757.95841284914
0.7646408971171346	16736.764946497464
0.764768337266654	14715.234614568804
0.7648957986561985	12693.367360917502
0.7650232812893079	10671.163129390861
0.7651507851695227	8648.621863825612
0.7652783103003843	6625.743508049685
0.7654058566854343	5428.502610994936
0.7655334243282153	4793.985464121222
0.7656610132322699	4159.362564390523
0.765788623401142	3524.6338941759395
