#wavelength	surface flux
0.6450077295303345	148297.83137038327
0.6472567915916443	153607.40776670125
0.6494921445846558	159514.95236272988
0.6517150402069092	165518.95352224697
0.6539263725280762	171004.77088812375
0.6561272740364075	177074.48712621786
0.6583186388015747	182721.68914607778
0.6605015397071838	189317.99577556856
0.6626768708229065	194676.17956544118
0.6648455858230591	201241.47512713043
0.6670085787773132	206984.41726387976
0.6691668033599854	197908.9602984076
0.6713210344314575	185698.67167654875
0.6734722256660461	224483.38180543203
0.6756211519241333	234295.7551958742
0.6777685880661011	242509.5690228301
0.6799154281616211	248647.78084198953
0.6820623278617859	256147.8265383048
0.6842101216316223	264825.1786572324
0.6863595843315125	272585.78368335107
0.688511312007904	280111.3393206235
0.6906660795211792	286499.8772723752
0.6928245425224304	293834.96932208736
0.6949873566627502	304490.84074233763
0.6971551775932312	313452.5520803219
0.6993286609649658	322020.0188176057
0.7015084028244019	330679.65005818615
0.7036949396133423	339604.3175022824
0.7058889269828796	349033.74144011043
0.7080909013748169	358180.7355624762
0.710301399230957	367604.0182630508
0.712520956993103	377342.5596307546
0.7147500514984131	386896.284606311
0.7169892191886902	395210.8751659313
0.7192389369010925	406160.90265110147
0.7214996814727783	416172.8645058706
0.723771870136261	426300.2260837081
0.7260559797286987	436179.42486108484
0.7283523678779602	446723.144923162
0.7306615710258484	456590.3637740823
0.7329838871955872	467722.203592739
0.7353196740150452	477899.8513284177
0.7376693487167358	487854.6347278074
0.7400332689285278	497750.1400977906
0.7424117922782898	505451.814829087
0.7448052167892456	512857.3367163152
0.7472138404846191	517515.55559809634
0.7496379613876343	518765.4558577401
0.7520779371261597	514022.80741317355
0.7545340061187744	499779.2328695988
0.7570064663887024	468830.16484002874
0.7594954967498779	410334.089399255
0.7620013952255249	298970.9741845463
0.7645244002342224	118977.54493390961
0.7670646905899048	25540.437887437747
0.7696225643157959	25794.028635782324
0.7721980810165405	215244.8127116804
0.7747915983200073	422240.9709827256
0.7774031162261963	544444.4566995564
0.7800329327583313	584541.8188905884
0.7826811671257019	685504.0577572214
0.7853479981422424	739008.0509229947
0.7880334854125977	779862.9438733455
0.7907378077507019	814215.8794136238
0.7934610247612	682632.007043101
0.7962033748626709	742326.3379687162
0.7989648580551147	907224.1565332223
0.801745593547821	937579.194555548
0.8045456409454346	966201.8332411974
0.8073651194572449	993851.8694511254
0.8102040886878967	1017958.129770754
0.8130625486373901	1044034.4022579772
0.8159406185150146	1078313.1930636559
0.8188382983207703	1103071.3917241911
0.8217556476593018	1136284.1455395413
0.8246926665306091	1167784.7636048263
0.8276493549346924	1198562.1082564958
0.8306257724761963	1227903.3709484043
0.8336219191551208	1261280.2308909951
0.8366377949714661	1290779.268071106
0.8396733403205872	1324059.2436884418
0.8427285552024841	1363167.2668689415
0.8458034992218018	1398111.683771146
0.8488980531692505	1433582.1712747372
0.8520121574401855	1461907.15186003
0.8551458716392517	1507583.2880924342
0.8582990765571594	1546910.0287788194
0.8614717125892639	1563611.6136911416
0.8646637797355652	1597287.4944815885
0.8678751587867737	1647060.3408306383
0.8711057901382446	1686054.5324154005
0.8743556141853333	1729163.31820819
0.87762451171875	1775556.2301391985
0.8809124231338501	1806169.22441346
0.8842192888259888	1861452.4382799265
0.8875449895858765	1903605.4456790236
0.8908893465995789	1937103.778095905
0.894252359867096	1970542.933136462
0.8976338505744934	2037390.966577476
0.9010337591171265	2092107.2237810818
0.9044519662857056	2149285.9368739347
0.9078882932662964	2198835.125417906
0.9113426208496094	2253717.913579369
0.914814829826355	2294932.887481442
0.9183048605918884	2336491.73391525
0.9218124747276306	2406142.787113154
0.925337553024292	2417717.0155249177
0.9288799166679382	2324539.021119196
0.9324395060539246	2428128.066907331
0.9360161423683167	2496466.300471366
0.9396095871925354	2608652.1952698347
0.943219780921936	2636187.387326039
0.9468464851379395	2646681.286407745
0.9504896402359009	2752135.1769138626
0.9541489481925964	2814343.5783175514
0.9578243494033813	2879824.2422448397
0.9615156054496765	2857554.573510478
0.9652225375175476	2941991.080427909
0.9689450263977051	2984057.7848312566
0.9726828336715698	3186284.4812995815
0.9764357805252075	3232515.644262892
0.9802037477493286	3326403.2864572313
0.983986496925354	3401923.989126836
0.9877838492393494	3480923.7580423914
0.9915955662727356	3569443.5984904664
0.9954215884208679	3652545.4016698804
0.9992615580558777	3723435.3666737587
1.0031154155731201	3790562.9833631963
1.0069829225540161	3882922.556691879
1.0108637809753418	3971525.315431842
1.0147579908370972	4065621.6833949713
1.018665075302124	4152591.9439445212
1.022585153579712	4224041.597143542
1.0265177488327026	4294673.481991276
1.0304628610610962	4362388.664015389
1.0344202518463135	4489889.008632829
1.0383895635604858	4575563.755223674
1.0423706769943237	4661800.856839988
1.0463634729385376	4749429.1664145915
1.0503677129745483	4827317.860169852
1.0543830394744873	4924970.113221814
1.058409333229065	5016913.476302312
1.0624464750289917	5104964.953652531
1.0664942264556885	5196200.954906722
1.0705522298812866	5280585.749754433
1.0746204853057861	5381238.982732471
1.0786986351013184	5470441.756241395
1.0827864408493042	5567396.678903565
1.086883783340454	5655003.978414839
1.0909905433654785	5710157.943328117
1.0951062440872192	5780609.213729864
1.0992310047149658	5762810.283380787
1.10336434841156	5511833.21409777
1.1075061559677124	5644579.1017414825
1.1116561889648438	5679970.243756587
1.115814208984375	5591207.593321243
1.1199802160263062	5708230.773653326
1.124153733253479	5928027.708120222
1.1283347606658936	6099251.429838622
1.1325229406356812	5749746.892039396
1.1367181539535522	6135498.408515406
1.1409201622009277	6439741.5391492555
1.145128846168518	6652998.161215368
1.1493438482284546	6631816.441259004
1.1535650491714478	5944435.863703362
1.1577922105789185	6370754.977431309
1.1620250940322876	6481305.27655079
1.1662636995315552	7008175.673106618
1.170507550239563	6945850.000214647
1.174756646156311	7283290.153051525
1.1790107488632202	7590283.983223203
1.1832695007324219	7810629.233836898
1.1875330209732056	7912461.255132548
1.191800832748413	8086082.021458191
1.1960728168487549	8259205.440033287
1.2003488540649414	8405147.387151811
1.2046287059783936	8480377.028553378
1.2089121341705322	8620660.40302282
1.2131990194320679	8732223.086582933
1.2174891233444214	8892334.474862901
1.2217823266983032	9017079.822015967
1.2260783910751343	9147531.18590194
1.230377197265625	9265661.277658924
1.2346785068511963	9382360.113103785
1.238982081413269	9508651.44282568
1.2432878017425537	9622814.80722704
1.2475954294204712	9741295.341130285
1.2519049644470215	9775219.103986606
1.256216049194336	9976961.159092683
1.2605286836624146	10085301.195989847
1.2648425102233887	10186691.350747894
1.2691574096679688	10301001.000622857
1.2734732627868652	10401841.993690481
1.2777899503707886	10528193.007177744
1.2821072340011597	10613544.34437204
1.2864248752593994	10728869.184598848
1.2907428741455078	10769724.364738723
1.2950609922409058	10891837.302226251
1.2993791103363037	11006230.227611829
1.303696870803833	11050366.722385949
1.3080145120620728	11160083.115834843
1.3123314380645752	11265639.39505663
1.3166478872299194	11455055.079068594
1.3209635019302368	11488072.073298937
1.3252781629562378	11322263.833523434
1.3295916318893433	11076983.384485465
1.3339040279388428	9626000.37745574
1.3382149934768677	6972886.562140055
1.3425244092941284	5673638.664999473
1.3468321561813354	7967217.180118794
1.3511382341384888	6630058.176039782
1.3554422855377197	5019003.47847126
1.3597444295883179	5765786.076218956
1.3640443086624146	6153747.374897837
1.3683418035507202	6659915.223772916
1.3726370334625244	8408152.756416446
1.3769296407699585	10058403.240483282
1.381219506263733	7412673.755304347
1.3855066299438477	5069429.250580292
1.3897908926010132	5634735.9957433855
1.3940720558166504	5900575.262941039
1.3983501195907593	5380019.273347511
1.4026249647140503	7486339.462043152
1.4068963527679443	9425033.03171748
1.4111642837524414	6012804.485078793
1.4154287576675415	6804495.974059671
1.419689416885376	7735105.019527264
1.4239463806152344	5893964.811347358
1.4281994104385376	8838027.538127458
1.4324485063552856	6879835.6994137205
1.436693549156189	7825233.833295739
1.440934419631958	8164091.672897939
1.4451709985733032	9667174.671956124
1.449403166770935	11324157.251996217
1.453631043434143	11566369.713462984
1.4578542709350586	11982168.871469114
1.4620729684829712	12086310.047550919
1.4662868976593018	12555785.807650167
1.4704961776733398	12010551.925416814
1.4747005701065063	12279591.87381809
1.4788999557495117	12445065.18151945
1.4830944538116455	13232786.573988555
1.4872838258743286	13704108.834990254
1.491468071937561	13777873.003306733
1.4956470727920532	13619428.493426254
1.4998208284378052	14206926.210950552
1.5039892196655273	14687030.129252657
1.5081522464752197	14539130.797911465
1.5123097896575928	14729151.84065773
1.5164618492126465	15091343.876779893
1.5206083059310913	15631073.931920765
1.5247491598129272	15983013.396534245
1.5288842916488647	15829632.970947362
1.5330137014389038	16101121.432003453
1.5371372699737549	16347677.519147415
1.541254997253418	16380027.56788333
1.545366883277893	16594836.043525629
1.5494728088378906	16756376.543058358
1.5535727739334106	16939791.629504085
1.5576666593551636	16873520.090466376
1.561754584312439	17015583.509158984
1.5658363103866577	17326932.186730623
1.5699119567871094	17470946.77546419
1.5739814043045044	17447796.80894262
1.5780447721481323	17380879.23877128
1.582101821899414	17608520.97512717
1.5861525535583496	17934187.885760114
1.5901970863342285	17992310.222569037
1.5942351818084717	18052914.024298277
1.5982669591903687	18053126.317153975
1.6022924184799194	18171433.22355006
1.606311559677124	18291860.316188976
1.6103241443634033	18363340.889603913
1.6143304109573364	18400620.573876377
1.6183301210403442	18473357.40000357
1.6223233938217163	18510679.114265002
1.6263102293014526	18624361.806438915
1.6302905082702637	18585366.89893964
1.634264349937439	18727441.47020298
1.638231635093689	19064821.810454674
1.6421923637390137	19160672.080738187
1.646146535873413	19156929.9382989
1.6500942707061768	19084111.03431283
1.6540353298187256	19288615.13148677
1.6579699516296387	19378864.13125871
1.661897897720337	19351871.133030545
1.6658192873001099	18913825.841505647
1.6697341203689575	18908452.541055348
1.6736423969268799	19571717.727911025
1.677544116973877	19663881.847009785
1.6814392805099487	19686804.45579751
1.6853278875350952	19764130.197041087
1.6892099380493164	19726615.674289793
1.6930854320526123	19525707.67725939
1.696954369544983	19249889.617991555
1.7008168697357178	19528838.05006452
1.7046726942062378	19541817.24450713
1.708522081375122	19719555.543150436
1.712364912033081	19702893.101317693
1.7162011861801147	19846448.957465265
1.7200311422348022	20054757.272141017
1.723854422569275	20025609.84459498
1.7276713848114014	19970315.078969806
1.731481909751892	19722990.082065903
1.7352858781814575	19462416.066774584
1.7390835285186768	19358902.935969923
1.7428747415542603	19182324.239903722
1.7466596364974976	18706044.024194635
1.7504380941390991	18349658.000564285
1.7542102336883545	17360652.833796065
1.7579760551452637	18845797.77312883
1.7617355585098267	19680897.715580977
1.7654887437820435	18936280.904679686
1.7692357301712036	17588147.031589016
1.7729763984680176	16120584.910642639
1.776710867881775	13316959.891421804
1.7804391384124756	13098317.044364203
1.7841613292694092	14063811.072167126
1.7878772020339966	12237428.549923467
1.7915871143341064	13430471.568167645
1.7952908277511597	13943527.065539991
1.7989884614944458	13084380.468448592
1.8026801347732544	10308373.031957518
1.806365728378296	7496896.624922901
1.8100452423095703	8210533.633778645
1.8137187957763672	11026274.833012579
1.817386507987976	7701538.148871252
1.8210482597351074	10737076.758027548
1.8247040510177612	11702458.157813616
1.828354001045227	7489707.279062266
1.8319982290267944	9305922.970324753
1.8356364965438843	11309821.048539497
1.8392690420150757	13407732.517534249
1.8428958654403687	13024300.4356567
1.8465168476104736	13003662.762331061
1.8501322269439697	12754583.46304678
1.8537418842315674	8721239.506284941
1.8573459386825562	8831413.637558931
1.860944390296936	9423005.802678304
1.864537239074707	7620462.8104528785
1.8681244850158691	9847454.668565933
1.871706247329712	12409523.204351349
1.8752825260162354	13791596.20631786
1.8788533210754395	14951607.605720969
1.8824186325073242	16029006.003173316
1.8859784603118896	14764480.84230582
1.8895330429077148	14483422.224502746
1.8930821418762207	16395327.615623308
1.8966259956359863	15926395.588859208
1.9001644849777222	11551812.19632098
1.9036977291107178	8942698.504979981
1.9072256088256836	11147276.644270655
1.9107483625411987	10604778.938061133
1.9142658710479736	7369281.630436415
1.9177782535552979	8220015.68258273
1.9212853908538818	10478604.356214333
1.9247875213623047	9283639.45529609
1.9282845258712769	9896998.34254255
1.9317764043807983	11891376.888184119
1.9352631568908691	12140539.6636645
1.9387450218200684	10861845.493637586
1.942221760749817	11496191.067189133
1.9456936120986938	11623123.701614983
1.9491604566574097	11729210.123246774
1.952622413635254	11023238.786786456
1.956079363822937	9962747.712937653
1.959531545639038	11424609.339029266
1.962978720664978	11633556.013354294
1.966421127319336	12747818.788877932
1.9698586463928223	14923163.720734712
1.9732913970947266	15057420.08448578
1.9767193794250488	15276587.764710994
1.9801424741744995	16753324.080042806
1.9835609197616577	17614951.3229209
1.9869745969772339	17721317.497731432
1.990383505821228	16070123.870892735
1.9937876462936401	16353752.226971783
1.9971871376037598	16281017.189797912
2.000581979751587	16623086.151963498
2.003972291946411	18525845.36263952
2.007357597351074	18914805.907784052
2.0107386112213135	19885743.082711216
2.0141148567199707	20113410.48873051
2.017486572265625	19230384.97632437
2.0208535194396973	19728616.104459353
2.0242159366607666	20823469.388957445
2.027573823928833	21158288.637493905
2.0309269428253174	21468907.656868
2.034275770187378	21883640.243523497
2.0376198291778564	22102820.584352687
2.040959596633911	22326237.724933375
2.044294595718384	22652640.951499112
2.0476250648498535	23034647.286539428
2.0509510040283203	23071956.061721537
2.054272413253784	22829363.444950607
2.057589530944824	22994812.28826454
2.0609018802642822	23265608.019426055
2.0642096996307373	23465651.539428454
2.0675129890441895	23600865.921543952
2.0708119869232178	23658190.159264617
2.074106216430664	23604113.680675592
2.0773961544036865	23604305.678963557
2.080681324005127	23714776.392501432
2.0839622020721436	23809554.83632218
2.087238311767578	23888394.61845603
2.090510129928589	23888264.786935028
2.0937774181365967	23830328.20554065
2.0970399379730225	23891992.904855885
2.1002981662750244	23916282.242436368
2.1035518646240234	23877858.456659038
2.1068007946014404	23815172.811438963
2.1100454330444336	23951015.853218373
2.1132853031158447	24105428.085485104
2.116520881652832	24060752.116009723
2.1197516918182373	24056522.812406525
2.1229779720306396	24128043.721340295
2.12619948387146	24180136.396334637
2.1294167041778564	24193654.124786235
2.132629156112671	24229336.411511697
2.1358368396759033	24203210.52746797
2.139039993286133	24127506.039358225
2.1422386169433594	24091811.55209787
2.145432472229004	24069390.302008115
2.1486217975616455	24047314.67159976
2.151806354522705	23984782.146083444
2.1549863815307617	24009228.318343114
2.1581614017486572	24057118.866140015
2.16133189201355	24009793.11363294
2.1644976139068604	23997519.897280794
2.167658567428589	23988189.096336994
2.1708147525787354	23974131.822232362
2.173966407775879	23923482.385151245
2.1771130561828613	23890388.662754975
2.1802549362182617	23891522.674647618
2.183391809463501	23857977.612587534
2.1865241527557373	23775518.273307297
2.1896514892578125	23648006.826234113
2.1927738189697266	23286431.541943002
2.1958916187286377	22652939.23344728
2.1990041732788086	22096076.30441701
2.2021119594573975	21829627.77133882
2.2052149772644043	21736439.04718504
2.208312749862671	21845394.769487686
2.2114057540893555	22135619.808269493
2.214493751525879	22334092.7029975
2.217576742172241	22265164.106959738
2.2206547260284424	22220837.153531596
2.2237277030944824	22169995.035113357
2.2267956733703613	21801061.866815675
2.2298583984375	21348401.081333525
2.2329163551330566	21134357.94113732
2.235969066619873	21121935.03661959
2.2390167713165283	21002308.238760214
2.2420592308044434	20516293.950466376
2.2450966835021973	20023174.009663697
2.248128890991211	20158675.90813155
2.2511560916900635	20639932.170142557
2.254178285598755	20892500.861589607
2.257194995880127	21035150.023274425
2.260206699371338	20968415.03980016
2.2632133960723877	20448568.699692987
2.266214609146118	19860768.03218985
2.2692108154296875	19719700.299624704
2.2722020149230957	20063589.694400087
2.2751877307891846	20389396.014060345
2.278168201446533	20284040.23670057
2.2811436653137207	19946623.177094452
2.284113883972168	19719068.395437222
2.287078857421875	19516668.28017361
2.290038824081421	19103135.206159793
2.2929933071136475	18397667.399410732
2.295942783355713	17464623.900970154
2.298887014389038	16516793.083350383
2.301826238632202	15797896.131213373
2.304760217666626	15390388.82394235
2.3076889514923096	15313238.732248766
2.310612440109253	15625627.288990987
2.3135311603546143	15754598.652879497
2.3164443969726562	14882128.949103909
2.319352865219116	13847465.25590401
2.322256088256836	13547409.338627132
2.3251543045043945	13485045.158687977
2.328047275543213	13489654.801501168
2.330935478210449	13767810.828452336
2.3338186740875244	14131564.338438332
2.3366971015930176	14501691.173174782
2.3395702838897705	14857918.087038588
2.3424389362335205	15177136.597509582
2.3453025817871094	15473479.781373503
2.348161458969116	15664706.466628132
2.351015567779541	15792388.53261104
2.353865146636963	15952864.389172813
2.3567099571228027	16110933.731206145
2.3595502376556396	16391912.01713274
2.3623859882354736	16957463.258333422
2.3652172088623047	16762648.700471858
2.368043899536133	15011263.750788962
2.370866537094116	14072312.617523996
2.3736846446990967	14486294.226193227
2.3764986991882324	14352976.229903148
2.3793084621429443	13794195.549196705
2.3821144104003906	13861765.454594623
2.384916305541992	14950740.526788356
2.387714147567749	16386057.803927653
2.3905084133148193	17180165.740671683
2.393299102783203	17068774.051025018
2.3960859775543213	16172562.677252786
2.398869514465332	15421172.382946681
2.4016497135162354	14976182.622174086
2.4044265747070312	14956789.3631514
2.407200336456299	15366908.719932392
2.409970998764038	15925238.474396637
2.4127390384674072	16273322.389728041
2.415503978729248	16515294.47379814
2.418266534805298	17035080.060405545
2.4210267066955566	17266736.401256196
2.4237842559814453	16949382.443595234
2.426539897918701	16538553.038654277
2.429293394088745	16396154.584936632
2.4320452213287354	16561824.73623135
2.4347951412200928	16784441.128851533
2.4375438690185547	16794575.601436757
2.440291166305542	16381290.21661401
2.443037271499634	15681059.486584498
2.445782423019409	14890735.26042964
2.4485268592834473	14244217.198262546
2.451270818710327	14147692.580096299
2.454014539718628	14904765.641635505
2.4567582607269287	15787270.050046686
2.4595019817352295	15354262.05157522
2.4622461795806885	15499523.581886554
2.4649908542633057	15094619.249709474
2.4677364826202393	13673303.558754683
2.4704833030700684	11547452.65743493
2.473231554031372	9540511.264033083
2.4759814739227295	8087755.299290744
