#wavelength	surface flux
0.428837	152.7337747512803
0.43312537	300.4440649089302
0.43745662370000005	355.9387394637821
0.4418311899370001	420.7618646318715
0.44624950183637	496.0641887567907
0.4507119968547338	582.793437235978
0.45521911682328114	678.2052521853539
0.4597713079915139	798.4548924809435
0.4643690210714291	932.1663538982698
0.4690127112821433	1083.0725173819028
0.47370283839496474	1254.6979624785774
0.47843986677891437	1446.586491704901
0.48322426544670355	1662.7790886357946
0.48805650810117057	1905.202628214885
0.4929370731821824	2169.869315465865
0.49786644391400414	2454.674472457894
0.5028451083531442	2757.868097768564
0.5078735594366757	3070.7683387740462
0.5129522950310424	3373.114079701044
0.5180818179813528	3658.3903797358093
0.5232626361611664	3978.1932782036806
0.5284952625227781	4193.074331571323
0.5337802151480058	4298.881567404229
0.5391180172994858	4256.930672307746
0.5445091974724807	4021.2736907245267
0.5499542894472055	3564.3804634612025
0.5554538323416777	2885.903852231478
0.5610083706650945	2056.0504670443793
0.5666184543717453	1219.9214954490992
0.5722846389154628	562.6281392122071
0.5780074853046174	185.9372731050377
0.5837875601576636	40.0967736540817
0.5896254357592402	3.315999537998478
0.5955216901168326	75.26080256268362
0.6014769070180009	386.39740328183325
0.607491676088181	1290.2461588436133
0.6135665928490629	3177.6910907991005
0.6197022587775535	6287.1462094929375
0.625899281365329	10682.262621425334
0.6321582741789823	16278.617322273401
0.6384798569207721	22963.589344573644
0.6448646554899798	30482.39598654086
0.6513133020448797	39077.242417296846
0.6578264350653285	48181.079617410614
0.6644046994159818	58304.627068381706
0.6710487464101416	54233.91245055837
0.677759233874243	80848.06756401218
0.6845368262129854	93196.94904661403
0.6913821944751153	103229.97809307759
0.6982960164198664	117285.82728642695
0.7052789765840651	129320.60080630486
0.7123317663499058	140022.29681707566
0.7194550840134049	143192.6522304772
0.7266496348535388	142447.12377807533
0.7339161312020743	139468.77723400146
0.741255292514095	123010.20912904396
0.748667845439236	86511.05174340424
0.7561545238936284	35792.310668913604
0.7637160691325647	3582.1491162730053
0.7713532298238903	2863.475685767534
0.7790667621221293	37900.461051966915
0.7868574297433505	137785.14411442922
0.7947260040407841	132088.92858034375
0.8026732640811919	339969.91146771266
0.8106999967220039	407587.5228718589
0.8188069966892239	503831.03562597645
0.8269950666561161	581827.0320958103
0.8352650173226772	645295.7023382594
0.8436176674959041	751441.4673761475
0.852053844170863	805924.0107332774
0.8605743826125718	935199.3220591594
0.8691801264386976	1025128.6671116279
0.8778719277030844	1107207.9519921397
0.8866506469801153	1137488.489195493
0.8955171534499164	1086223.5358137626
0.9044723249844157	1365890.1970584467
0.9135170482342599	1451632.8281895893
0.9226522187166025	1508113.6310208146
0.9318787409037684	825175.6311904342
0.941197528312806	1192549.5857018956
0.9506095035959342	1067596.8816024736
0.9601155986318936	1048697.3952587256
0.9697167546182125	1265604.945417573
0.9794139221643946	1820189.191092941
0.9892080613860387	2189529.1328904396
0.9991001419998989	2525567.307917061
1.0090911434198981	2778333.062914694
1.019182054854097	3061665.11631514
1.0293738754026378	3136944.925027036
1.0396676141566643	3473784.4865973084
1.050064290298231	3627755.5958602168
1.0605649332012133	3862760.376940124
1.0711705825332256	4000801.4621527917
1.0818822883585577	4223971.812691126
1.0927011112421434	4042279.4105902715
1.1036281223545648	1896386.5170110227
1.1146644035781104	1525502.2364889642
1.1258110476138916	1482597.2481170385
1.1370691580900303	1866397.3598352822
1.1484398496709307	2335967.3779638065
1.1599242481676402	870836.9223328732
1.1715234906493166	2154675.3294183193
1.1832387255558097	4555235.021862115
1.1950711128113678	5775457.658300454
1.2070218239394814	6358873.088915005
1.2190920421788762	6939416.790909085
1.2312829626006652	7455039.86661553
1.2435957922266716	7879611.252148067
1.2560317501489384	8213786.539501884
1.2685920676504279	8350560.665037647
1.281277988326932	8391645.200104268
1.2940907682102014	7894800.468464953
1.3070316758923035	7419318.398744447
1.3201019926512265	7859898.753568257
1.3333030125777388	2227569.549480996
1.3466360427035162	266755.9230368408
1.3601024031305513	61040.292568704725
1.373703427161857	382076.12618312
1.3874404614334754	37125.49502576172
1.4013148660478103	180015.73612112654
1.4153280147082883	128206.96584548801
1.4294812948553712	204258.85095478967
1.443776107803925	531973.4416999483
1.4582138688819641	1929427.7924331152
1.4727960075707838	1621746.5811329824
1.4875239676464918	3412305.6929964772
1.5023992073229566	4149008.0347092124
1.5174231993961862	6271539.416581052
1.532597431390148	8697696.976693977
1.5479234057040496	10808259.86694745
1.5634026397610903	12161672.795129327
1.579036666158701	11675565.510286402
1.594827032820288	12979637.240734648
1.610775303148491	11608510.740226172
1.6268830561799759	7377693.400600121
1.6431518867417756	11080283.071870409
1.6595834056091934	9669830.13692592
1.6761792396652853	7604744.689612339
1.6929410320619382	4690105.57578407
1.7098704423825577	5042857.693512981
1.7269691468063835	6781928.069732814
1.744238838274447	4942917.551337926
1.7616812266571917	5245424.866981508
1.7792980389237634	762846.470597737
1.7970910193130012	1460356.6400569042
1.815061929506131	328921.186509412
1.8332125488011928	202744.23041115305
1.8515446742892046	547130.7894806036
1.8700601210320964	205968.30811614936
1.8887607222424174	1436176.0202250858
1.9076483294648416	103440.05046804358
1.92672481275949	126410.30457869399
1.9459920608870853	476632.8452646279
1.9654519814959561	742370.4108823352
1.9851065013109155	2377687.2049185387
2.0049575663240247	3790279.5364104756
2.025007141987265	5304007.373482488
2.0452572134071376	10730902.63197362
2.065709785541209	12712094.089087628
2.086366883396621	12905356.284003897
2.107230552230587	11609124.177206105
2.1283028577528933	10411279.337351173
2.1495858863304225	7445038.3700395785
2.1710817451937263	6410884.592056076
2.1927925626456637	3054156.345075394
2.2147204882721203	1306864.653828806
2.2368676931548412	507966.2291203333
2.25923637008639	474810.9728105529
2.281828733787254	406851.60163952224
2.3046470211251266	658647.4976761284
2.327693491336378	271609.3727483801
2.3509704262497415	246572.895143156
2.374480130512239	195852.83933825538
2.3982249318173614	393252.811320619
2.4222071811355352	895219.2971265248
2.4464292529468903	1018646.5242098902
2.4708935454763594	758190.0068604748
2.4956024809311232	342480.9761192278
2.5205585057404343	111576.69307836356
2.5457640907978387	257634.39758197428
2.5712217317058172	68010.15689586848
2.5969339490228753	37766.440378161096
2.622903288513104	190901.03254034897
2.6491323213982354	349747.3515299783
2.6756236446122177	16016.856800170093
2.7023798810583397	136582.2053022159
2.729403679868923	529900.864122008
2.7566977166676123	123865.19591402073
2.7842646938342885	94723.28696065911
2.812107340772631	131031.31862021955
2.8402284141803578	397460.89448755543
2.8686306983221614	221504.1444999357
2.897317005305383	332037.75024192955
2.926290175358437	940342.0203898649
2.9555530771120213	1192369.7062785295
2.9851086078831415	1270025.9568864056
3.014959693961973	1498480.304078058
3.0451092909015927	986088.7571798031
3.0755603838106085	1452338.7493591239
3.1063159876487147	859555.822577196
3.137379147525202	563765.4387654414
3.168752939000454	358412.6599889841
3.200440468390459	253878.23223354504
3.232444873074363	155650.77595186434
3.264769321805107	515305.9176410328
3.297417015023158	512850.99633132777
3.330391185173389	79472.785639707
3.3636950970251234	386880.240852145
3.397332047995375	300805.492031896
3.4313053684753285	209982.67096551822
3.465618422160081	267198.6730641374
3.5002746063816828	447382.5411058343
3.5352773524454997	570842.0672456668
3.570630125969955	867065.6639037492
3.606336427229654	1183453.9685377092
3.6423997915019504	1760485.0113465455
3.67882378941697	2425626.1036096034
3.7156120273111397	2578021.4153979314
3.7527681475842516	3389323.9056236274
3.7902958290600934	3336675.957542069
3.8281987873506953	4848361.637514532
3.8664807752242023	4802117.487355086
3.905145582976444	5072233.303598527
3.9441970388062084	6089767.968594324
3.983639009194271	6387485.597381711
4.023475399286213	7043583.628569253
4.063710153279075	7386497.656322595
4.1043472548118665	7259233.202087336
4.145390727359985	6923596.8269976415
4.186844634633585	6618336.040383417
4.2287130809799205	5851303.575533376
4.27100021178972	5450424.932631681
4.313710213907617	5481179.94419354
4.356847316046694	4743034.046872876
4.40041578920716	4564687.749200613
4.444419947099232	4213542.772746833
4.488864146570225	4157714.266342154
4.533752788035927	3832782.0960944146
4.579090315916286	3995076.6411045427
4.624881219075449	3514694.3330697753
4.671130031266204	3305778.305694723
4.717841331578866	3047721.033475629
4.765019744894654	3487576.349790846
4.812669942343601	3064477.4480820675
4.8607966417670365	3172185.549124562
4.9094046081847065	2834099.9082696317
4.958498654266554	1393979.9254372392
5.008083640809219	1821354.2227620913
5.058164477217312	2558655.3400323414
5.108746121989485	1918848.3288743524
5.15983358320938	1178939.8594888877
5.211431919041474	806798.8407311556
5.263546238231889	1133046.7608985119
5.316181700614208	1488008.827830003
5.36934351762035	645022.380208518
5.423036952796553	422022.05647083634
5.4772673223245185	445324.6941299143
5.532039995547764	541820.3186896214
5.587360395503242	350046.7513793357
5.643233999458275	253329.74223107958
5.6996663394528575	245788.2088527285
5.756663002847385	223194.97213793886
5.814229632875859	301278.89101050486
5.872371929204618	179353.67932906732
5.931095648496664	250014.94411863683
5.990406604981631	320768.5859409714
6.050310671031448	286342.92843062204
6.110813777741763	247689.43625405178
6.17192191551918	269623.66041637055
6.233641134674372	983384.655234081
6.295977546021115	1105485.6163767609
6.358937321481327	596641.0266976302
6.42252669469614	151673.10031473477
6.486751961643101	122828.9172309514
6.551619481259532	169642.77470462248
6.617135676072128	151027.98891783418
6.683307032832849	293706.78171100415
6.750140103161177	383665.78289328655
6.81764150419279	383321.20218480885
6.885817919234718	242115.7641895914
6.954676098427065	404036.09138238383
7.024222859411336	204815.58833613974
7.094465088005449	368460.9560486842
7.165409738885503	225008.756927731
7.237063836274358	260725.45163606724
7.309434474637103	198130.75403289223
7.382528819383473	158515.47598231075
7.456354107577308	155197.7414601128
7.530917648653081	225255.20375079988
7.606226825139612	263549.6050210567
7.682289093391009	114040.51182617167
7.759111984324918	201690.8923368655
7.836703104168168	208514.3806923476
7.91507013520985	195231.3660501713
7.994220836561947	240814.52125008267
8.074163044927568	253162.23502334367
8.154904675376844	288481.3206039427
8.23645372213061	331784.88212491525
8.318818259351918	394447.0263901882
8.402006441945437	415718.4534052874
8.486026506364892	457583.8023348393
8.57088677142854	582536.7952973132
8.656595639142825	620507.9161113657
8.743161595534254	711987.3649557357
8.830593211489598	757680.5006604758
8.918899143604493	679183.6139638685
9.00808813504054	770049.5663778221
9.098169016390944	830752.1270199091
9.189150706554853	876929.5217678325
9.281042213620402	698749.3134948289
9.373852635756606	474762.3569968984
9.467591162114172	830829.9110487219
9.562267073735315	945333.0593905578
9.657889744472667	634093.5710136556
9.754468641917395	778980.5151927423
9.852013328336568	716334.6098291152
9.950533461619933	914749.0647292568
10.050038796236134	831833.2463017175
10.150539184198495	902409.7257087108
10.252044576040479	757274.3355421462
10.354565021800884	306465.2848747408
10.458110672018893	469862.4982073227
10.562691778739081	607846.6152487731
10.668318696526473	456852.6022319016
10.775001883491738	378458.73198593897
10.882751902326655	555100.3815780026
10.991579421349924	415255.6701179168
11.101495215563421	560764.8963666942
11.212510167719055	442576.0342583846
11.324635269396246	478537.1133303511
11.43788162209021	571032.1674712694
11.552260438311112	347137.93749377155
11.667783042694223	400533.3904597766
11.784460873121166	342374.27408896247
11.902305481852377	426208.62106895423
12.0213285366709	417807.13336213125
12.14154182203761	470086.3155637092
12.262957240257986	325781.00730038
12.385586812660566	270205.665403704
12.509442680787172	263597.7858672425
12.634537107595044	323595.12122185103
12.760882478670995	309657.37383633334
12.888491303457704	268739.8468419514
13.01737621649228	241987.87991526065
13.147549978657205	265151.18823373714
13.279025478443776	190458.69704019264
13.411815733228213	179914.61116604068
13.545933890560496	249660.65442939266
13.681393229466101	201793.21430303482
13.818207161760762	165527.8381241489
13.956389233378369	201277.88202918996
14.095953125712155	202988.76649093354
14.236912656969274	185241.42104049295
14.379281783538968	132169.220231261
14.523074601374358	125059.09249130503
14.6683053473881	177107.41434996514
14.814988400861985	160451.16943427233
14.963138284870602	140428.32559728
15.11276966771931	155352.08465141794
15.263897364396504	172395.6428174674
15.41653633804047	135891.2749913947
15.570701701420873	85860.63670374898
15.726408718435081	75885.67230407496
15.883672805619431	151367.2463284009
16.042509533675627	95475.19887327617
16.202934629012383	96947.34741806392
16.36496397530251	98711.88225859017
16.528613615055534	90725.95384990047
16.69389975120609	75370.16907521104
16.86083874871815	67734.88584318507
17.02944713620533	92500.25287004923
17.199741607567383	62323.30968863713
17.37173902364306	56632.89943478424
17.54545641387949	60477.939032340284
17.720910978018285	62717.97329841491
17.898120087798468	59125.272317284405
18.077101288676452	62693.49260725566
18.257872301563214	51304.128376593384
18.44045102457885	57016.55146374622
18.62485553482464	48267.06984011476
18.811104090172883	78088.35482198469
18.999215131074614	40592.785140504304
19.189207282385357	42682.016744750676
19.381099355209216	33807.8333458755
19.574910348761303	36444.44917592537
19.77065945224892	37677.31060711788
19.968366046771408	49775.79177371004
20.16804970723912	43334.833492014055
20.369730204311512	33640.79184728706
20.573427506354626	28515.723527306563
20.779161781418175	35274.09323821549
20.98695339923236	26596.982491271527
21.19682293322468	24902.73202813644
21.408791162556927	35010.276614776834
21.622879074182496	24448.726721027026
21.839107864924323	20248.60899934138
22.057498943573567	22073.609849322012
22.278073933009303	26085.515183207277
22.500854672339393	18405.398370250998
22.72586321906279	36321.5255554069
22.953121851253417	17593.56215273422
23.18265306976595	29733.733238868695
23.41447960046361	24816.921271019273
23.648624396468247	14649.383486286628
23.88511064043293	13032.069856477707
24.12396174683726	28458.316328761895
24.365201364305634	26188.55395548253
24.608853377948687	24552.466024224286
24.854941911728176	19491.116647086816
25.103491330845458	10451.797786142111
25.354526244153913	10852.458434869937
25.608071506595454	19881.973388547747
25.864152221661406	14398.1278959987
26.122793743878024	14735.140530032135
26.384021681316803	16403.302159542807
26.64786189812997	8153.516628247098
26.91434051711127	12476.67730172285
27.18348392228238	15161.412709617009
27.455318761505207	18600.134074546906
27.72987194912026	14390.184826756577
28.007170668611465	7813.512767559787
28.28724237529758	6694.339085470169
28.57011479905055	6720.611772941057
28.855815947041062	10530.337051168151
29.144374106511474	7273.645685376617
29.435817847576587	9135.602103738704
29.730176026052348	7266.704830353929
30.027477786312875	9736.143927776806
30.327752564176006	6079.279515726318
30.631030089817763	6818.514037717165
30.93734039071594	6003.18867256467
31.246713794623105	7863.674065217443
31.559180932569333	9002.710524408782
31.874772741895026	6422.744281565882
32.19352046931398	8094.820819540773
32.51545567400712	6977.520811218834
32.84061023074719	3890.826766052992
33.169016333054664	4329.033575502391
33.500706496385206	4844.295256404965
33.83571356134906	8037.211304033645
34.17407069696255	4938.779431308791
34.51581140393218	3605.1950139114165
34.8609695179715	4528.255673605362
35.209579213151216	3775.1203138126652
35.56167500528272	2957.2723830531204
35.917291755335555	2711.5474603782695
36.27646467288891	3892.9182058111387
36.639229319617804	3861.158876980082
37.005621612813975	5377.009922371221
37.37567782894212	2971.698549357224
37.74943460723154	3543.6316495047618
38.12692895330385	5091.527809114431
38.5081982428369	4578.920107478498
38.893280225265265	2716.968216855559
39.28221302751791	1908.3448190714505
39.6750351577931	3361.7577341528036
40.071785509371026	2005.158986279178
40.47250336446474	1989.7574307880025
40.87722839810939	2074.199641806034
41.28600068209048	3468.667184144118
41.69886068891139	3339.449439104791
42.1158492958005	2331.3403101393055
42.53700778875851	2527.0220129981803
42.962377866646094	1803.263487215601
43.392001645312554	1691.4088994042963
43.825921661765676	1367.8763027893283
44.264180878383335	1455.0190079246795
44.70682268716717	1457.435546393023
45.15389091403884	1557.6232555173112
45.60542982317923	2181.6316701529063
46.06148412141103	1722.4201725681694
46.52209896262513	1285.0126399909354
46.98731995225138	1271.2703245883333
47.4571931517739	1872.1627622168362
47.93176508329164	1053.5235501535115
48.411082734124555	1662.4565564558916
48.8951935614658	1014.6421214535758
49.38414549708046	866.4779165588561
49.877986952051266	954.1851698364293
50.37676682157178	921.1721094377074
50.88053448978749	889.2605951180374
51.38933983468537	858.4076896069557
51.903233233032225	828.5876164142113
52.422265565362544	799.76258025682
52.946488221016175	771.9006409535531
53.47595310322633	744.9798601795843
54.010712634258596	718.9602333597246
54.550819760601186	693.8181804024817
55.0963279582072	669.5247228569754
55.647291237789275	646.0506851694362
56.20376415016716	623.3746362226065
56.765801791668835	601.4648626322271
57.33345980958552	580.3017273734454
57.906794407681375	559.8589710578215
58.48586235175819	540.1115002795555
59.070720975275776	521.0410099893069
59.661428185028534	502.6200582473401
60.25804246687882	484.8327666052056
60.860622891547614	467.65429199720523
61.46922912046309	451.066215722965
62.083921411667724	435.0504457836554
62.7047606257844	419.58448202352645
63.331808232042235	404.65530960285906
63.965126314362664	390.24092421925957
64.60477757750628	376.3256892379435
65.25082535328136	362.89336022096325
65.90333360681416	349.92555003232667
66.56236694288232	337.4114636266639
67.22799061231113	325.33145131528045
67.90027051843424	313.67293808847614
68.57927322361859	302.42187053600026
69.26506595585477	291.56321531652287
69.95771661541333	281.0857363746108
70.65729378156746	270.9748277099568
71.36386671938313	261.218762316452
72.07750538657696	251.8056080859252
72.79828044044274	242.72328323874618
73.52626324484716	233.9614682668293
74.26152587729563	225.50792887306312
75.00414113606858	217.3534545397286
75.75418254742928	209.48714751881033
76.51172437290357	201.89854099462715
77.27684161663261	194.5796165032028
78.04961003279894	187.51928693489046
78.83010613312693	180.71092217713831
79.6184071944582	174.14376461853303
80.41459126640278	167.81011359280032
81.2187371790668	161.70274122798224
82.03092455085748	155.8124354366944
82.85123379636605	150.13307076933697
83.6797461343297	144.65609562540237
84.51654359567301	139.3749973594328
85.36170903162974	134.28344932466925
86.21532612194603	129.37363241919957
87.0774793831655	124.64075026169795
87.94825417699715	120.07727928014073
88.82773671876713	115.67808588895628
89.71601408595481	111.43715589938049
90.61317422681435	107.34843651486203
91.5193059690825	103.40791828479642
92.43449902877332	99.6086787193931
93.35884401906105	95.94731591117406
