#wavelength	surface flux
0.8	65944.61920750947
0.8002000000000001	66104.31294513983
0.8004000500000003	66276.8589556496
0.8006001500125003	66449.57752000637
0.8008003000500035	66622.33926400421
0.8010005001250161	66795.14419843815
0.8012007502500472	66967.99233410545
0.8014010504376099	67129.45352101605
0.8016014007002193	67287.12631856257
0.8018018010503944	67444.83853430847
0.8020022515006572	67602.59017810837
0.8022027520635323	67760.38125981909
0.8024033027515483	67919.47682629919
0.8026039035772362	68079.85185362761
0.8028045545531306	68240.26697471287
0.8030052556917691	68400.72219957848
0.803206007005692	68561.21753825016
0.8034068085074435	68725.14844184941
0.8036076602095705	68898.63824761665
0.8038085621246229	69072.1714258352
0.8040095142651542	69245.74798734841
0.8042105166437206	69419.36794300194
0.8044115692728815	69592.83133560738
0.8046126721651998	69757.73711647363
0.8048138253332411	69922.68412378497
0.8050150287895745	70087.67236784828
0.805216282546772	70252.70185897258
0.8054175866174087	70417.77260746957
0.8056189410140631	70583.3402338958
0.8058203457493168	70749.07821947754
0.8060218008357541	70914.85763955547
0.8062233062859632	71080.6785044885
0.8064248621125346	71246.54082463766
0.806626468328063	71420.22589378424
0.8068281249451449	71600.63756531871
0.8070298319763813	71781.09433977128
0.8072315894343755	71961.59622841734
0.8074333973317341	72142.14324253562
0.8076352556810671	72311.6258900136
0.8078371644949874	72454.40847840285
0.8080391237861113	72597.22676243924
0.8082411335670578	72740.08075104654
0.8084431938504498	72882.97045315114
0.8086453046489125	73025.18622660695
0.8088474659750746	73154.22512240527
0.8090496778415686	73283.29627792771
0.809251940261029	73412.39970123894
0.8094542532460944	73541.53540040611
0.8096566168094059	73670.70338349792
0.8098590309636085	73814.38471582108
0.8100614957213493	73961.49137816507
0.8102640110952797	74108.63481717465
0.8104665770980536	74255.81504204405
0.8106691937423283	74403.03206196972
0.8108718610407639	74557.39328391905
0.8110745790060241	74717.22775020625
0.8112773476507757	74877.10217511015
0.8114801669876885	75037.01656862025
0.8116830370294355	75196.97094072863
0.8118859577886929	75352.1805313723
0.8120889292781401	75497.49074777593
0.8122919515104597	75642.83729173364
0.8124950244983374	75788.22017232735
0.8126981482544621	75933.63939864119
0.8129013227915257	76080.87037573094
0.8131045481222237	76248.46671584492
0.8133078242592543	76416.10495504393
0.8135111512153191	76583.78510380271
0.813714529003123	76751.50717259869
0.8139179576353739	76919.27117191191
0.8141214371247829	77206.5912672418
0.8143249674840641	77517.15899745967
0.814528548725935	77827.80436960992
0.8147321808631167	78138.52740310362
0.8149358639083326	78449.3281173556
0.8151395978743097	78697.22142785254
0.8153433827737784	78902.62133283283
0.8155472186194719	79108.0725877893
0.8157511054241268	79313.57520555946
0.815955043200483	79519.12919898421
0.8161590319612831	79716.11134167857
0.8163630717192736	79897.34169515166
0.8165671624872033	80078.61735621293
0.8167713042778252	80259.93833618963
0.8169754971038948	80441.30464641143
0.8171797409781707	80619.52043715815
0.8173840359134155	80772.26723328391
0.8175883819223938	80925.05221610854
0.8177927790178745	81077.87539517895
0.8179972272126291	81230.73678004417
0.8182017265194322	81383.63638025546
0.8184062769510622	81615.36163954284
0.8186108785203001	81859.26905015233
0.8188155312399301	82103.23743761415
0.8190202351227402	82347.2668171731
0.819224990181521	82591.35720407679
0.8194297964290664	82798.09761578454
0.8196346538781738	82982.34030003552
0.8198395625416434	83166.62904495747
0.8200445224322789	83350.96386206574
0.820249533562887	83535.34476287822
0.8204545959462778	83726.6771448237
0.8206597095952644	83929.17139206221
0.8208648745226633	84131.71626286271
0.8210700907412941	84334.31176988086
0.8212753582639793	84536.95792577557
0.8214806771035456	84720.46543268263
0.8216860472728215	84785.7892844147
0.8218914687846397	84851.1294671097
0.822096941651836	84916.48598485041
0.822302465887249	84981.85884172053
0.8225080415037209	85047.2480418049
0.8227136685140968	85270.37283906809
0.8229193469312254	85511.45784870829
0.8231250767679583	85752.60312960096
0.8233308580371503	85993.80869681374
0.8235366907516598	86235.07456541849
0.8237425749243477	86488.83458887317
0.8239485105680789	86749.24820525666
0.824154497695721	87009.72692504406
0.824360536320145	87270.27076451147
0.8245666264542252	87530.87973993873
0.8247727681108388	87778.21777938447
0.8249789613028664	88006.51786497937
0.8251852060431922	88234.87502559586
0.825391502344703	88463.2892755024
0.8255978502202894	88691.76062897162
0.8258042496828445	88916.76294870012
0.8260107007452654	89124.69651554062
0.8262172034204517	89332.6820657726
0.8264237577213068	89540.71961239222
0.8266303636607373	89748.80916839857
0.8268370212516525	89956.95074679381
0.8270437305069654	90107.92157132897
0.8272504914395923	90254.45854948935
0.8274573040624523	90401.03216189431
0.8276641683884679	90547.64241770224
0.8278710844305652	90694.28932607429
0.8280780522016729	90890.82294934765
0.8282850717147234	91110.19207301884
0.8284921429826521	91329.61603897074
0.8286992660183978	91549.09486091428
0.8289064408349024	91768.62855256315
0.8291136674451112	91966.5119713048
0.8293209458619727	92137.07574640017
0.8295282760984382	92307.68216243907
0.829735658167463	92478.33123008219
0.8299430920820048	92649.022959992
0.8301505778550254	92820.82086561553
0.8303581154994891	92996.90647174839
0.8305657050283641	93173.03609928295
0.8307733464546212	93349.20975922425
0.8309810397912352	93525.42746258083
0.8311887850511829	93701.6892203629
0.8313965822474458	94002.5590760377
0.8316044313930077	94309.28582483478
0.8318123325008561	94616.08925531936
0.8320202855839813	94922.9693866614
0.8322282906553774	95229.9262380363
0.8324363477280413	95461.62044938763
0.8326444568149735	95663.04121599835
0.8328526179291771	95864.5123378005
0.8330608310836596	96066.03382738338
0.8332690962914304	96267.60569733841
0.8334774135655034	96461.89136039298
0.833685782918895	96648.03037188204
0.8338942043646247	96834.21591812387
0.834102677915716	97020.44801075239
0.834311203585195	97206.7266614039
0.8345197813860912	97417.80978823011
0.8347284113314379	97712.2831144194
0.8349370934342709	98006.83005894009
0.8351458277076294	98301.45064019655
0.8353546141645565	98596.14487659882
0.8355634528180977	98890.91278656006
0.8357723436813022	98944.62810092737
0.8359812867672226	98995.37954886466
0.8361902820889144	99046.14368466391
0.8363993296594368	99096.92051149713
0.8366084294918518	99147.71003253707
0.8368175815992247	99378.40407599042
0.8370267859946247	99671.11238519262
0.8372360426911234	99963.89387147206
0.8374453517017962	100256.74855312303
0.8376547130397217	100549.67644844437
0.8378641267179816	100807.34896363047
0.8380735927496613	101030.0307300305
0.8382831111478488	101252.76816687199
0.8384926819256358	101475.56128807257
0.8387023050961173	101698.41010755365
0.8389119806723914	101919.7835677925
0.8391217086675596	102136.90343605154
0.8393314890947265	102354.07758427747
0.8395413219670003	102571.30602604049
0.8397512072974922	102788.5887749141
0.8399611450993165	103008.02053314079
0.8401711353855914	103331.52863986552
0.8403811781694378	103655.11762361684
0.8405912734639802	103978.78750461419
0.8408014212823464	104302.53830308192
0.8410116216376671	104626.37003924925
0.8412218745430766	104927.75803239837
0.8414321800117124	105222.66755376672
0.8416425380567154	105517.65080251553
0.8418529486912297	105812.70779707663
0.8420634119284025	106107.8385558861
0.8422739277813847	106359.14827016102
0.8424844962633302	106571.84776579699
0.842695117387396	106784.60043630659
0.8429057911667428	106997.40629498383
0.8431165176145345	107210.26535512583
0.8433272967439382	107429.69329384752
0.8435381285681244	107665.06960039247
0.8437490131002665	107900.504751014
0.8439599503535415	108135.99876042304
0.84417094034113	108371.5516433346
0.8443819830762154	108608.31447720436
0.8445930785719846	108868.3247590321
0.8448042268416277	109128.40004343014
0.8450154278983382	109388.54034664927
0.8452266817553128	109648.74568494417
0.8454379884257517	109909.01607457368
0.8456493479228583	110171.33879887903
0.845860760259839	110434.20566166162
0.846072225449904	110697.1382411599
0.8462837435062666	110960.13655380311
0.8464953144421433	111223.20061602464
0.8467069382707537	111472.7208895417
0.8469186150053215	111711.69531319715
0.847130344659073	111950.7294804586
0.8473421272452377	112189.82340626162
0.8475539627770492	112428.97710554635
0.8477658512677435	112675.79051153157
0.8479777927305605	112938.80304655383
0.8481897871787432	113201.88133470979
0.848401834625538	113465.02539243794
0.8486139350841944	113728.23523618035
0.8488260885679657	113990.75735430414
0.8490382950901076	114244.15986316618
0.8492505546638802	114497.62572265558
0.8494628673025462	114751.15494860975
0.8496752330193721	115004.74755687077
0.8498876518276269	115258.40356328353
0.8501001237405839	115497.83381362603
0.8503126487715191	115734.47155222652
0.850525226933712	115971.16845026151
0.8507378582404455	116207.924522521
0.8509505427050057	116444.73978379871
0.8511632803406821	116695.88355519577
0.8513760711607672	116956.8619744042
0.8515889151785576	117217.90563821781
0.8518018124073523	117479.01456294718
0.8520147628604541	117740.18876490757
0.8522277665511693	118006.72687756568
0.8524408234928071	118283.13077668447
0.8526539336986805	118559.60377677811
0.8528670971821053	118836.14589512178
0.8530803139564007	119112.75714899471
0.8532935840348901	119389.2900049025
0.8535069074308987	119664.64585229584
0.8537202841577566	119940.07053865126
0.8539337142287962	120215.5640811783
0.8541471976573534	120491.1264970908
0.8543607344567677	120766.75780360731
0.8545743246403821	121044.27825451129
0.8547879682215422	121322.15715989801
0.8550016652135977	121600.10553501104
0.8552154156299011	121878.12339721786
0.8554292194838088	122156.21076389043
0.8556430767886797	122427.05940433826
0.855856987557877	122693.53838174297
0.8560709518047664	122960.08397889187
0.8562849695427177	123226.69621244015
0.8564990407851035	123493.37509904688
0.8567131655452999	123761.88314766683
0.8569273438366862	124033.34622573815
0.8571415756726455	124304.87716957903
0.8573558610665638	124576.47599615599
0.8575702000318304	124848.1427224393
0.8577845925818384	125120.63125375698
0.857999038729984	125397.89697159322
0.8582135384896665	125675.23200585887
0.858428091874289	125952.6363738831
0.8586426988972576	126230.11009299927
0.8588573595719821	126507.6531805453
0.8590720739118751	126781.38017031504
0.8592868419303532	127054.71748171216
0.8595016636408359	127328.12312743714
0.8597165390567462	127601.59712457345
0.8599314681915105	127875.13949020913
0.8601464510585584	128150.05994652833
0.860361487671323	128425.74431528195
0.8605765780432408	128701.49760512768
0.8607917221877518	128977.31983329609
0.8610069201182988	129253.21101702147
0.8612221718483286	129511.48228558419
0.8614374773912907	129744.31719613218
0.8616528367606385	129977.21031540775
0.8618682499698288	130210.16165796327
0.8620837170323213	130443.1712383544
0.8622992379615795	130684.86595478638
0.8625148127710699	130969.31223694097
0.8627304414742627	131253.82963066612
0.8629461240846313	131538.41815373974
0.8631618606156526	131823.07782394416
0.8633776510808066	132107.80865906607
0.8635934954935769	132419.24356140956
0.8638093938674504	132732.93946819127
0.8640253462159173	133046.71379894967
0.8642413525524714	133360.56657329077
0.8644574128906095	133674.49781082536
0.8646735272438323	133958.877104758
0.8648896956256433	134229.5485242126
0.8651059180495498	134500.28761152207
0.8653221945290621	134771.0943836031
0.8655385250776946	135041.96885737756
0.8657549097089641	135334.36766436338
0.8659713484363913	135654.30875443827
0.8661878412735006	135974.32982978583
0.866404388233819	136294.43091040218
0.8666209893308775	136614.61201628853
0.8668376445782103	136926.488439056
0.8670543539893549	137204.22049791965
0.8672711175778525	137482.02198979817
0.8674879353572469	137759.89293204938
0.8677048073410862	138037.83334203626
0.8679217335429217	138315.84323712578
0.8681387139763074	138588.43590271828
0.8683557486548015	138860.82414961164
0.8685728375919655	139133.28049356706
0.8687899808013633	139405.8049516079
0.8690071782965637	139678.39754076354
0.869224430091138	139996.29718389836
0.8694417361986609	140332.68395553832
0.8696590966327107	140669.15482387113
0.869876511406869	141005.709809921
0.8700939805347206	141342.34893471724
0.8703115040298544	141673.47713994878
0.870529081905862	141998.2913329432
0.8707467141763385	142323.18672948572
0.8709644008548827	142648.1633498774
0.8711821419550964	142973.22121442395
0.8713999374905854	143294.19966120218
0.871617787474958	143600.89839460392
0.8718356919218269	143907.67380268927
0.8720536508448075	144214.52590462667
0.8722716642575187	144521.45471958938
0.8724897321735832	144828.46026675595
0.8727078546066265	145125.71290343217
0.8729260315702784	145422.89031186575
0.873144263078171	145720.1420146511
0.8733625491439405	146017.4680303622
0.8735808897812266	146314.8683775773
0.8737992850036719	146588.37330912
0.874017734824923	146853.45691999336
0.8742362392586293	147118.60680176932
0.874454798318444	147383.8229710157
0.8746734120180236	147649.10544430438
0.8748920803710283	147923.23084205826
0.875110803391121	148206.24442173346
0.8753295810919689	148489.32875480375
0.875548413487242	148772.48385895728
0.8757673005906139	149055.70975188687
0.8759862424157616	149355.4873253919
0.8762052389763657	149703.02803028258
0.8764242902861098	150050.65562034922
0.8766433963586814	150398.3701173135
0.8768625572077712	150746.1715429021
0.8770817728470732	151093.4685995424
0.8773010432902849	151394.6837611731
0.8775203685511077	151695.97422659464
0.8777397486432454	151997.34001463215
0.8779591835804065	152298.78114411703
0.8781786733763015	152600.29763388392
0.8783982180446457	152882.21855735182
0.878617817599157	153158.3582224659
0.8788374720535569	153434.56692249616
0.8790571814215703	153710.84467470134
0.8792769457169257	153987.19149634457
0.879496764953355	154227.60654273728
0.8797166391445934	154435.71455341397
0.8799365683043796	154643.87459109336
0.8801565524464557	154852.08666878214
0.8803765915845676	155060.35079949055
0.8805966857324639	155347.8087887842
0.880816834903897	155834.1190997297
0.881037039112623	156320.55098825312
0.8812572983724012	156807.10448474865
0.8814776126969944	157293.7796196185
0.8816979821001687	157773.89851829264
0.8819184065956938	158096.93843946338
0.8821388861973429	158420.05912061472
0.8823594209188923	158743.26058193608
0.882580010774122	159066.5428436226
0.8828006557768155	159389.90592587471
0.8830213559407598	159705.3618997209
0.8832421112797452	160018.8876872594
0.8834629218075651	160332.49185624463
0.8836837875380171	160646.17442627216
0.8839047084849018	160959.93541694226
0.884125684662023	161249.18734465473
0.8843467160831886	161518.8078417158
0.8845678027622095	161788.49574390115
0.8847889447129001	162058.2510680621
0.8850101419490785	162328.07383105403
0.8852313944845657	162630.2050734143
0.885452702333187	163002.98349503306
0.8856740655087704	163375.85511125714
0.8858954840251476	163748.81994538518
0.8861169578961539	164121.8780207216
0.886338487135628	164487.7675866904
0.886560071757412	164757.11324566143
0.8867817117753515	165026.52624104722
0.8870034072032955	165296.006589682
0.8872251580550963	165565.55430840357
0.8874469643446101	165835.169414055
0.8876688260856963	166183.61021371133
0.8878907432922178	166548.4381610769
0.8881127159780409	166913.35731542908
0.8883347441570356	167278.36769957028
0.8885568278430749	167643.46933630714
0.8887789670500358	168007.90569049137
0.8890011617917983	168371.8964714851
0.8892234120822464	168735.97825017423
0.8894457179352669	169100.15104930772
0.8896680793647509	169464.41489164133
0.8898904963845921	169791.78917420527
0.8901129690086883	170048.68529301017
0.8903354972509405	170305.64563584473
0.8905580811252535	170562.67021876518
0.8907807206455347	170819.75905783102
0.8910034158256963	171069.37983904514
0.8912261666796527	171251.74686385496
0.8914489732213227	171434.15948042105
0.8916718354646282	171616.61770014145
0.8918947534234944	171799.1215344166
0.8921177271118502	171981.67099465022
0.8923407565436284	172107.0335429828
0.8925638417327644	172223.0912469407
0.8927869826931977	172339.17796532463
0.8930101794388711	172455.29370538818
0.8932334319837308	172571.4384743867
0.8934567403417267	172709.31290555597
0.8936801045268123	172860.70618988882
0.8939035245529441	173012.13732254267
0.8941270004340824	173163.6063129797
0.894350532184191	173315.11317066435
0.8945741198172371	173735.03981774324
0.8947977633471915	174600.15083507053
0.8950214627880284	175465.47813015213
0.8952452181537254	176331.02175705697
0.8954690294582639	177196.78176986903
0.8956928967156286	177989.43292076362
0.8959168199398075	178306.42714553204
0.8961407991447926	178623.50061885675
0.8963648343445789	178940.65336054977
0.896588925553165	179257.88539042804
0.8968130727845534	179575.19672831384
0.8970372760527496	179819.78902717866
0.8972615353717629	180055.33393239987
0.8974858507556059	180290.93772384743
0.8977102222182949	180526.60041624276
0.8979346497738496	180762.32202431135
0.8981591334362931	181324.11269825554
0.8983836732196523	182064.33109730508
0.8986082691379572	182804.7345509539
0.8988329212052417	183545.32310546612
0.8990576294355432	184286.0968071176
0.8992823938429022	184891.303576931
0.8995072144413631	185294.81548962323
0.8997320912449734	185698.42828029345
0.8999570242677847	186102.14197416126
0.9001820135238516	186505.95659645254
0.9004070590272328	186899.73537662678
0.9006321607919896	187240.47205975163
0.9008573188321878	187581.29392704758
0.9010825331618959	187922.20099981021
0.9013078037951865	188263.19329934107
0.9015331307461353	188604.27084694663
0.9017585140288219	188996.7352152259
0.9019839536573292	189393.716435183
0.9022094496457435	189790.79690044484
0.9024350020081551	190187.97663582343
0.9026606107586572	190585.25566613575
0.902886275911347	191076.0330553739
0.9031119974803249	191611.9579770131
0.9033377754796951	192148.0168798827
0.903563609923565	192684.2097974778
0.903789500826046	193220.53676330263
0.9040154482012526	193700.5827322621
0.904241452063303	194107.6679042449
0.9044675124263188	194514.85484752062
0.9046936293044254	194922.1435875321
0.9049198027117517	195329.53414972877
0.9051460326624297	195734.04670153427
0.9053723191705955	196125.97145275716
0.9055986622503881	196517.99418516748
0.9058250619159507	196910.11492326093
0.9060515181814298	197302.33369153913
0.9062780310609752	197694.65051450915
0.9065046005687405	197812.46138290394
0.906731226718883	197914.98235684296
0.9069579095255627	198017.52896102535
0.907184649002944	198120.10120185878
0.907411445165195	198222.6990857525
0.9076382980264862	198714.80241090938
0.907865207600993	199368.7789980788
0.9080921739028933	200022.91907939484
0.9083191969463691	200677.2226957311
0.9085462767456058	201331.68988797176
0.9087734133147922	201872.70068747015
0.9090006066681211	202282.61422030363
0.909227856819788	202692.63023151975
0.9094551637839932	203102.74874673923
0.9096825275749393	203512.9697915874
0.9099099482068329	203935.20877026534
0.9101374256938848	204399.90077073072
0.9103649600503083	204864.70894419597
0.9105925512903209	205329.63331970453
0.9108201994281437	205794.67392630744
0.9110479044780008	206259.83079306147
0.9112756664541204	206727.03127530316
0.911503485370734	207194.39267382387
0.9117313612420768	207661.8709126942
0.9119592940823873	208129.46602112413
0.912187283905908	208597.1780283313
0.9124153307268845	208805.24846272165
0.9126434345595664	208919.09376221555
0.9128715954182063	209032.96752303423
0.9130998133170609	209146.86975229316
0.9133280882703902	209260.80045710938
0.913556420292458	209584.25335144205
0.9137848093975312	210123.84106212025
0.9140132555998806	210663.56366972608
0.9142417589137806	211203.4212079838
