#wavelength	surface flux
0.8	110762.3671438221
0.8002000000000001	112290.35404204576
0.8004000500000003	113967.3879047004
0.8006001500125003	115646.34268836923
0.8008003000500035	117325.7172107341
0.8010005001250161	119005.51157673035
0.8012007502500472	120685.72589131567
0.8014010504376099	122220.23529108512
0.8016014007002193	123706.18091807215
0.8018018010503944	125192.49803146589
0.8020022515006572	126679.18672413866
0.8022027520635323	128166.24708898333
0.8024033027515483	129708.20995222236
0.8026039035772362	131303.99629959092
0.8028045545531306	132900.1815935464
0.8030052556917691	134496.76593382616
0.803206007005692	136093.74942018956
0.8034068085074435	137728.98231973688
0.8036076602095705	139470.7235985195
0.8038085621246229	141212.9003126204
0.8040095142651542	142955.5125709009
0.8042105166437206	144698.5604822454
0.8044115692728815	146439.60384658878
0.8046126721651998	148076.12048309654
0.8048138253332411	149713.0462487621
0.8050150287895745	151350.38124587064
0.805216282546772	152988.125576728
0.8054175866174087	154626.2793436672
0.8056189410140631	156286.99864456238
0.8058203457493168	157954.4047090196
0.8060218008357541	159622.22762499083
0.8062233062859632	161290.46749669185
0.8064248621125346	162959.12442835968
0.806626468328063	164737.49596864794
0.8068281249451449	166610.1853843752
0.8070298319763813	168483.34297245866
0.8072315894343755	170356.96884993775
0.8074333973317341	172231.06313388693
0.8076352556810671	173915.15283667232
0.8078371644949874	175141.1629932984
0.8080391237861113	176367.47965246392
0.8082411335670578	177594.1028907935
0.8084431938504498	178821.03278493392
0.8086453046489125	180033.5505419844
0.8088474659750746	180972.33244733926
0.8090496778415686	181911.3490481717
0.809251940261029	182850.60040315366
0.8094542532460944	183790.08657097517
0.8096566168094059	184729.80761033754
0.8098590309636085	185772.42792716
0.8100614957213493	186839.3383278061
0.8102640110952797	187906.5154560525
0.8104665770980536	188973.95937858138
0.8106691937423283	190041.6701620913
0.8108718610407639	191270.72911522415
0.8110745790060241	192623.26570423122
0.8112773476507757	193976.1404273867
0.8114801669876885	195329.35336922263
0.8116830370294355	196682.90461429325
0.8118859577886929	197871.38613056936
0.8120889292781401	198716.60487609264
0.8122919515104597	199562.0349263022
0.8124950244983374	200407.67633402438
0.8126981482544621	201253.52915209837
0.8129013227915257	202137.48366839823
0.8131045481222237	203455.50815715856
0.8133078242592543	204773.86215204123
0.8135111512153191	206092.5457354223
0.813714529003123	207411.55898969932
0.8139179576353739	208730.90199729017
0.8141214371247829	213110.98017583892
0.8143249674840641	218085.61744389328
0.814528548725935	223061.4983712616
0.8147321808631167	228038.62326886854
0.8149358639083326	233016.99244769834
0.8151395978743097	236568.76631434038
0.8153433827737784	239156.71957799015
0.8155472186194719	241745.31982995494
0.8157511054241268	244334.5672319822
0.815955043200483	246924.46194586175
0.8161590319612831	249269.91064651357
0.8163630717192736	251166.84177025294
0.8165671624872033	253064.24712677114
0.8167713042778252	254962.1268346303
0.8169754971038948	256860.48101241738
0.8171797409781707	258607.68735266285
0.8173840359134155	259144.88170819398
0.8175883819223938	259682.2103623134
0.8177927790178745	260219.67334859664
0.8179972272126291	260757.2707006266
0.8182017265194322	261295.002451994
0.8184062769510622	264374.1951076747
0.8186108785203001	267845.2300919464
0.8188155312399301	271317.13283495937
0.8190202351227402	274789.90355366206
0.819224990181521	278263.5424650422
0.8194297964290664	280931.2564515904
0.8196346538781738	283113.34411532374
0.8198395625416434	285295.9773009722
0.8200445224322789	287479.156144918
0.820249533562887	289662.88078357413
0.8204545959462778	291903.2742892534
0.8206597095952644	294234.5562434598
0.8208648745226633	296566.4210181566
0.8210700907412941	298898.8687590466
0.8212753582639793	301231.89961186954
0.8214806771035456	302950.1266480262
0.8216860472728215	300877.24910880823
0.8218914687846397	298803.8533502053
0.822096941651836	296729.9392426617
0.822302465887249	294655.50665659236
0.8225080415037209	292580.5554623754
0.8227136685140968	295197.37600852444
0.8229193469312254	298347.5237974763
0.8231250767679583	301498.45912337647
0.8233308580371503	304650.1821831063
0.8235366907516598	307802.6931736035
0.8237425749243477	311727.13148256444
0.8239485105680789	316061.2682283631
0.824154497695721	320396.4885083453
0.824360536320145	324732.7925933985
0.8245666264542252	329070.1807544726
0.8247727681108388	332740.9531326977
0.8249789613028664	335456.3709483318
0.8251852060431922	338172.46761842223
0.825391502344703	340889.2433126789
0.8255978502202894	343606.69820086163
0.8258042496828445	346262.5186529431
0.8260107007452654	348616.3717029279
0.8262172034204517	350970.81321617286
0.8264237577213068	353325.8433397967
0.8266303636607373	355681.4622209525
0.8268370212516525	358037.67000682745
0.8270437305069654	358184.1003579827
0.8272504914395923	358157.84154128894
0.8274573040624523	358131.57615989103
0.8276641683884679	358105.30421214784
0.8278710844305652	358079.0256964176
0.8280780522016729	359820.78289357596
0.8282850717147234	362371.1443832483
0.8284921429826521	364922.1434632905
0.8286992660183978	367473.78029310465
0.8289064408349024	370026.0550321245
0.8291136674451112	371722.14929224394
0.8293209458619727	372338.26232204447
0.8295282760984382	372954.5293801016
0.829735658167463	373570.950504924
0.8299430920820048	374187.5257350268
0.8301505778550254	374883.9640926309
0.8303581154994891	375898.71845554706
0.8305657050283641	376913.726507055
0.8307733464546212	377928.988310575
0.8309810397912352	378944.50392954756
0.8311887850511829	379960.27342742286
0.8313965822474458	385280.2505611771
0.8316044313930077	390801.3269469621
0.8318123325008561	396323.78360184864
0.8320202855839813	401847.62087089627
0.8322282906553774	407372.83909926156
0.8324363477280413	409817.63483006536
0.8326444568149735	411022.3184212546
0.8328526179291771	412227.3031833402
0.8330608310836596	413432.58919161814
0.8332690962914304	414638.17652139656
0.8334774135655034	415589.3532834696
0.833685782918895	416256.246210789
0.8338942043646247	416923.3058613398
0.834102677915716	417590.5322768037
0.834311203585195	418257.9254988709
0.8345197813860912	419964.7908806478
0.8347284113314379	425170.48184867797
0.8349370934342709	430377.47423944727
0.8351458277076294	435585.7683783079
0.8353546141645565	440795.364590712
0.8355634528180977	446006.26320216694
0.8357723436813022	442273.5158162558
0.8359812867672226	438429.38791861973
0.8361902820889144	434584.29898901115
0.8363993296594368	430738.24878716905
0.8366084294918518	426891.23707277514
0.8368175815992247	429491.69642039854
0.8370267859946247	434313.7123771648
0.8372360426911234	439136.93383791874
0.8374453517017962	443961.3611040374
0.8376547130397217	448786.9944769719
0.8378641267179816	452213.56684288697
0.8380735927496613	454251.5665751403
0.8382831111478488	456290.0758073255
0.8384926819256358	458329.0946668177
0.8387023050961173	460368.6232810265
0.8389119806723914	462335.0555950402
0.8391217086675596	464094.8276684326
0.8393314890947265	465855.03968484205
0.8395413219670003	467615.69175425573
0.8397512072974922	469376.783986688
0.8399611450993165	471222.1339619755
0.8401711353855914	477230.2908702604
0.8403811781694378	483239.94981777074
0.8405912734639802	489251.11118001945
0.8408014212823464	495263.7753326116
0.8410116216376671	501277.942651241
0.8412218745430766	506505.5826289289
0.8414321800117124	511505.24293878407
0.8416425380567154	516506.1531637191
0.8418529486912297	521508.3136162116
0.8420634119284025	526511.724608813
0.8422739277813847	530341.5885604686
0.8424844962633302	533137.3674472277
0.842695117387396	535933.8452787049
0.8429057911667428	538731.02222964
0.8431165176145345	541528.8984748143
0.8433272967439382	543878.016340315
0.8435381285681244	545131.369157489
0.8437490131002665	546385.0353128671
0.8439599503535415	547639.0148847832
0.84417094034113	548893.3079515933
0.8443819830762154	550227.4628408054
0.8445930785719846	553164.4575479504
0.8448042268416277	556102.1865037706
0.8450154278983382	559040.6498918295
0.8452266817553128	561979.8478957351
0.8454379884257517	564919.7806991419
0.8456493479228583	568474.4762742069
0.845860760259839	572177.9257942841
0.846072225449904	575882.3011767413
0.8462837435062666	579587.6026530449
0.8464953144421433	583293.8304547197
0.8467069382707537	586169.5712510074
0.8469186150053215	588397.9696448517
0.847130344659073	590626.9251382953
0.8473421272452377	592856.43787061
0.8475539627770492	595086.5079811101
0.8477658512677435	597396.6677094803
0.8479777927305605	599876.280919909
0.8481897871787432	602356.5140336398
0.848401834625538	604837.3672056504
0.8486139350841944	607318.8405909524
0.8488260885679657	609615.1330530596
0.8490382950901076	609647.1478041137
0.8492505546638802	609679.1705588555
0.8494628673025462	609711.2013192861
0.8496752330193721	609743.2400874068
0.8498876518276269	609775.2868652195
0.8501001237405839	597890.4219356035
0.8503126487715191	583623.7593188775
0.850525226933712	569353.5300365052
0.8507378582404455	555079.7331968124
0.8509505427050057	540802.3679079014
0.8511632803406821	531257.8610735255
0.8513760711607672	524954.5538332149
0.8515889151785576	518649.6707660846
0.8518018124073523	512343.21147819265
0.8520147628604541	506035.1755754825
0.8522277665511693	507269.91884456
0.8524408234928071	522457.34561662027
0.8526539336986805	537648.5692453777
0.8528670971821053	552843.5906800432
0.8530803139564007	568042.4108700495
0.8532935840348901	583387.61362788
0.8535069074308987	599940.8378222779
0.8537202841577566	616498.2003227384
0.8539337142287962	633059.7021638257
0.8541471976573534	649625.344380363
0.8543607344567677	666195.1280074575
0.8545743246403821	673206.8515398594
0.8547879682215422	678701.7409491804
0.8550016652135977	684198.004080853
0.8552154156299011	689695.6412783086
0.8554292194838088	695194.6528850677
0.8556430767886797	699343.7921992011
0.855856987557877	702673.5272806732
0.8560709518047664	706004.0947959134
0.8562849695427177	709335.4949530337
0.8564990407851035	712667.7279601943
0.8567131655452999	715814.8014121541
0.8569273438366862	718657.9065282315
0.8571415756726455	721501.7224205884
0.8573558610665638	724346.2492669194
0.8575702000318304	727191.4872449591
0.8577845925818384	730125.0107945332
0.857999038729984	733606.288828321
0.8582135384896665	737088.4371816167
0.858428091874289	740571.4560720007
0.8586426988972576	744055.3457171065
0.8588573595719821	747540.1063346247
0.8590720739118751	750108.2712876744
0.8592868419303532	752568.9061984216
0.8595016636408359	755030.1562678964
0.8597165390567462	757492.0216498879
0.8599314681915105	759954.5024982254
0.8601464510585584	762432.7394772738
0.860361487671323	764919.6324928494
0.8605765780432408	767407.1472316781
0.8607917221877518	769895.2838491936
0.8610069201182988	772384.0425008629
0.8612221718483286	774373.7605640353
0.8614374773912907	775643.6445425852
0.8616528367606385	776913.8459921296
0.8618682499698288	778184.3649920371
0.8620837170323213	779455.2016216944
0.8622992379615795	781047.0721546977
0.8625148127710699	784226.4422280429
0.8627304414742627	787406.6071439064
0.8629461240846313	790587.5671009996
0.8631618606156526	793769.3222980823
0.8633776510808066	796951.8729339637
0.8635934954935769	800358.9683569102
0.8638093938674504	803785.2566761691
0.8640253462159173	807212.4015675079
0.8642413525524714	810640.4032450693
0.8644574128906095	814069.2619230493
0.8646735272438323	816537.6939716022
0.8648896956256433	818559.7195047506
0.8651059180495498	820582.2505442821
0.8653221945290621	822605.2872165719
0.8655385250776946	824628.8296480323
0.8657549097089641	827489.8252494701
0.8659713484363913	831423.0126060486
0.8661878412735006	835357.1832594681
0.866404388233819	839292.3374555503
0.8666209893308775	843228.4754401798
0.8668376445782103	846946.2576064587
0.8670543539893549	849769.7319330187
0.8672711175778525	852593.9121281621
0.8674879353572469	855418.7983683512
0.8677048073410862	858244.3908301014
0.8679217335429217	861070.6896899688
0.8681387139763074	864151.1873928516
0.8683557486548015	867245.0480702217
0.8685728375919655	870339.682212765
0.8687899808013633	873435.0900138371
0.8690071782965637	876531.2716668635
0.869224430091138	880173.3965644246
0.8694417361986609	884038.2606511586
0.8696590966327107	887904.0909539134
0.869876511406869	891770.8877142441
0.8700939805347206	895638.651173763
0.8703115040298544	899418.1341188466
0.870529081905862	903096.5262749327
0.8707467141763385	906775.8380290564
0.8709644008548827	910456.0696111185
0.8711821419550964	914137.2212510739
0.8713999374905854	917613.1891375699
0.871617787474958	920378.6894591666
0.8718356919218269	923144.8811558463
0.8720536508448075	925911.7644004504
0.8722716642575187	928679.3393658639
0.8724897321735832	931447.60622502
0.8727078546066265	934154.7365468028
0.8729260315702784	936861.6030352799
0.873144263078171	939569.1462403763
0.8733625491439405	942277.3663312743
0.8735808897812266	944986.263477196
0.8737992850036719	947398.2573019313
0.874017734824923	949705.4559889679
0.8742362392586293	952013.2314756754
0.874454798318444	954321.5839062544
0.8746734120180236	956630.5134249408
0.8748920803710283	959194.6915983459
0.875110803391121	962015.431328935
0.8753295810919689	964836.8762444583
0.875548413487242	967659.0265212104
0.8757673005906139	970481.882335532
0.8759862424157616	973505.8226828827
0.8762052389763657	977110.3245847397
0.8764242902861098	980715.7276120697
0.8766433963586814	984322.0319901576
0.8768625572077712	987929.2379443409
0.8770817728470732	991522.2317040443
0.8773010432902849	993936.0610431462
0.8775203685511077	996350.4938395864
0.8777397486432454	998765.5302442227
0.8779591835804065	1001181.1704079631
0.8781786733763015	1003597.4144817413
0.8783982180446457	1005779.0209240037
0.878617817599157	1007891.1927613522
0.8788374720535569	1010003.892641659
0.8790571814215703	1012117.1206969355
0.8792769457169257	1014230.8770592257
0.879496764953355	1014911.2161310881
0.8797166391445934	1014302.5138936327
0.8799365683043796	1013693.6594806178
0.8801565524464557	1013084.6528539999
0.8803765915845676	1012475.4939757246
0.8805966857324639	1012636.7977313981
0.880816834903897	1014733.6954803725
0.881037039112623	1016831.117453785
0.8812572983724012	1018929.0637826907
0.8814776126969944	1021027.5345981795
0.8816979821001687	1022987.1549550907
0.8819184065956938	1021666.3524619695
0.8821388861973429	1020345.2197682235
0.8823594209188923	1019023.7567913053
0.882580010774122	1017701.9634486435
0.8828006557768155	1016379.8396576453
0.8830213559407598	1017410.2147080471
0.8832421112797452	1019032.6078222614
0.8834629218075651	1020655.4065347534
0.8836837875380171	1022278.610946924
0.8839047084849018	1023902.2211601979
0.884125684662023	1028057.9831318122
0.8843467160831886	1034243.6550061796
0.8845678027622095	1040430.8732985156
0.8847889447129001	1046619.6383954259
0.8850101419490785	1052809.9506836091
0.8852313944845657	1057206.8160013615
0.885452702333187	1057675.7576260609
0.8856740655087704	1058144.8164861663
0.8858954840251476	1058613.9926109866
0.8861169578961539	1059083.286029838
0.886338487135628	1059129.1194775458
0.886560071757412	1053538.2490034597
0.8867817117753515	1047945.9808117552
0.8870034072032955	1042352.3145530003
0.8872251580550963	1036757.2498776871
0.8874469643446101	1031160.7864362018
0.8876688260856963	1033746.6373966321
0.8878907432922178	1038026.8592127198
0.8881127159780409	1042308.1510842589
0.8883347441570356	1046590.513278771
0.8885568278430749	1050873.9460638273
0.8887789670500358	1056074.071325789
0.8890011617917983	1061925.0144638189
0.8892234120822464	1067777.4203376358
0.8894457179352669	1073631.2893129166
0.8896680793647509	1079486.6217554456
0.8898904963845921	1081343.5543464501
0.8901129690086883	1075569.1059723336
0.8903354972509405	1069793.213986125
0.8905580811252535	1064015.8780269155
0.8907807206455347	1058237.0977337237
0.8910034158256963	1052138.2613780464
0.8912261666796527	1043190.4820350745
0.8914489732213227	1034240.4657472644
0.8916718354646282	1025288.2119553736
0.8918947534234944	1016333.7201000435
0.8921177271118502	1007376.9896217551
0.8923407565436284	986771.4505462726
0.8925638417327644	964260.887929391
0.8927869826931977	941744.6976718477
0.8930101794388711	919222.8783667415
0.8932334319837308	896695.4286068126
0.8934567403417267	878646.7397394677
0.8936801045268123	863380.0609166541
0.8939035245529441	848109.5654241451
0.8941270004340824	832835.2523077569
0.894350532184191	817557.1206130936
0.8945741198172371	820950.2132819886
0.8947977633471915	855314.4868976476
0.8950214627880284	889687.3515817092
0.8952452181537254	924068.8094819214
0.8954690294582639	958458.8627466293
0.8956928967156286	989583.9616354862
0.8959168199398075	999472.6561703773
0.8961407991447926	1009363.8228789046
0.8963648343445789	1019257.4623791088
0.896588925553165	1029153.5752891824
0.8968130727845534	1039052.1622274847
0.8970372760527496	1041069.6683839245
0.8972615353717629	1042101.2873725428
0.8974858507556059	1043133.1642659083
0.8977102222182949	1044165.2991284969
0.8979346497738496	1045197.6920248017
0.8981591334362931	1064847.0957211389
0.8983836732196523	1094682.4760751661
0.8986082691379572	1124525.315274262
0.8988329212052417	1154375.615183158
0.8990576294355432	1184233.3776670569
0.8992823938429022	1205441.541529347
0.8995072144413631	1213783.0548032804
0.8997320912449734	1222126.6534555291
0.8999570242677847	1230472.3380074392
0.9001820135238516	1238820.1089804876
0.9004070590272328	1246091.3838343616
0.9006321607919896	1247710.1761234815
0.9008573188321878	1249329.3731106753
0.9010825331618959	1250948.9748971148
0.9013078037951865	1252568.9815840016
0.9015331307461353	1254189.393272559
0.9017585140288219	1255893.1510443443
0.9019839536573292	1257604.4786771887
0.9022094496457435	1259316.2341419405
0.9024350020081551	1261028.41754556
0.9026606107586572	1262741.02899503
0.902886275911347	1273736.8174393466
0.9031119974803249	1289210.2859117032
0.9033377754796951	1304687.6227511782
0.903563609923565	1320168.8289248561
0.903789500826046	1335653.9054000878
0.9040154482012526	1345642.4644955194
0.904241452063303	1348508.2475008557
0.9044675124263188	1351374.7469519426
0.9046936293044254	1354241.963027892
0.9049198027117517	1357109.8959078616
0.9051460326624297	1359906.0803502002
0.9053723191705955	1362394.3892186075
0.9055986622503881	1364883.3201642293
0.9058250619159507	1367372.8733425876
0.9060515181814298	1369863.0489092423
0.9062780310609752	1372353.8470197867
0.9065046005687405	1356063.3359045463
0.906731226718883	1338720.9637085146
0.9069579095255627	1321374.2559194567
0.907184649002944	1304023.2114534501
0.907411445165195	1286667.8292263094
0.9076382980264862	1296474.5602909948
0.907865207600993	1317565.920296459
0.9080921739028933	1338662.5531419185
0.9083191969463691	1359764.4601455857
0.9085462767456058	1380871.6426260145
0.9087734133147922	1393867.4136702742
0.9090006066681211	1397491.558141343
0.909227856819788	1401116.6086485249
0.9094551637839932	1404742.5654183386
0.9096825275749393	1408369.4286773435
0.9099099482068329	1412762.1091498672
0.9101374256938848	1419874.3929646257
0.9103649600503083	1426988.4548503347
0.9105925512903209	1434104.2952515136
0.9108201994281437	1441221.9146128
0.9110479044780008	1448341.313378919
0.9112756664541204	1455009.035022636
0.911503485370734	1461668.0440466134
0.9117313612420768	1468328.717822847
0.9119592940823873	1474991.0567675226
0.912187283905908	1481655.0612969366
0.9124153307268845	1467906.0907446973
0.9126434345595664	1446744.3615045694
0.9128715954182063	1425577.3418321516
0.9130998133170609	1404405.0304048052
0.9133280882703902	1383227.425899603
0.913556420292458	1378915.7059563564
0.9137848093975312	1392002.404057416
0.9140132555998806	1405092.373832999
0.9142417589137806	1418185.6161010265
0.9144703193535092	1431282.13167963
