#wavelength	surface flux
0.8	3733309.8702067058
0.8002000000000001	3740643.600467114
0.8004000500000003	3748156.8994882326
0.8006001500125003	3755673.872135916
0.8008003000500035	3763192.7240267615
0.8010005001250161	3770713.455630583
0.8012007502500472	3778236.067417295
0.8014010504376099	3785009.0579160927
0.8016014007002193	3791532.0114715453
0.8018018010503944	3798056.595765387
0.8020022515006572	3804582.8112053047
0.8022027520635323	3811110.658199077
0.8024033027515483	3817659.5739108957
0.8026039035772362	3824229.174115305
0.8028045545531306	3830800.416719765
0.8030052556917691	3837373.3021348794
0.803206007005692	3843947.830771342
0.8034068085074435	3850740.0561739868
0.8036076602095705	3858139.6082593026
0.8038085621246229	3865541.0102326334
0.8040095142651542	3872944.2625564625
0.8042105166437206	3880349.3656933703
0.8044115692728815	3887718.718829631
0.8046126721651998	3893472.617156254
0.8048138253332411	3899227.9539574548
0.8050150287895745	3904984.729592861
0.805216282546772	3910742.9444221742
0.8054175866174087	3916502.598805192
0.8056189410140631	3922635.3398981337
0.8058203457493168	3928874.814324166
0.8060218008357541	3935115.848618797
0.8062233062859632	3941358.4431720045
0.8064248621125346	3947602.598373846
0.806626468328063	3954618.5672628884
0.8068281249451449	3962297.8439884153
0.8070298319763813	3969979.0405331324
0.8072315894343755	3977662.1573769804
0.8074333973317341	3985347.195000042
0.8076352556810671	3991927.6629629745
0.8078371644949874	3995846.267636038
0.8080391237861113	3999765.8519602707
0.8082411335670578	4003686.416180582
0.8084431938504498	4007607.960541952
0.8086453046489125	4011486.611405199
0.8088474659750746	4014549.3788109864
0.8090496778415686	4017612.91190863
0.809251940261029	4020677.210889545
0.8094542532460944	4023742.275945208
0.8096566168094059	4026808.107267132
0.8098590309636085	4031110.061775176
0.8100614957213493	4035702.237101136
0.8102640110952797	4040295.560470927
0.8104665770980536	4044890.0321715632
0.8106691937423283	4049485.652490126
0.8108718610407639	4054804.685809532
0.8110745790060241	4060677.326332296
0.8112773476507757	4066551.4350151955
0.8114801669876885	4072427.012225264
0.8116830370294355	4078304.0583296316
0.8118859577886929	4084004.0947759016
0.8120889292781401	4089334.8477107203
0.8122919515104597	4094666.9333337722
0.8124950244983374	4100000.3519782303
0.8126981482544621	4105335.1039773487
0.8129013227915257	4110748.453352387
0.8131045481222237	4117047.8371038944
0.8133078242592543	4123348.7957013403
0.8135111512153191	4129651.3295384333
0.813714529003123	4135955.439008987
0.8139179576353739	4142261.124506909
0.8141214371247829	4156522.0782879507
0.8143249674840641	4172328.9519390864
0.814528548725935	4188139.7773086256
0.8147321808631167	4203954.555384529
0.8149358639083326	4219773.287154946
0.8151395978743097	4230941.284220463
0.8153433827737784	4238967.169840913
0.8155472186194719	4246995.061932765
0.8157511054241268	4255024.960997639
0.815955043200483	4263056.867537284
0.8161590319612831	4270600.173929186
0.8163630717192736	4277246.386562433
0.8165671624872033	4283894.2607488325
0.8167713042778252	4290543.796903784
0.8169754971038948	4297194.995442779
0.8171797409781707	4303444.497714727
0.8173840359134155	4306475.422008954
0.8175883819223938	4309507.104034251
0.8177927790178745	4312539.5439800555
0.8179972272126291	4315572.742035848
0.8182017265194322	4318606.698391152
0.8184062769510622	4326395.033122829
0.8186108785203001	4334916.8266817415
0.8188155312399301	4343440.750689033
0.8190202351227402	4351966.805677336
0.819224990181521	4360494.99217938
0.8194297964290664	4369893.374311203
0.8196346538781738	4379817.329823525
0.8198395625416434	4389743.766324721
0.8200445224322789	4399672.684435046
0.820249533562887	4409604.084774897
0.8204545959462778	4418719.107807501
0.8206597095952644	4426518.476278953
0.8208648745226633	4434319.79459253
0.8210700907412941	4442123.063235682
0.8212753582639793	4449928.282695988
0.8214806771035456	4456343.991836256
0.8216860472728215	4454188.206013636
0.8218914687846397	4452031.881244559
0.822096941651836	4449875.017394289
0.822302465887249	4447717.6143280575
0.8225080415037209	4445559.671911059
0.8227136685140968	4454994.010935829
0.8229193469312254	4465746.736009397
0.8231250767679583	4476502.149264235
0.8233308580371503	4487260.251372381
0.8235366907516598	4498021.0430060625
0.8237425749243477	4509119.723036738
0.8239485105680789	4520398.838675544
0.824154497695721	4531680.774093252
0.824360536320145	4542965.529994816
0.8245666264542252	4554253.107085356
0.8247727681108388	4564815.433667846
0.8249789613028664	4574337.664119343
0.8251852060431922	4583862.2751284605
0.825391502344703	4593389.267290326
0.8255978502202894	4602918.641200241
0.8258042496828445	4611958.90482481
0.8260107007452654	4618614.459950616
0.8262172034204517	4625271.678965196
0.8264237577213068	4631930.562284531
0.8266303636607373	4638591.110324699
0.8268370212516525	4645253.323501875
0.8270437305069654	4648662.160779158
0.8272504914395923	4651817.489931187
0.8274573040624523	4654973.607915504
0.8276641683884679	4658130.514929315
0.8278710844305652	4661288.211169883
0.8280780522016729	4667754.176158298
0.8282850717147234	4675733.600311958
0.8284921429826521	4683715.019321649
0.8286992660183978	4691698.433686099
0.8289064408349024	4699683.843904134
0.8291136674451112	4706462.898931332
0.8293209458619727	4711719.977975784
0.8295282760984382	4716978.371289989
0.829735658167463	4722238.079202529
0.8299430920820048	4727499.102042041
0.8301505778550254	4732922.949376546
0.8303581154994891	4738992.78334285
0.8305657050283641	4745064.1347676525
0.8307733464546212	4751137.004030306
0.8309810397912352	4757211.3915102845
0.8311887850511829	4763287.297587122
0.8313965822474458	4775813.609700111
0.8316044313930077	4788642.38035255
0.8318123325008561	4801474.358197666
0.8320202855839813	4814309.544037235
0.8322282906553774	4827147.938673266
0.8324363477280413	4835445.54006746
0.8326444568149735	4841915.816349047
0.8328526179291771	4848387.710199697
0.8330608310836596	4854861.222023819
0.8332690962914304	4861336.3522258885
0.8334774135655034	4867262.57515565
0.833685782918895	4872575.32395899
0.8338942043646247	4877889.400949527
0.834102677915716	4883204.806459315
0.834311203585195	4888521.540820477
0.8345197813860912	4895374.071309308
0.8347284113314379	4907393.474161822
0.8349370934342709	4919415.881865043
0.8351458277076294	4931441.295170176
0.8353546141645565	4943469.714828655
0.8355634528180977	4955501.141592043
0.8357723436813022	4952028.843339737
0.8359812867672226	4948364.20837324
0.8361902820889144	4944698.657248004
0.8363993296594368	4941032.189734986
0.8366084294918518	4937364.805605088
0.8368175815992247	4945297.450881019
0.8370267859946247	4957227.564362504
0.8372360426911234	4969160.660372355
0.8374453517017962	4981096.739656207
0.8376547130397217	4993035.80295988
0.8378641267179816	5002289.993291239
0.8380735927496613	5008879.443583035
0.8382831111478488	5015470.541237398
0.8384926819256358	5022063.286666173
0.8387023050961173	5028657.680281309
0.8389119806723914	5035282.743077517
0.8391217086675596	5041991.135541837
0.8393314890947265	5048701.205104267
0.8395413219670003	5055412.952184089
0.8397512072974922	5062126.377200686
0.8399611450993165	5068980.879957284
0.8401711353855914	5082759.619918171
0.8403811781694378	5096541.804564045
0.8405912734639802	5110327.4347560825
0.8408014212823464	5124116.511355676
0.8410116216376671	5137909.035224416
0.8412218745430766	5150336.916311299
0.8414321800117124	5162369.842705621
0.8416425380567154	5174405.777331548
0.8418529486912297	5186444.720941134
0.8420634119284025	5198486.674286611
0.8422739277813847	5207677.437623008
0.8424844962633302	5214355.837258389
0.842695117387396	5221035.906493669
0.8429057911667428	5227717.64574626
0.8431165176145345	5234401.055433666
0.8433272967439382	5241108.56821347
0.8435381285681244	5247872.476325237
0.8437490131002665	5254638.075414031
0.8439599503535415	5261405.365902592
0.84417094034113	5268174.348213781
0.8443819830762154	5275051.282474807
0.8445930785719846	5284070.546795639
0.8448042268416277	5293092.065932546
0.8450154278983382	5302115.840449235
0.8452266817553128	5311141.870909554
0.8454379884257517	5320170.157877489
0.8456493479228583	5329527.691353761
0.845860760259839	5338966.307199633
0.846072225449904	5348407.282699467
0.8462837435062666	5357850.618443177
0.8464953144421433	5367296.3150208285
0.8467069382707537	5375587.303344513
0.8469186150053215	5382978.464136883
0.847130344659073	5390371.472719453
0.8473421272452377	5397766.329554162
0.8475539627770492	5405163.035103086
0.8477658512677435	5413034.346195728
0.8479777927305605	5421911.461008624
0.8481897871787432	5430790.795100223
0.848401834625538	5439672.349025349
0.8486139350841944	5448556.123338951
0.8488260885679657	5457348.611689823
0.8490382950901076	5465003.482169815
0.8492505546638802	5472660.266367432
0.8494628673025462	5480318.964761095
0.8496752330193721	5487979.577829368
0.8498876518276269	5495642.106050898
0.8501001237405839	5501344.035855841
0.8503126487715191	5506655.638871811
0.850525226933712	5511968.569788533
0.8507378582404455	5517282.828937984
0.8509505427050057	5522598.416652226
0.8511632803406821	5529385.673767469
0.8513760711607672	5537181.541698254
0.8515889151785576	5544979.358596034
0.8518018124073523	5552779.124948032
0.8520147628604541	5560580.841241614
0.8522277665511693	5569392.533572122
0.8524408234928071	5580070.650340313
0.8526539336986805	5590751.436637698
0.8528670971821053	5601434.893131658
0.8530803139564007	5612121.02048973
0.8532935840348901	5622771.227203596
0.8535069074308987	5633098.165821636
0.8537202841577566	5643427.68617434
0.8539337142287962	5653759.788907132
0.8541471976573534	5664094.474665601
0.8543607344567677	5674431.744095512
0.8545743246403821	5684213.212748375
0.8547879682215422	5693908.448833383
0.8550016652135977	5703606.108727411
0.8552154156299011	5713306.193036414
0.8554292194838088	5723008.7023665
0.8556430767886797	5731928.600077458
0.855856987557877	5740374.073880869
0.8560709518047664	5748821.659052726
0.8562849695427177	5757271.356120879
0.8564990407851035	5765723.165613301
0.8567131655452999	5774199.410256566
0.8569273438366862	5782714.349628144
0.8571415756726455	5791231.417734566
0.8573558610665638	5799750.615108019
0.8575702000318304	5808271.942280806
0.8577845925818384	5816943.394132594
0.857999038729984	5826541.441061565
0.8582135384896665	5836141.887502266
0.858428091874289	5845744.7340545785
0.8586426988972576	5855349.981318526
0.8588573595719821	5864957.629894293
0.8590720739118751	5873115.310728798
0.8592868419303532	5881103.792261711
0.8595016636408359	5889094.270915009
0.8597165390567462	5897086.7471879665
0.8599314681915105	5905081.221579994
0.8601464510585584	5912024.569902161
0.860361487671323	5918410.662828282
0.8605765780432408	5924798.352277633
0.8607917221877518	5931187.638649351
0.8610069201182988	5937578.5223426595
0.8612221718483286	5927086.118175337
0.8614374773912907	5892249.243307787
0.8616528367606385	5857403.659221529
0.8618682499698288	5822549.363739228
0.8620837170323213	5787686.354683061
0.8622992379615795	5758400.2367792195
0.8625148127710699	5756747.825966932
0.8627304414742627	5755095.00205194
0.8629461240846313	5753441.76493097
0.8631618606156526	5751788.114500719
0.8633776510808066	5750134.050657861
0.8635934954935769	5803806.341310599
0.8638093938674504	5862027.285275881
0.8640253462159173	5920262.784477153
0.8642413525524714	5978512.8425532235
0.8644574128906095	6036777.463143801
0.8646735272438323	6046320.295121242
0.8648896956256433	6033201.757419141
0.8651059180495498	6020079.940082612
0.8653221945290621	6006954.842291763
0.8655385250776946	5993826.463226447
0.8657549097089641	5996369.132497184
0.8659713484363913	6018979.026002171
0.8661878412735006	6041594.571980544
0.866404388233819	6064215.77184541
0.8666209893308775	6086842.627010231
0.8668376445782103	6106401.072212721
0.8670543539893549	6113417.580400585
0.8672711175778525	6120435.842715501
0.8674879353572469	6127455.859595988
0.8677048073410862	6134477.6314806985
0.8679217335429217	6141501.158808383
0.8681387139763074	6153063.949096305
0.8683557486548015	6164855.041873139
0.8685728375919655	6176649.082423181
0.8687899808013633	6188446.071483335
0.8690071782965637	6200246.00979077
0.869224430091138	6206903.095300693
0.8694417361986609	6211468.024434995
0.8696590966327107	6216034.09480158
0.869876511406869	6220601.306685757
0.8700939805347206	6225169.660372902
0.8703115040298544	6230667.857507668
0.870529081905862	6237229.203508584
0.8707467141763385	6243792.189845996
0.8709644008548827	6250356.816929993
0.8711821419550964	6256923.085170757
0.8713999374905854	6264906.0335238315
0.871617787474958	6277774.766596897
0.8718356919218269	6290646.716853242
0.8720536508448075	6303521.885097152
0.8722716642575187	6316400.272133116
0.8724897321735832	6329281.878765844
0.8727078546066265	6340188.281119164
0.8729260315702784	6351067.311743687
0.873144263078171	6361949.062125856
0.8733625491439405	6372833.532945621
0.8735808897812266	6383720.724883094
0.8737992850036719	6390357.163470329
0.874017734824923	6395488.750208636
0.8742362392586293	6400621.619843626
0.874454798318444	6405755.772696025
0.8746734120180236	6410891.209086635
0.8748920803710283	6417731.96438006
0.875110803391121	6426286.82270931
0.8753295810919689	6434843.819753148
0.875548413487242	6443402.956046246
0.8757673005906139	6451964.232123418
0.8759862424157616	6463101.219395435
0.8762052389763657	6481687.739697283
0.8764242902861098	6500278.906629193
0.8766433963586814	6518874.72135284
0.8768625572077712	6537475.185030174
0.8770817728470732	6555961.1571539
0.8773010432902849	6565149.469836466
0.8775203685511077	6574340.079597216
0.8777397486432454	6583532.987010394
0.8779591835804065	6592728.192650437
0.8781786733763015	6601925.697091878
0.8783982180446457	6597837.715062991
0.878617817599157	6589795.843117026
0.8788374720535569	6581751.960703077
0.8790571814215703	6573706.067318527
0.8792769457169257	6565658.162460631
0.879496764953355	6562913.328430086
0.8797166391445934	6564937.426075541
0.8799365683043796	6566962.029745409
0.8801565524464557	6568987.139566194
0.8803765915845676	6571012.755664436
0.8805966857324639	6579405.341662001
0.880816834903897	6603790.67351867
0.881037039112623	6628182.101708312
0.8812572983724012	6652579.627754998
0.8814776126969944	6676983.2531832075
0.8816979821001687	6701051.568564917
0.8819184065956938	6717089.029729542
0.8821388861973429	6733130.500259475
0.8823594209188923	6749175.981157025
0.882580010774122	6765225.473424792
0.8828006557768155	6781278.978065635
0.8830213559407598	6796773.5422024615
0.8832421112797452	6812130.391365081
0.8834629218075651	6827491.079739981
0.8836837875380171	6842855.60828698
0.8839047084849018	6858223.977966118
0.884125684662023	6858754.730623019
0.8843467160831886	6847392.081960148
0.8845678027622095	6836026.592635113
0.8847889447129001	6824658.261937743
0.8850101419490785	6813287.0891577015
0.8852313944845657	6815049.268281612
0.885452702333187	6845565.406979299
0.8856740655087704	6876089.174711657
0.8858954840251476	6906620.573385939
0.8861169578961539	6937159.604909876
0.886338487135628	6965046.069047933
0.886560071757412	6957539.112635247
0.8867817117753515	6950030.279483458
0.8870034072032955	6942519.569123378
0.8872251580550963	6935006.981085717
0.8874469643446101	6927492.514901042
0.8876688260856963	6939758.404098726
0.8878907432922178	6956121.546618919
0.8881127159780409	6972488.779924733
0.8883347441570356	6988860.105038892
0.8885568278430749	7005235.522984312
0.8887789670500358	7014657.897827465
0.8890011617917983	7019147.4186651865
0.8892234120822464	7023638.061883119
0.8894457179352669	7028129.827761853
0.8896680793647509	7032622.71658206
0.8898904963845921	7036190.24258314
0.8901129690086883	7037990.900711071
0.8903354972509405	7039792.009003534
0.8905580811252535	7041593.567573071
0.8907807206455347	7043395.576532249
0.8910034158256963	7044229.978208916
0.8912261666796527	7036413.091042203
0.8914489732213227	7028594.249653695
0.8916718354646282	7020773.453554833
0.8918947534234944	7012950.702256954
0.8921177271118502	7005125.995271254
0.8923407565436284	7008474.136186084
0.8925638417327644	7013646.028538374
0.8927869826931977	7018819.213863755
0.8930101794388711	7023993.692485467
0.8932334319837308	7029169.464726833
0.8934567403417267	7036674.617654395
0.8936801045268123	7045628.278730234
0.8939035245529441	7054584.178221336
0.8941270004340824	7063542.316687313
0.894350532184191	7072502.694687905
0.8945741198172371	7092799.551453011
0.8947977633471915	7131897.965276378
0.8950214627880284	7171006.1537032
0.8952452181537254	7210124.119177105
0.8954690294582639	7249251.864142402
0.8956928967156286	7284068.69172974
0.8959168199398075	7290854.424130436
0.8961407991447926	7297641.852964234
0.8963648343445789	7304430.97865524
0.896588925553165	7311221.801627664
0.8968130727845534	7318014.322305833
0.8970372760527496	7320634.138932593
0.8972615353717629	7322732.308735846
0.8974858507556059	7324831.003081549
0.8977102222182949	7326930.222100839
0.8979346497738496	7329029.965924884
0.8981591334362931	7347413.393080452
0.8983836732196523	7374706.292544568
0.8986082691379572	7402006.015233532
0.8988329212052417	7429312.562853168
0.8990576294355432	7456625.937109732
0.8992823938429022	7475155.66703783
0.8995072144413631	7480619.7136330735
0.8997320912449734	7486085.126239964
0.8999570242677847	7491551.9052000055
0.9001820135238516	7497020.050854787
0.9004070590272328	7503509.071716953
0.9006321607919896	7515344.324485184
0.9008573188321878	7527182.536066619
0.9010825331618959	7539023.707200943
0.9013078037951865	7550867.838628053
0.9015331307461353	7562714.931088014
0.9017585140288219	7577848.603039932
0.9019839536573292	7593268.88491509
0.9022094496457435	7608693.021860706
0.9024350020081551	7624121.014840576
0.9026606107586572	7639552.864818685
0.902886275911347	7656163.4994347505
0.9031119974803249	7673344.683149507
0.9033377754796951	7690530.162160193
0.903563609923565	7707719.937540622
0.903789500826046	7724914.01036491
0.9040154482012526	7736994.462043279
0.904241452063303	7742448.115779337
0.9044675124263188	7747903.132928827
0.9046936293044254	7753359.513832604
0.9049198027117517	7758817.258831609
0.9051460326624297	7766112.433930868
0.9053723191705955	7781227.827556147
0.9055986622503881	7796347.000029819
0.9058250619159507	7811469.95229661
0.9060515181814298	7826596.685301476
0.9062780310609752	7841727.199989584
0.9065046005687405	7842389.147653117
0.906731226718883	7842243.891204169
0.9069579095255627	7842098.598441109
0.907184649002944	7841953.269354858
0.907411445165195	7841807.903936336
0.9076382980264862	7854075.447351743
0.907865207600993	7871501.1307944525
0.9080921739028933	7888931.170658018
0.9083191969463691	7906365.568031547
0.9085462767456058	7923804.3240044275
0.9087734133147922	7939113.132138119
0.9090006066681211	7951960.615823578
0.909227856819788	7964811.311379941
0.9094551637839932	7977665.219610211
0.9096825275749393	7990522.341317534
0.9099099482068329	8003163.983963497
0.9101374256938848	8015031.547091407
0.9103649600503083	8026902.077110094
0.9105925512903209	8038775.574761284
0.9108201994281437	8050652.040786898
0.9110479044780008	8062531.475929005
0.9112756664541204	8075320.32655406
0.911503485370734	8088133.122772303
0.9117313612420768	8100949.122189602
0.9119592940823873	8113768.32560675
0.912187283905908	8126590.733824758
0.9124153307268845	8126353.299116822
0.9126434345595664	8121374.681990233
0.9128715954182063	8116394.820209367
0.9130998133170609	8111413.713463053
0.9133280882703902	8106431.361440053
0.913556420292458	8110586.920956574
0.9137848093975312	8124168.867051879
0.9140132555998806	8137754.208633705
0.9142417589137806	8151342.946550928
0.9144703193535092	8164935.0816526385
0.9146989369333476	8176725.090830033
0.9149276116675811	8183072.530943789
0.9151563435704979	8189421.557917566
0.9153851326563907	8195772.172148093
0.9156139789395548	8202124.374032173
