#wavelength	surface flux
0.8	1198792.4533606835
0.8002000000000001	1203967.6495579476
0.8004000500000003	1209631.422320099
0.8006001500125003	1215301.5330611519
0.8008003000500035	1220973.0613298903
0.8010005001250161	1226646.0074806984
0.8012007502500472	1232320.3718680362
0.8014010504376099	1237001.711283171
0.8016014007002193	1241351.112820814
0.8018018010503944	1245701.601708841
0.8020022515006572	1250053.178219092
0.8022027520635323	1254405.842623467
0.8024033027515483	1258773.3665883737
0.8026039035772362	1263155.4778640994
0.8028045545531306	1267538.6846676446
0.8030052556917691	1271922.9872728926
0.803206007005692	1276308.3859537882
0.8034068085074435	1280861.6618950642
0.8036076602095705	1285883.5875122272
0.8038085621246229	1290906.7686107908
0.8040095142651542	1295931.205504632
0.8042105166437206	1300956.898507695
0.8044115692728815	1305960.6866963126
0.8046126721651998	1309969.5201915503
0.8048138253332411	1313979.3558951584
0.8050150287895745	1317990.1940576963
0.805216282546772	1322002.0349297735
0.8054175866174087	1326014.8787620668
0.8056189410140631	1330056.502313129
0.8058203457493168	1334106.998823336
0.8060218008357541	1338158.5079576655
0.8062233062859632	1342211.0299692806
0.8064248621125346	1346264.565111396
0.806626468328063	1350821.3773102192
0.8068281249451449	1355810.712446177
0.8070298319763813	1360801.2949159245
0.8072315894343755	1365793.125031286
0.8074333973317341	1370786.2031041782
0.8076352556810671	1374794.3175908166
0.8078371644949874	1376429.4574900737
0.8080391237861113	1378065.0061743062
0.8082411335670578	1379700.9637457086
0.8084431938504498	1381337.3303065056
0.8086453046489125	1382937.5090649987
0.8088474659750746	1383856.7192694454
0.8090496778415686	1384776.1592764445
0.809251940261029	1385695.8291434448
0.8094542532460944	1386615.7289279124
0.8096566168094059	1387535.8586873251
0.8098590309636085	1389255.5737447145
0.8100614957213493	1391162.814357727
0.8102640110952797	1393070.5317808932
0.8104665770980536	1394978.7261334157
0.8106691937423283	1396887.3975345271
0.8108718610407639	1399341.993170243
0.8110745790060241	1402214.2771982914
0.8112773476507757	1405087.2792973493
0.8114801669876885	1407960.9996469312
0.8116830370294355	1410835.438426599
0.8118859577886929	1413293.4963692606
0.8120889292781401	1414885.8350367479
0.8122919515104597	1416478.5717889017
0.8124950244983374	1418071.7067252437
0.8126981482544621	1419665.2399453197
0.8129013227915257	1421358.2429593652
0.8131045481222237	1424186.0520227782
0.8133078242592543	1427014.568038457
0.8135111512153191	1429843.7911831392
0.813714529003123	1432673.721633608
0.8139179576353739	1435504.3595666897
0.8141214371247829	1447223.9715165177
0.8143249674840641	1460670.0977150407
0.814528548725935	1474119.5854451053
0.8147321808631167	1487572.4355471204
0.8149358639083326	1501028.6488616571
0.8151395978743097	1509662.7131730674
0.8153433827737784	1515038.6169185613
0.8155472186194719	1520415.8646399898
0.8157511054241268	1525794.4566733474
0.815955043200483	1531174.3933547172
0.8161590319612831	1535782.021790152
0.8163630717192736	1538973.1768929772
0.8165671624872033	1542165.1297845745
0.8167713042778252	1545357.8806643977
0.8169754971038948	1548551.4297319425
0.8171797409781707	1551319.9160547142
0.8173840359134155	1550689.3131888683
0.8175883819223938	1550058.5526723068
0.8177927790178745	1549427.6344656157
0.8179972272126291	1548796.5585293728
0.8182017265194322	1548165.3248241465
0.8184062769510622	1553674.3366210472
0.8186108785203001	1560129.6428578645
0.8188155312399301	1566586.5629212325
0.8190202351227402	1573045.0972146234
0.819224990181521	1579505.2461415837
0.8194297964290664	1586026.0328474857
0.8196346538781738	1592584.0256029333
0.8198395625416434	1599143.657856567
0.8200445224322789	1605704.930018267
0.820249533562887	1612267.8424980054
0.8204545959462778	1618115.0173187868
0.8206597095952644	1622809.0527859419
0.8208648745226633	1627504.2617619676
0.8210700907412941	1632200.6445402363
0.8212753582639793	1636898.2014141951
0.8214806771035456	1640096.1883185555
0.8216860472728215	1634048.5610444872
0.8218914687846397	1627999.4218636001
0.822096941651836	1621948.7703979148
0.822302465887249	1615896.6062693663
0.8225080415037209	1609842.9290997826
0.8227136685140968	1615697.8743510167
0.8229193469312254	1622906.3326770454
0.8231250767679583	1630116.593117658
0.8233308580371503	1637328.6561233767
0.8235366907516598	1644542.5221448522
0.8237425749243477	1652500.964441474
0.8239485105680789	1660855.0789947738
0.824154497695721	1669211.2820767064
0.824360536320145	1677569.574209411
0.8245666264542252	1685929.9559151484
0.8247727681108388	1693357.4505517744
0.8249789613028664	1699447.7387878085
0.8251852060431922	1705539.549595907
0.825391502344703	1711632.8833567048
0.8255978502202894	1717727.7404509485
0.8258042496828445	1723415.8910661547
0.8260107007452654	1727122.86503606
0.8262172034204517	1730830.7657494543
0.8264237577213068	1734539.5934380277
0.8266303636607373	1738249.348333525
0.8268370212516525	1741960.0306677443
0.8270437305069654	1741443.0613706417
0.8272504914395923	1740595.5268409285
0.8274573040624523	1739747.7804275826
0.8276641683884679	1738899.822077634
0.8278710844305652	1738051.6517380972
0.8280780522016729	1740999.0702692345
0.8282850717147234	1745682.279223254
0.8284921429826521	1750366.6589795074
0.8286992660183978	1755052.2098307034
0.8289064408349024	1759738.9320696092
0.8291136674451112	1762762.0716808278
0.8293209458619727	1763686.7953140072
0.8295282760984382	1764611.7501280936
0.829735658167463	1765536.9361808847
0.8299430920820048	1766462.3535301879
0.8301505778550254	1767558.3485958744
0.8303581154994891	1769334.5198751036
0.8305657050283641	1771111.1351971545
0.8307733464546212	1772888.1946730346
0.8309810397912352	1774665.6984137865
0.8311887850511829	1776443.64653047
0.8313965822474458	1786363.1961243786
0.8316044313930077	1796663.0997662721
0.8318123325008561	1806965.5783840858
0.8320202855839813	1817270.6326215488
0.8322282906553774	1827578.2631225723
0.8324363477280413	1832162.7618006682
0.8326444568149735	1834443.256468037
0.8328526179291771	1836724.3212590697
0.8330608310836596	1839005.9563163037
0.8332690962914304	1841288.161782299
0.8334774135655034	1843035.9308644328
0.833685782918895	1844186.51657295
0.8338942043646247	1845337.3899278932
0.834102677915716	1846488.5510011762
0.834311203585195	1847639.9998647266
0.8345197813860912	1850655.5559692578
0.8347284113314379	1859945.6562887537
0.8349370934342709	1869238.0791333243
0.8351458277076294	1878532.8250835948
0.8353546141645565	1887829.8947203683
0.8355634528180977	1897129.2886245472
0.8357723436813022	1889188.2765861617
0.8359812867672226	1881032.3755041847
0.8361902820889144	1872874.4354469413
0.8363993296594368	1864714.4559046812
0.8366084294918518	1856552.4363675327
0.8368175815992247	1860980.820666375
0.8370267859946247	1869747.2792312084
0.8372360426911234	1878515.92941068
0.8374453517017962	1887286.7717526958
0.8376547130397217	1896059.8068052959
0.8378641267179816	1902017.769705092
0.8380735927496613	1905181.7624567815
0.8382831111478488	1908346.5462066568
0.8384926819256358	1911512.121152468
0.8387023050961173	1914678.4874920184
0.8389119806723914	1917788.3354634896
0.8391217086675596	1920737.67194385
0.8393314890947265	1923687.7457583277
0.8395413219670003	1926638.5570912596
0.8397512072974922	1929590.1061270267
0.8399611450993165	1932695.1718475034
0.8401711353855914	1943387.9543158326
0.8403811781694378	1954083.409979776
0.8405912734639802	1964781.539507638
0.8408014212823464	1975482.343567887
0.8410116216376671	1986185.82282915
0.8412218745430766	1995262.7513047657
0.8414321800117124	2003867.9069254426
0.8416425380567154	2012475.2138350292
0.8418529486912297	2021084.672571345
0.8420634119284025	2029696.2836723377
0.8422739277813847	2035048.205389073
0.8424844962633302	2037527.6554597118
0.842695117387396	2040007.7253928655
0.8429057911667428	2042488.4153435023
0.8431165176145345	2044969.725466628
0.8433272967439382	2047712.064439731
0.8435381285681244	2051090.297595147
0.8437490131002665	2054469.375308851
0.8439599503535415	2057849.2977919814
0.84417094034113	2061230.0652557348
0.8443819830762154	2064698.6760709528
0.8445930785719846	2069920.7394012532
0.8448042268416277	2075144.1082473833
0.8450154278983382	2080368.7829357241
0.8452266817553128	2085594.763792737
0.8454379884257517	2090822.0511449643
0.8456493479228583	2096282.4946773138
0.845860760259839	2101800.1354324864
0.846072225449904	2107319.155597848
0.8462837435062666	2112839.555518252
0.8464953144421433	2118361.335538639
0.8467069382707537	2122642.410981896
0.8469186150053215	2125956.3895659153
0.847130344659073	2129271.1966445814
0.8473421272452377	2132586.832425014
0.8475539627770492	2135903.297114395
0.8477658512677435	2139697.1049553854
0.8479777927305605	2144503.6760542244
0.8481897871787432	2149311.4487958364
0.848401834625538	2154120.4234806374
0.8486139350841944	2158930.600409106
0.8488260885679657	2163613.0870240657
0.8490382950901076	2166725.5860818997
0.8492505546638802	2169838.8632645
0.8494628673025462	2172952.918766395
0.8496752330193721	2176067.75278217
0.8498876518276269	2179183.365506445
0.8501001237405839	2175584.445693858
0.8503126487715191	2170644.1320479545
0.850525226933712	2165702.583323642
0.8507378582404455	2160759.799212149
0.8509505427050057	2155815.7794046244
0.8511632803406821	2153339.542013378
0.8513760711607672	2152553.511062629
0.8515889151785576	2151767.283604141
0.8518018124073523	2150980.8595887893
0.8520147628604541	2150194.238967434
0.8522277665511693	2154098.945721895
0.8524408234928071	2166681.035250964
0.8526539336986805	2179266.2703024186
0.8528670971821053	2191854.6516626365
0.8530803139564007	2204446.18011818
0.8532935840348901	2216879.540177647
0.8535069074308987	2227953.6101748385
0.8537202841577566	2239030.448689538
0.8539337142287962	2250110.0564138675
0.8541471976573534	2261192.4340401217
0.8543607344567677	2272277.5822607838
0.8545743246403821	2279108.101998115
0.8547879682215422	2285264.2056221925
0.8550016652135977	2291421.848272175
0.8552154156299011	2297581.03033282
0.8554292194838088	2303741.7521889852
0.8556430767886797	2308842.2072204105
0.855856987557877	2313299.2361960253
0.8560709518047664	2317757.3794288817
0.8562849695427177	2322216.6371975476
0.8564990407851035	2326677.009780657
0.8567131655452999	2331112.682080015
0.8569273438366862	2335507.1639408716
0.8571415756726455	2339902.7444221945
0.8573558610665638	2344299.423798639
0.8575702000318304	2348697.202344923
0.8577845925818384	2353170.865229261
0.857999038729984	2358112.780524586
0.8582135384896665	2363055.931298733
0.858428091874289	2368000.3178605745
0.8586426988972576	2372945.9405190544
0.8588573595719821	2377892.7995832013
0.8590720739118751	2381957.8010307495
0.8592868419303532	2385919.699268316
0.8595016636408359	2389882.5879804417
0.8597165390567462	2393846.4674147447
0.8599314681915105	2397811.337818907
0.8601464510585584	2401086.2425995516
0.860361487671323	2403995.2110384605
0.8605765780432408	2406904.9067194783
0.8607917221877518	2409815.3298244188
0.8610069201182988	2412726.4805351347
0.8612221718483286	2409101.2086096397
0.8614374773912907	2396050.8433568603
0.8616528367606385	2382997.2155127716
0.8618682499698288	2369940.324261714
0.8620837170323213	2356880.168787845
0.8622992379615795	2346250.8760833372
0.8625148127710699	2347664.4920189953
0.8627304414742627	2349078.4613586375
0.8629461240846313	2350492.7841906147
0.8631618606156526	2351907.4606032996
0.8633776510808066	2353322.490685088
0.8635934954935769	2373505.7428003186
0.8638093938674504	2395232.4768353933
0.8640253462159173	2416964.6425539763
0.8642413525524714	2438702.2413139883
0.8644574128906095	2460445.2744736862
0.8646735272438323	2464622.0459107417
0.8648896956256433	2460628.5353233987
0.8651059180495498	2456634.026358409
0.8653221945290621	2452638.518766181
0.8655385250776946	2448642.01229705
0.8657549097089641	2451196.2408550032
0.8659713484363913	2462138.767924218
0.8661878412735006	2473084.030625205
0.866404388233819	2484032.0296418658
0.8666209893308775	2494982.7656582757
0.8668376445782103	2504441.28500147
0.8670543539893549	2507800.50134334
0.8672711175778525	2511160.5574892983
0.8674879353572469	2514521.4536492894
0.8677048073410862	2517883.1900333217
0.8679217335429217	2521245.766851452
0.8681387139763074	2526324.966630375
0.8683557486548015	2531490.6719033914
0.8685728375919655	2536657.6686027325
0.8687899808013633	2541825.9570512366
0.8690071782965637	2546995.53757186
0.869224430091138	2551754.0410840297
0.8694417361986609	2556345.9416330513
0.8696590966327107	2560938.990157209
0.869876511406869	2565533.1869434984
0.8700939805347206	2570128.532278982
0.8703115040298544	2574985.4704607874
0.870529081905862	2580141.3857242027
0.8707467141763385	2585298.5899664327
0.8709644008548827	2590457.0835097223
0.8711821419550964	2595616.866676395
0.8713999374905854	2600876.798066716
0.871617787474958	2606479.2386567057
0.8718356919218269	2612083.079856848
0.8720536508448075	2617688.3220172906
0.8722716642575187	2623294.96548827
0.8724897321735832	2628903.0106201195
0.8727078546066265	2633667.385990158
0.8729260315702784	2638420.0961402133
0.873144263078171	2643173.9944678014
0.8733625491439405	2647929.0812699716
0.8735808897812266	2652685.356843844
0.8737992850036719	2654605.7384474524
0.874017734824923	2655521.7519835024
0.8742362392586293	2656437.9945229357
0.874454798318444	2657354.466123004
0.8746734120180236	2658271.1668409724
0.8748920803710283	2660342.6240040115
0.875110803391121	2663574.788926453
0.8753295810919689	2666807.7618901273
0.875548413487242	2670041.5430970425
0.8757673005906139	2673276.132749259
0.8759862424157616	2678068.221813737
0.8762052389763657	2687365.867093035
0.8764242902861098	2696665.836783646
0.8766433963586814	2705968.1314666825
0.8768625572077712	2715272.7517233924
0.8770817728470732	2724504.8977024723
0.8773010432902849	2727899.1226724503
0.8775203685511077	2731294.1961986753
0.8777397486432454	2734690.1184932776
0.8779591835804065	2738086.889768458
0.8781786733763015	2741484.5102364523
0.8783982180446457	2739727.308998449
0.878617817599157	2736435.952671455
0.8788374720535569	2733143.773505381
0.8790571814215703	2729850.771294516
0.8792769457169257	2726556.9458330986
0.879496764953355	2722987.568671559
0.8797166391445934	2719170.3004301195
0.8799365683043796	2715352.077871619
0.8801565524464557	2711532.900757479
0.8803765915845676	2707712.7688490567
0.8805966857324639	2709369.1696560727
0.880816834903897	2724783.79170373
0.881037039112623	2740202.2674069046
0.8812572983724012	2755624.5977290045
0.8814776126969944	2771050.783633691
0.8816979821001687	2786065.8580468968
0.8819184065956938	2791316.268768352
0.8821388861973429	2796567.9920924935
0.8823594209188923	2801821.0283474606
0.882580010774122	2807075.377861489
0.8828006557768155	2812331.040962899
0.8830213559407598	2817960.3970149714
0.8832421112797452	2823684.817513247
0.8834629218075651	2829410.669116644
0.8836837875380171	2835137.9521829435
0.8839047084849018	2840866.6670700107
0.884125684662023	2841536.010680481
0.8843467160831886	2838149.9339963985
0.8845678027622095	2834763.0107931453
0.8847889447129001	2831375.2408590904
0.8850101419490785	2827986.6239825524
0.8852313944845657	2829448.6798998844
0.885452702333187	2841530.4834554004
0.8856740655087704	2853615.3074618033
0.8858954840251476	2865703.1526742047
0.8861169578961539	2877794.019847904
0.886338487135628	2888518.510889311
0.886560071757412	2881022.535461504
0.8867817117753515	2873524.686039841
0.8870034072032955	2866024.962155818
0.8872251580550963	2858523.3633408337
0.8874469643446101	2851019.8891261406
0.8876688260856963	2857965.3382139364
0.8878907432922178	2867903.301750259
0.8881127159780409	2877843.7497774595
0.8883347441570356	2887786.6829166785
0.8885568278430749	2897732.1017891723
0.8887789670500358	2904454.9983819276
0.8890011617917983	2908891.8395698704
0.8892234120822464	2913329.789968112
0.8894457179352669	2917768.8498539496
0.8896680793647509	2922209.019504762
0.8898904963845921	2923886.071655256
0.8901129690086883	2920289.324154792
0.8903354972509405	2916691.6774674538
0.8905580811252535	2913093.1313684406
0.8907807206455347	2909493.685632908
0.8910034158256963	2905199.5150275347
0.8912261666796527	2894703.581849193
0.8914489732213227	2884205.024687554
0.8916718354646282	2873703.8428866146
0.8918947534234944	2863200.0357902353
0.8921177271118502	2852693.602742088
0.8923407565436284	2840615.268502947
0.8925638417327644	2828277.9233252313
0.8927869826931977	2815937.4938112176
0.8930101794388711	2803593.9791898257
0.8932334319837308	2791247.378689781
0.8934567403417267	2782660.275249347
0.8936801045268123	2776409.0278959493
0.8939035245529441	2770156.2177307173
0.8941270004340824	2763901.844362941
0.894350532184191	2757645.907401825
0.8945741198172371	2769150.676847421
0.8947977633471915	2810114.929179079
0.8950214627880284	2851089.422573818
0.8952452181537254	2892074.159591881
0.8954690294582639	2933069.1427942235
0.8956928967156286	2969086.789297724
0.8959168199398075	2972745.7873964924
0.8961407991447926	2976405.700244786
0.8963648343445789	2980066.5280712917
0.896588925553165	2983728.271104752
0.8968130727845534	2987390.9295739713
0.8970372760527496	2986176.307415853
0.8972615353717629	2984351.0210082107
0.8974858507556059	2982525.2782789664
0.8977102222182949	2980699.0791140404
0.8979346497738496	2978872.4233993217
0.8981591334362931	2997500.7365074228
0.8983836732196523	3027320.2979129315
0.8986082691379572	3057147.3142087716
0.8988329212052417	3086981.787258686
0.8990576294355432	3116823.7189268884
0.8992823938429022	3136883.8685694067
0.8995072144413631	3142393.6736612264
0.8997320912449734	3147904.8562043165
0.8999570242677847	3153417.4165430414
0.9001820135238516	3158931.3550218516
0.9004070590272328	3164329.6437195553
0.9006321607919896	3169115.779894725
0.9008573188321878	3173903.1126039433
0.9010825331618959	3178691.642146337
0.9013078037951865	3183481.3688211166
0.9015331307461353	3188272.2929275623
0.9017585140288219	3195971.000628749
0.9019839536573292	3203921.9847811637
0.9022094496457435	3211874.9566796115
0.9024350020081551	3219829.9168210425
0.9026606107586572	3227786.865702506
0.902886275911347	3240454.504459515
0.9031119974803249	3255395.231589772
0.9033377754796951	3270339.6939018117
0.903563609923565	3285287.8923294223
0.903789500826046	3300239.82780665
0.9040154482012526	3310329.7441747272
0.904241452063303	3314119.0195600307
0.9044675124263188	3317909.242264179
0.9046936293044254	3321700.4125240026
0.9049198027117517	3325492.5305763935
0.9051460326624297	3329975.7265652316
0.9053723191705955	3337398.7770458357
0.9055986622503881	3344823.6832890534
0.9058250619159507	3352250.4457588317
0.9060515181814298	3359679.0649192324
0.9062780310609752	3367109.5412344183
0.9065046005687405	3355847.3135363283
0.906731226718883	3343539.3559586382
0.9069579095255627	3331228.3213915695
0.907184649002944	3318914.209065858
0.907411445165195	3306597.0182120525
0.9076382980264862	3317418.027702986
0.907865207600993	3337852.2730221353
0.9080921739028933	3358291.6269026087
0.9083191969463691	3378736.0906215487
0.9085462767456058	3399185.665456428
0.9087734133147922	3412592.490497117
0.9090006066681211	3417862.2990571563
0.909227856819788	3423133.4250693284
0.9094551637839932	3428405.8688630112
0.9096825275749393	3433679.6307676407
0.9099099482068329	3439760.7032772633
0.9101374256938848	3448707.806183333
0.9103649600503083	3457657.145865125
0.9105925512903209	3466608.7228818354
0.9108201994281437	3475562.53779281
0.9110479044780008	3484518.5911575016
0.9112756664541204	3493098.0975349885
0.911503485370734	3501671.0784442937
0.9117313612420768	3510246.2025988265
0.9119592940823873	3518823.470534395
0.912187283905908	3527402.8827869506
0.9124153307268845	3518358.8647733163
0.9126434345595664	3502915.5322294114
0.9128715954182063	3487468.338852385
0.9130998133170609	3472017.283677007
0.9133280882703902	3456562.3657378354
0.913556420292458	3454769.190010422
