#wavelength	surface flux
0.428837	86.34166200234893
0.43312537	170.69358266204858
0.43745662370000005	203.50365567971818
0.4418311899370001	242.1776886600747
0.44624950183637	287.5975907124334
0.4507119968547338	340.46147501515907
0.45521911682328114	401.5460750821707
0.4597713079915139	474.942738214357
0.4643690210714291	559.2439480253396
0.4690127112821433	656.5195118299104
0.47370283839496474	769.2208495294575
0.47843986677891437	898.1828860579802
0.48322426544670355	1046.738100541458
0.48805650810117057	1217.5976275588246
0.4929370731821824	1410.9668980937297
0.49786644391400414	1628.9285407338564
0.5028451083531442	1872.4736238412547
0.5078735594366757	2142.270275187572
0.5129522950310424	2429.2831344397136
0.5180818179813528	2730.967656652368
0.5232626361611664	3110.293335420573
0.5284952625227781	3465.288732924566
0.5337802151480058	3803.0822893335167
0.5391180172994858	4099.362057123537
0.5445091974724807	4303.496269642672
0.5499542894472055	4352.512384371729
0.5554538323416777	4149.723383799268
0.5610083706650945	3602.4558248627195
0.5666184543717453	2671.264657861316
0.5722846389154628	1521.253073347547
0.5780074853046174	542.7979359653385
0.5837875601576636	84.05872208879444
0.5896254357592402	3.947708438266806
0.5955216901168326	164.92132328641335
0.6014769070180009	1080.2043993210207
0.607491676088181	3360.7770258948394
0.6135665928490629	7006.8372872969185
0.6197022587775535	11643.226938619277
0.625899281365329	16936.45019074292
0.6321582741789823	22673.524790601085
0.6384798569207721	28797.067774182382
0.6448646554899798	35143.305710325
0.6513133020448797	42112.232819363766
0.6578264350653285	49234.203387936606
0.6644046994159818	57195.25290431304
0.6710487464101416	55437.114162900674
0.677759233874243	74818.2973174389
0.6845368262129854	84592.73714721159
0.6913821944751153	92860.97110569206
0.6982960164198664	104867.49339398739
0.7052789765840651	116003.3226510562
0.7123317663499058	127199.91727715949
0.7194550840134049	133637.28713365187
0.7266496348535388	138999.1628432728
0.7339161312020743	146178.2348331292
0.741255292514095	145492.5476883022
0.748667845439236	125474.01087342924
0.7561545238936284	70931.52484718176
0.7637160691325647	8016.144472388502
0.7713532298238903	6201.864162304986
0.7790667621221293	78217.1236741575
0.7868574297433505	199701.39162155185
0.7947260040407841	169858.75348780598
0.8026732640811919	351917.5076914293
0.8106999967220039	389686.20992492983
0.8188069966892239	455782.3822310971
0.8269950666561161	506363.70776501996
0.8352650173226772	548080.5872878422
0.8436176674959041	622686.0501195196
0.852053844170863	677633.4552663815
0.8605743826125718	753525.4483568355
0.8691801264386976	818015.6090599081
0.8778719277030844	873860.6517858539
0.8866506469801153	900648.8018979041
0.8955171534499164	878013.8929948572
0.9044723249844157	1073277.1174571163
0.9135170482342599	1142176.626327146
0.9226522187166025	1190798.1373713454
0.9318787409037684	689212.3604084899
0.941197528312806	977808.4216421507
0.9506095035959342	888158.1956058827
0.9601155986318936	883929.3223377763
0.9697167546182125	1064014.253480644
0.9794139221643946	1481973.8093486768
0.9892080613860387	1764100.209548818
0.9991001419998989	2025509.3306295327
1.0090911434198981	2220297.9323887224
1.019182054854097	2434340.9042401533
1.0293738754026378	2468202.4119542483
1.0396676141566643	2764524.5615582834
1.050064290298231	2892733.425829005
1.0605649332012133	3092028.939701803
1.0711705825332256	3220889.2229019804
1.0818822883585577	3406022.584673555
1.0927011112421434	3323554.003762634
1.1036281223545648	1703591.9178751132
1.1146644035781104	1382428.0013230215
1.1258110476138916	1343405.6415922886
1.1370691580900303	1669186.916108401
1.1484398496709307	2071173.6941311471
1.1599242481676402	833578.963671415
1.1715234906493166	2002627.2340198024
1.1832387255558097	3950244.209807351
1.1950711128113678	4898291.4191054525
1.2070218239394814	5349028.789046756
1.2190920421788762	5818155.740595071
1.2312829626006652	6226311.070071239
1.2435957922266716	6580416.153742583
1.2560317501489384	6861579.440284916
1.2685920676504279	6997848.646041295
1.281277988326932	7091566.819110643
1.2940907682102014	6749961.3618802065
1.3070316758923035	6426005.467141554
1.3201019926512265	6787797.130291469
1.3333030125777388	2134257.518405617
1.3466360427035162	271509.6807252737
1.3601024031305513	60731.1498837853
1.373703427161857	387322.8421929412
1.3874404614334754	35681.04347222394
1.4013148660478103	180975.04788166756
1.4153280147082883	127551.57554102225
1.4294812948553712	204536.60524007957
1.443776107803925	542541.3228696891
1.4582138688819641	1970013.7203171386
1.4727960075707838	1664469.9436646723
1.4875239676464918	3569636.4774979283
1.5023992073229566	4375621.3495638035
1.5174231993961862	6314674.603757735
1.532597431390148	8540288.21058583
1.5479234057040496	10111752.37379426
1.5634026397610903	10981851.164876219
1.579036666158701	10070543.054601947
1.594827032820288	11845459.25144968
1.610775303148491	10656635.906266836
1.6268830561799759	7081739.749998127
1.6431518867417756	10398818.785601491
1.6595834056091934	9272990.775287716
1.6761792396652853	7481495.840908271
1.6929410320619382	4771917.0006121965
1.7098704423825577	5104073.089278822
1.7269691468063835	6883723.53860877
1.744238838274447	5118255.211608605
1.7616812266571917	5433007.210967787
1.7792980389237634	763674.576130347
1.7970910193130012	1521323.2204743538
1.815061929506131	336120.27947323956
1.8332125488011928	200339.89607739638
1.8515446742892046	555771.2994121477
1.8700601210320964	199953.04562775523
1.8887607222424174	1487642.2757518298
1.9076483294648416	98540.4583271539
1.92672481275949	123619.76027973495
1.9459920608870853	516166.6077235598
1.9654519814959561	757678.1509697271
1.9851065013109155	2692808.4364064056
2.0049575663240247	4218089.952479582
2.025007141987265	6673347.7791620325
2.0452572134071376	12301059.57804034
2.065709785541209	14478308.313343726
2.086366883396621	14902786.16041902
2.107230552230587	13714325.264218407
2.1283028577528933	12286952.562156873
2.1495858863304225	8761728.78134943
2.1710817451937263	7569514.7515303185
2.1927925626456637	3499971.6317194267
2.2147204882721203	1381500.7855855636
2.2368676931548412	499976.82155161904
2.25923637008639	475973.5015253097
2.281828733787254	396277.18309964635
2.3046470211251266	685634.0951089457
2.327693491336378	262019.11233621216
2.3509704262497415	237549.9315967816
2.374480130512239	188901.71135745794
2.3982249318173614	378177.896461304
2.4222071811355352	883214.9856211038
2.4464292529468903	999016.0614680776
2.4708935454763594	744804.8155118225
2.4956024809311232	331520.2401235468
2.5205585057404343	108145.7841500603
2.5457640907978387	250080.49588424418
2.5712217317058172	65701.53998645312
2.5969339490228753	36485.753447564115
2.622903288513104	185708.3940181211
2.6491323213982354	341864.5886999414
2.6756236446122177	15508.899534895689
2.7023798810583397	132835.5890910134
2.729403679868923	514623.6361633443
2.7566977166676123	119427.53552159503
2.7842646938342885	91817.92340854912
2.812107340772631	130485.53987574598
2.8402284141803578	387342.0849607029
2.8686306983221614	226879.87993916823
2.897317005305383	343896.6841666519
2.926290175358437	940709.4487005331
2.9555530771120213	1185963.8023965342
2.9851086078831415	1278853.7283371482
3.014959693961973	1501692.6696064088
3.0451092909015927	1115494.4933677944
3.0755603838106085	1453898.7082295425
3.1063159876487147	862046.2032780823
3.137379147525202	567219.5805697769
3.168752939000454	351821.9549936198
3.200440468390459	248805.44717662604
3.232444873074363	152265.9939641346
3.264769321805107	502562.3528243835
3.297417015023158	499253.77265814086
3.330391185173389	77804.71392888756
3.3636950970251234	377973.20198011835
3.397332047995375	293771.36353864643
3.4313053684753285	205409.3699650278
3.465618422160081	261783.7507060818
3.5002746063816828	438564.81485002296
3.5352773524454997	557820.3333304393
3.570630125969955	845750.8391965952
3.606336427229654	1152648.7492124315
3.6423997915019504	1714038.4986428977
3.67882378941697	2368373.843132481
3.7156120273111397	2540059.839497669
3.7527681475842516	3381040.0191311156
3.7902958290600934	3347141.7296558158
3.8281987873506953	4911248.536230673
3.8664807752242023	4901902.646103254
3.905145582976444	5185402.307232494
3.9441970388062084	6194635.679762723
3.983639009194271	6430035.192828447
4.023475399286213	7132926.693799774
4.063710153279075	7450370.819450624
4.1043472548118665	7358229.165629877
4.145390727359985	7028164.46446964
4.186844634633585	6729855.550046439
4.2287130809799205	5924579.073473129
4.27100021178972	5494937.629247605
4.313710213907617	5526538.141820463
4.356847316046694	4679394.433019625
4.40041578920716	4273208.13829556
4.444419947099232	3838603.716838593
4.488864146570225	3662669.2618406615
4.533752788035927	3308287.991433256
4.579090315916286	3459752.066040937
4.624881219075449	3145064.5732527627
4.671130031266204	3076926.598299235
4.717841331578866	2775871.0508973654
4.765019744894654	3063393.5843172558
4.812669942343601	2821312.0095724836
4.8607966417670365	2990907.719292067
4.9094046081847065	2657354.762571238
4.958498654266554	1368502.1558065773
5.008083640809219	1782467.368333239
5.058164477217312	2510966.6001244527
5.108746121989485	1870127.5177582277
5.15983358320938	1163657.4035221708
5.211431919041474	804882.8095411791
5.263546238231889	1132416.5623803244
5.316181700614208	1493718.0197719943
5.36934351762035	637073.6394784749
5.423036952796553	423644.18815184647
5.4772673223245185	447207.11654901097
5.532039995547764	534995.769090551
5.587360395503242	345548.3837585096
5.643233999458275	249479.93212100636
5.6996663394528575	242657.852754833
5.756663002847385	220105.12509366559
5.814229632875859	296998.192617719
5.872371929204618	176484.4731233925
5.931095648496664	250386.0555603046
5.990406604981631	334781.06361800525
6.050310671031448	284520.5680741881
6.110813777741763	278605.1428031889
6.17192191551918	283685.19937490544
6.233641134674372	976698.0462011651
6.295977546021115	1101248.8756038274
6.358937321481327	590369.406918326
6.42252669469614	149860.57752846778
6.486751961643101	124632.2094406512
6.551619481259532	167110.04297070563
6.617135676072128	149080.54656114223
6.683307032832849	290477.05609632673
6.750140103161177	382167.44059373776
6.81764150419279	382084.0271608032
6.885817919234718	239095.18120814825
6.954676098427065	400537.70575406693
7.024222859411336	202224.67729715758
7.094465088005449	366556.7868372284
7.165409738885503	222843.85594410525
7.237063836274358	258047.40970653656
7.309434474637103	195680.8517566828
7.382528819383473	156349.3301414582
7.456354107577308	153223.3341067603
7.530917648653081	222526.06023045589
7.606226825139612	260791.35325941755
7.682289093391009	112612.85390115756
7.759111984324918	199406.30517636373
7.836703104168168	205923.6940805323
7.91507013520985	193185.43260452236
7.994220836561947	238026.34402302123
8.074163044927568	250705.68005829703
8.154904675376844	285935.7585194629
8.23645372213061	344721.35652365565
8.318818259351918	391586.80689477484
8.402006441945437	414839.6788286797
8.486026506364892	515002.5627934481
8.57088677142854	579561.4949141819
8.656595639142825	643613.7885886842
8.743161595534254	719252.9953264145
8.830593211489598	788320.6819030974
8.918899143604493	739297.7436591228
9.00808813504054	788707.8887719063
9.098169016390944	872140.6928461142
9.189150706554853	912600.6718603601
9.281042213620402	844230.6973958319
9.373852635756606	643943.9813632508
9.467591162114172	911199.1122677383
9.562267073735315	1018566.3110094566
9.657889744472667	768466.6288989828
9.754468641917395	952150.8976917202
9.852013328336568	731772.1419903014
9.950533461619933	963188.3333003735
10.050038796236134	868505.780911323
10.150539184198495	934064.391127402
10.252044576040479	778784.5849227705
10.354565021800884	474002.84940255573
10.458110672018893	576175.5237864249
10.562691778739081	686559.7601615735
10.668318696526473	613210.9685290164
10.775001883491738	568598.7056569005
10.882751902326655	581305.6192016037
10.991579421349924	424115.43667794886
11.101495215563421	622214.3165834978
11.212510167719055	485460.2784810179
11.324635269396246	513697.110715413
11.43788162209021	585679.6226665166
11.552260438311112	361521.4322878687
11.667783042694223	406618.32566337404
11.784460873121166	387257.98058041494
11.902305481852377	445201.86094119604
12.0213285366709	457646.0476484259
12.14154182203761	496576.9360031435
12.262957240257986	342741.3557329123
12.385586812660566	275195.57031846466
12.509442680787172	269137.0610270562
12.634537107595044	346187.32686489506
12.760882478670995	320193.6730816044
12.888491303457704	289614.50519684714
13.01737621649228	246701.60151467772
13.147549978657205	272084.2975579307
13.279025478443776	190572.992174422
13.411815733228213	182755.73310190102
13.545933890560496	251816.9530228679
13.681393229466101	202793.9815357718
13.818207161760762	198251.50015414535
13.956389233378369	205732.62320612438
14.095953125712155	216144.1201563148
14.236912656969274	189912.41758091163
14.379281783538968	131473.98323472228
14.523074601374358	124930.66164627242
14.6683053473881	177114.8734351215
14.814988400861985	159837.03360147477
14.963138284870602	139946.1363423091
15.11276966771931	154743.0911012135
15.263897364396504	176140.6889564243
15.41653633804047	135469.0699060346
15.570701701420873	90761.67925933599
15.726408718435081	78970.07715261672
15.883672805619431	162528.5048402034
16.042509533675627	105832.4544847473
16.202934629012383	97392.33223260802
16.36496397530251	98331.30886332454
16.528613615055534	90322.84714302134
16.69389975120609	75061.94706293332
16.86083874871815	67352.56006293102
17.02944713620533	92188.13558038759
17.199741607567383	62054.74382087429
17.37173902364306	56378.68259306998
17.54545641387949	60160.79243787442
17.720910978018285	62497.10027722489
17.898120087798468	58928.14523397234
18.077101288676452	62595.78548634282
18.257872301563214	51042.27737268628
18.44045102457885	56802.24873669005
18.62485553482464	48099.358938967314
18.811104090172883	78454.96713585567
18.999215131074614	40397.58625482644
19.189207282385357	42489.260649679294
19.381099355209216	33663.90793756922
19.574910348761303	36304.12886987843
19.77065945224892	37511.64320044155
19.968366046771408	49525.32060774174
20.16804970723912	43178.55617596079
20.369730204311512	33516.40820253397
20.573427506354626	28388.174333132654
20.779161781418175	35136.30832638323
20.98695339923236	26490.5136275798
21.19682293322468	24786.124276434584
21.408791162556927	34888.72918144683
21.622879074182496	24356.452886064813
21.839107864924323	20146.995016717818
22.057498943573567	21977.126096840526
22.278073933009303	25992.726734683933
22.500854672339393	18322.106829738692
22.72586321906279	36016.94326341589
22.953121851253417	17518.68714035663
23.18265306976595	29557.377345838402
23.41447960046361	24701.83139740817
23.648624396468247	14581.55370704108
23.88511064043293	12973.912983427794
24.12396174683726	28356.81905203433
24.365201364305634	26098.562337083575
24.608853377948687	24490.83731302699
24.854941911728176	19427.411907582173
25.103491330845458	10406.757015242967
25.354526244153913	10807.631294134693
25.608071506595454	19826.76214972979
25.864152221661406	14321.944952550373
26.122793743878024	14685.458121731308
26.384021681316803	16357.055766664096
26.64786189812997	8122.510166605071
26.91434051711127	12427.95050157204
27.18348392228238	15109.511406941285
27.455318761505207	18644.225081582674
27.72987194912026	14413.276309372863
28.007170668611465	7779.982522011422
28.28724237529758	6670.496443467321
28.57011479905055	6699.84620321321
28.855815947041062	10746.466796082654
29.144374106511474	7356.646488974444
29.435817847576587	9105.639627733968
29.730176026052348	7234.7387115468055
30.027477786312875	9709.230238155284
30.327752564176006	6066.28829122168
30.631030089817763	6838.538637854085
30.93734039071594	5986.141640811149
31.246713794623105	7849.283010911072
31.559180932569333	9059.023900556625
31.874772741895026	6399.2733609864
32.19352046931398	8258.888361609846
32.51545567400712	7757.377917011886
32.84061023074719	3890.085017836607
33.169016333054664	4376.91503424389
33.500706496385206	4825.501157199278
33.83571356134906	8150.696989656808
34.17407069696255	4993.279617469016
34.51581140393218	3593.0920549607986
34.8609695179715	4513.811523226361
35.209579213151216	3763.72812956795
35.56167500528272	2952.433542308939
35.917291755335555	2712.2433160869737
36.27646467288891	3924.1935597231286
36.639229319617804	3906.8462511105895
37.005621612813975	5598.984942979018
37.37567782894212	2961.0673234398587
37.74943460723154	3531.2002142817323
38.12692895330385	5079.971974615484
38.5081982428369	4578.524248644961
38.893280225265265	2675.6818589611235
39.28221302751791	1914.663258462354
39.6750351577931	3393.5084876865885
40.071785509371026	2002.559991943676
40.47250336446474	1985.9147289165549
40.87722839810939	2067.570875038523
41.28600068209048	3493.1934097581543
41.69886068891139	3463.782727442241
42.1158492958005	2499.289685238453
42.53700778875851	2533.109191814321
42.962377866646094	1797.4104390204463
43.392001645312554	1686.3067348147442
43.825921661765676	1369.7330828304448
44.264180878383335	1452.1674441896962
44.70682268716717	1453.6761725571876
45.15389091403884	1553.32204880405
45.60542982317923	2177.863307711013
46.06148412141103	1718.1046844747664
46.52209896262513	1281.4422331610676
46.98731995225138	1267.3554245983075
47.4571931517739	1866.0887278041373
47.93176508329164	1052.9755649317094
48.411082734124555	1658.0084042834403
48.8951935614658	1016.9753093436034
49.38414549708046	870.2178913192416
49.877986952051266	952.4618901419041
50.37676682157178	919.5146497465033
50.88053448978749	887.6670615401766
51.38933983468537	856.8755995219651
51.903233233032225	827.1140900615692
52.422265565362544	798.3454985375562
52.946488221016175	770.5382497387594
53.47595310322633	743.6698799515386
54.010712634258596	717.7009920666576
54.550819760601186	692.6069820731585
55.0963279582072	668.3603012024956
55.647291237789275	644.931190500003
56.20376415016716	622.2981100923342
56.765801791668835	600.4299165696277
57.33345980958552	579.3063009924734
57.906794407681375	558.902042844627
58.48586235175819	539.1916036259222
59.070720975275776	520.1565799883158
59.661428185028534	501.7698314113664
60.25804246687882	484.0152683335798
60.860622891547614	466.8682661143816
61.46922912046309	450.310597317781
62.083921411667724	434.3240557206156
62.7047606257844	418.8859962827248
63.331808232042235	403.98392661339443
63.965126314362664	389.59548746847497
64.60477757750628	375.70481300046237
65.25082535328136	362.2967475932473
65.90333360681416	349.35216285794473
66.56236694288232	336.85994007216357
67.22799061231113	324.8017010517534
67.90027051843424	313.16337359196825
68.57927322361859	301.93209890835715
69.26506595585477	291.0920800094397
69.95771661541333	280.633078618582
70.65729378156746	270.539712155237
71.36386671938313	260.8005298881945
72.07750538657696	251.40364583705465
72.79828044044274	242.3366560526556
73.52626324484716	233.5898912940758
74.26152587729563	225.15081244280708
75.00414113606858	217.01022198444335
75.75418254742928	209.1570647671587
76.51172437290357	201.581288437484
77.27684161663261	194.2747777310442
78.04961003279894	187.22632591862418
78.83010613312693	180.42918204600093
79.6184071944582	173.87296762546478
80.41459126640278	167.54972778355602
81.2187371790668	161.45240346215172
82.03092455085748	155.57187327960955
82.85123379636605	149.90185374702895
83.6797461343297	144.43386173931353
84.51654359567301	139.16140820415134
85.36170903162974	134.07808577607997
86.21532612194603	129.17636444568453
87.0774793831655	124.45100536382068
87.94825417699715	119.894961277876
88.82773671876713	115.50282265833991
89.71601408595481	111.26871638658166
90.61317422681435	107.18644695507622
91.5193059690825	103.25225075016206
92.43449902877332	99.45911413959138
93.35884401906105	95.80346769509636
