#wavelength	surface flux
0.7	15016.80008402699
0.7001166666666666	15057.443742401501
0.7002333527777778	15073.581566857696
0.700350058336574	15089.722080951293
0.7004667833462966	15105.86528513055
0.7005835278101878	15122.011179843881
0.7007002917314895	15138.15976553964
0.7008170751134447	15154.311042666344
0.7009338779592968	15170.465011672562
0.7010507002722901	15165.437591188247
0.7011675420556689	15134.629713606386
0.701284403312678	15103.816701378311
0.7014012840465635	15072.998553648154
0.7015181842605713	15042.175269560048
0.701635103957948	15011.34684825795
0.701752043141941	14980.513288885639
0.701869001815798	14949.674590586721
0.7019859799827672	14950.139909325662
0.7021029776460976	14972.394715817318
0.7022199948090387	14994.653231443419
0.7023370314748403	15016.915456822115
0.7024540876467528	15039.181392571703
0.702571163328027	15061.451039310545
0.7026882585219152	15083.724397657237
0.7028053732316688	15106.001468230288
0.7029225074605406	15172.52629423419
0.7030396612117841	15256.146861635169
0.7031568344886527	15339.781365797393
0.7032740272944008	15423.429809043591
0.7033912396322832	15507.092193697043
0.7035084715055552	15590.768522081184
0.7036257229174727	15674.45879652009
0.7037429938712924	15758.163019338146
0.7038602843702709	15817.629493579552
0.7039775944176659	15872.992613232062
0.7040949240167356	15928.364960071201
0.7042122731707383	15983.746535634786
0.7043296418829335	16039.137341460995
0.7044470301565806	16094.537379088168
0.70456443799494	16149.9466500549
0.7046818654012724	16205.365155900163
0.7047993123788394	16241.559794943501
0.7049167789309024	16277.73839558715
0.7050342650607243	16313.92302599763
0.7051517707715678	16350.113687179826
0.7052692960666963	16386.310380138868
0.705386840949374	16422.513105880054
0.7055044054228656	16458.721865408927
0.7056219894904361	16489.18124566942
0.7057395931553511	16483.070658823235
0.705857216420877	16476.9590535459
0.7059748592902804	16470.84642966769
0.7060925217668288	16464.732787018827
0.70621020385379	16458.618125429522
0.7063279055544321	16452.502444729962
0.7064456268720246	16446.385744750278
0.7065633678098366	16447.42752093358
0.7066811283711383	16468.18685295156
0.7067989085592001	16488.94964485821
0.7069167083772933	16509.715897230162
0.7070345278286895	16530.485610644195
0.707152366916661	16551.25878567713
0.7072702256444803	16572.03542290588
0.7073881040154211	16592.81552290753
0.7075060020327569	16624.42251301693
0.7076239196997625	16671.79743999464
0.7077418570197124	16719.180262793467
0.7078598139958823	16766.570982729427
0.7079777906315483	16813.96960111875
0.7080957869299869	16861.376119277775
0.7082138028944751	16908.79053852313
0.7083318385282908	16956.212860171727
0.7084498938347124	16958.28598202179
0.708567968817018	16921.904770240733
0.7086860634784875	16885.51749492434
0.7088041778224007	16849.12415506203
0.7089223118520377	16812.724749643123
0.7090404655706796	16776.319277656672
0.709158638981608	16739.907738091508
0.709276832088105	16703.490129936414
0.7093950448934531	16727.07377408337
0.7095132774009353	16779.279488013595
0.7096315296138355	16831.493902896163
0.7097498015354378	16883.717020181193
0.7098680931690269	16935.94884131906
0.7099864045178884	16988.18936776051
0.7101047355853081	17040.43860095636
0.7102230863745722	17092.69654235771
0.7103414568889679	17138.721423561776
0.7104598471317828	17183.33569841242
0.7105782571063047	17227.9574089755
0.7106966868158224	17272.58655649034
0.710815136263625	17317.223142196424
0.7109336054530023	17361.86716733349
0.7110520943872445	17406.518633141393
0.7111706030696424	17451.17754086029
0.7112891315034873	17463.61955241926
0.7114076796920712	17474.526121613362
0.7115262476386865	17485.434508568997
0.7116448353466263	17496.34471358912
0.711763442819184	17507.25673697675
0.711882070059654	17518.17057903495
0.7120007170713306	17529.086240066827
0.7121193838575091	17540.194903751642
0.7122380704214853	17553.299412555403
0.7123567767665555	17566.406105443948
0.7124755028960166	17579.514982781315
0.7125942488131658	17592.62604493156
0.7127130145213015	17605.739292258866
0.7128318000237216	17618.854725127356
0.7129506053237256	17631.97234390134
0.7130694304246129	17643.589970819892
0.7131882753296837	17649.95739009475
0.7133071400422386	17656.325870606153
0.7134260245655789	17662.695412530968
0.7135449289030065	17669.06601604611
0.7136638530578235	17675.437681328498
0.7137827970333332	17681.81040855511
0.7139017608328388	17688.184197902927
0.7140207444596443	17692.934589625806
0.7141397479170543	17694.78789780268
0.7142587712083737	17696.641514864245
0.7143778143369084	17698.49544086199
0.7144968773059646	17700.3496758474
0.7146159601188489	17702.204219871972
0.7147350627788687	17704.059072987216
0.7148541852893318	17705.914235244647
0.7149733276535467	17690.12983990501
0.7150924898748222	17656.555166434853
0.715211671956468	17622.974897185777
0.7153308739017941	17589.38903122513
0.715450095714111	17555.79756762018
0.71556933739673	17522.20050543795
0.7156885989529628	17488.597843745363
0.7158078803861218	17454.989581609112
0.7159271816995193	17338.87024844711
0.7160465028964692	17174.30599876817
0.7161658439802853	17009.71432171429
0.7162852049542819	16845.095212714266
0.7164045858217744	16680.44866719597
0.716523986586078	16515.774680586826
0.7166434072505089	16351.073248313332
0.716762847818384	16186.344365801064
0.7168823082930204	16100.035177756723
0.7170017886777359	16036.790422326927
0.7171212889758488	15973.5351261046
0.7172408091906781	15910.269287332885
0.7173603493255433	15846.992904254688
0.7174799093837642	15783.70597511268
0.7175994893686615	15720.408498149121
0.7177190892835562	15657.100471606098
0.7178387091317702	15872.303992513305
0.7179583489166254	16115.502228959778
0.7180780086414448	16358.740998445848
0.7181976883095517	16602.020307726823
0.7183173879242699	16845.34016355937
0.718437107488924	17088.700572701277
0.7185568470068389	17332.10154191147
0.7186766064813399	17565.012535083166
0.7187963859157535	17534.67556773577
0.7189161853134061	17504.33354422715
0.719036004677625	17473.98646371461
0.7191558440117378	17443.634325355335
0.7192757033190732	17413.27712830629
0.7193955826029597	17382.914871724442
0.7195154818667269	17352.54755476647
0.7196354011137046	17318.407444958953
0.7197553403472235	17266.914335223264
0.7198752995706147	17215.412643302643
0.7199952787872098	17163.902367766666
0.720115278000341	17112.383507184768
0.7202352972133411	17060.8560601261
0.7203553364295432	17009.320025159668
0.7204753956522815	16957.775400854
0.7205954748848902	16940.070166144254
0.7207155741307044	16996.984126737167
0.7208356933930594	17053.907572990076
0.7209558326752915	17110.840506484044
0.7210759919807375	17167.782928800338
0.7211961713127342	17224.734841520276
0.7213163706746197	17281.696246225758
0.7214365900697322	17338.66714449863
0.7215568295014103	17351.96628168105
0.721677088972994	17313.148538017886
0.7217973684878227	17274.324324730846
0.7219176680492374	17235.49364074154
0.7220379876605789	17196.656484971598
0.722158327325189	17157.812856342345
0.7222786870464099	17118.96275377501
0.7223990668275843	17080.106176190562
0.7225194666720555	17005.191700674037
0.7226398865831676	16904.71419421299
0.7227603265642646	16804.219941501105
0.722880786618692	16703.70893974689
0.7230012667497951	16603.181186159116
0.7231217669609201	16502.63667794573
0.7232422872554135	16402.0754123144
0.7233628276366229	16301.497386471956
0.7234833881078956	16323.847916746121
0.7236039686725803	16392.879765098904
0.7237245693340255	16461.923118759638
0.7238451900955812	16530.97797964611
0.7239658309605971	16600.044349675984
0.7240864919324239	16669.122230767618
0.7242071730144127	16738.21162483944
0.724327874209915	16807.312533810127
0.7244485955222832	16608.59645408197
0.7245693369548704	16365.564074367201
0.7246900985110294	16122.491189256172
0.7248108801941148	15879.37779199698
0.7249316820074803	15636.223875839058
0.7250525039544815	15393.029434028045
0.7251733460384739	15149.794459810026
0.7252942082628137	14907.132786703125
0.7254150906308574	15020.109166473509
0.7255359931459625	15133.10437564053
0.7256569158114868	15246.118417342448
0.7257778586307888	15359.15129471804
0.7258988216072273	15472.203010906494
0.7260198047441617	15585.273569047522
0.7261408080449525	15698.362972281766
0.72626183151296	15795.7690382515
0.7263828751515454	15788.841306711398
0.7265039389640706	15781.912420549374
0.726625022953898	15774.982379572984
0.7267461271243904	15768.051183589761
0.7268672514789111	15761.118832407214
0.7269883960208241	15754.185325832808
0.7271095607534942	15747.250663673969
0.7272307456802866	15742.809809497112
0.7273519508045666	15745.107714508122
0.7274731761297006	15747.406002503301
0.7275944216590555	15749.704673546477
0.7277156873959987	15752.003727701496
0.7278369733438982	15754.303165032212
0.727958279506122	15756.602985602476
0.7280796058860397	15758.903189476172
0.7282009524870207	15710.128458868645
0.7283223193124353	15585.799516300563
0.7284437063656539	15461.44985224231
0.7285651136500483	15337.079463239843
0.7286865411689898	15212.688345839464
0.7288079889258514	15088.276496585886
0.7289294569240056	14963.843912024384
0.7290509451668262	14839.390588698645
0.7291724536576875	14743.030772036409
0.7292939823999636	14669.950577040456
0.7294155313970303	14596.858202011856
0.7295371006522632	14523.753644920771
0.7296586901690385	14450.636903736895
0.7297802999507332	14377.50797642952
0.7299019300007252	14304.366860967406
0.7300235803223919	14231.213555319577
0.7301452509191123	14243.980887874099
0.7302669417942654	14296.414317530394
0.7303886529512311	14348.856486091649
0.7305103843933897	14401.307395014343
0.7306321361241218	14453.76704575515
0.7307539081468093	14506.235439771173
0.7308757004648336	14558.712578519422
0.7309975130815778	14611.198463457526
0.7311193460004248	14712.436515973532
0.7312411992247582	14824.726329510297
0.7313630727579622	14937.03485801596
0.7314849666034219	15049.362104609821
0.7316068807645224	15161.708072411378
0.7317288152446498	15274.072764540955
0.7318507700471907	15386.456184119277
0.7319727451755319	15498.858334267486
0.732094740633061	15441.663734466421
0.7322167564231665	15376.823459441206
0.7323387925492371	15311.972377703481
0.7324608490146619	15247.110487452153
0.732582925822831	15182.237786885766
0.7327050229771347	15117.354274202693
0.7328271404809642	15052.459947600773
0.7329492783377112	14984.546377114648
0.7330714365507675	14887.045455023159
0.7331936151235259	14789.528282778012
0.7333158140593796	14691.994857670934
0.7334380333617229	14594.445176992856
0.7335602730339499	14496.879238034622
0.7336825330794556	14399.297038086539
0.7338048135016354	14301.698574438655
0.7339271143038857	14240.610297978956
0.734049435489603	14301.900506040018
0.7341717770621846	14363.200929135766
0.7342941390250283	14424.511568968666
0.7344165213815324	14485.832427241516
0.734538924135096	14547.1635056575
0.7346613472891185	14608.504805919807
0.734783790847	14669.856329732178
0.7349062548121412	14673.641693638701
0.7350287391879431	14575.659076207117
0.7351512439778078	14477.660128339094
0.7352737691851374	14379.64484731321
0.735396314813335	14281.613230407069
0.7355188808658037	14183.565274898272
0.7356414673459482	14085.500978063357
0.7357640742571725	13987.420337179037
0.7358867016028818	13923.791037985342
0.7360093493864824	13894.191084574675
0.7361320176113801	13864.58619783848
0.736254706280982	13834.976376954495
0.7363774153986956	13805.361621100325
0.7365001449679286	13775.741929453572
0.7366228949920899	13746.117301191522
0.7367456654745885	13716.487735491428
0.7368684564188344	13685.57338709215
0.7369912678282374	13653.930545197056
0.7371140997062088	13622.282429494968
0.7372369520561599	13590.629039106898
0.7373598248815024	13558.970373153834
0.7374827181856494	13527.306430756393
0.7376056319720137	13495.637211035215
0.7377285662440091	13463.962713110746
0.7378515210050496	13416.904946023968
0.7379744962585505	13365.212566582297
0.738097492007927	13313.511571744068
0.7382205082565949	13261.801960073395
0.738343545007971	13210.083730134122
0.7384666022654723	13158.356880489806
0.7385896800325165	13106.621409703961
0.7387127783125219	13054.877316339587
0.7388358971089073	13035.74081962466
0.7389590364250921	13019.872621381912
0.7390821962644963	13004.001778439446
0.7392053766305403	12988.128290356513
0.7393285775266454	12972.25215669222
0.7394517989562333	12956.373377005635
0.7395750409227259	12940.491950855796
0.7396983034295463	12922.593978005747
0.739821586480118	12859.892322438418
0.7399448900778645	12797.180216595285
0.7400682142262109	12734.457658734322
0.740191558928582	12671.72464711378
0.7403149241884034	12608.981179991353
0.7404383100091014	12546.22725562439
0.7405617163941028	12483.46287227007
0.7406851433468352	12414.143668125622
0.7408085908707264	12314.874037367235
0.7409320589692048	12215.587861670436
0.7410555476456997	12116.285138277608
0.7411790569036406	12016.965864430953
0.7413025867464579	11917.630037371962
0.7414261371775823	11818.277654341766
0.7415497082004452	11718.908712581142
0.7416732998184786	11622.670211860923
0.741796912035115	11533.16661141727
0.7419205448537874	11443.648093706897
0.7420441982779297	11354.114656243573
0.742167872310976	11264.566296540592
0.7422915669563612	11175.003012110996
0.7424152822175206	11085.42480046735
0.7425390180978901	10995.83165912182
0.7426627746009065	10936.595136343994
0.7427865517300065	10914.373836040186
0.7429103494886282	10892.148832186302
0.7430341678802096	10869.920124165126
0.7431580069081896	10847.687711359284
0.7432818665760077	10825.451593151274
0.7434057468871037	10803.211768923582
0.7435296478449182	10780.968238058531
0.7436535694528923	10739.65108766127
0.7437775117144678	10685.273111185343
0.7439014746330868	10630.886071713418
0.7440254582121922	10576.489967734868
0.7441494624552276	10522.084797738964
0.7442734873656368	10467.670560214741
0.7443975329468645	10413.247253650887
0.7445215992023557	10358.814876535946
0.7446456861355559	10290.152640639259
0.7447697937499119	10216.240400798964
0.7448939220488703	10142.315842252046
0.7450180710358784	10068.378962945437
0.7451422407143843	9994.429760825602
0.7452664310878367	9920.468233838676
0.7453906421596846	9846.494379930666
0.7455148739333779	9772.508197046978
0.7456391264123667	9699.243415201401
0.7457633996001021	9626.083742259338
0.7458876935000356	9552.91187603832
0.7460120081156189	9479.727814506407
0.7461363434503048	9406.531555630869
0.7462606995075466	9333.323097378785
0.7463850762907978	9260.102437717103
0.7465094738035127	9186.88189994628
0.7466338920491467	9116.873397586174
0.746758331031155	9046.853227142274
0.7468827907529935	8976.821386670048
0.7470072712181189	8906.777874224408
0.7471317724299886	8836.722687860014
0.7472562943920602	8766.655825631275
0.7473808371077922	8696.577285592102
0.7475054005806435	8626.550722255775
0.7476299848140736	8556.904586651564
0.7477545898115426	8487.24684335807
0.7478792155765113	8417.577490440679
0.7480038621124406	8347.896525964523
0.7481285294227926	8278.203947994301
0.7482532175110298	8208.499754594346
0.7483779263806148	8138.783943828921
0.7485026560350116	8068.960365535027
0.7486274064776842	7998.864928403618
0.748752177712097	7928.757808699481
0.7488769697417158	7858.639004475243
0.749001782570006	7788.50851378372
0.7491266162004343	7718.366334677103
0.7492514706364677	7648.212465207269
0.7493763458815739	7578.046903425787
0.7495012419392209	7506.74283884315
0.7496261588128773	7433.806968690964
0.7497510965060128	7360.858942560368
0.7498760550220971	7287.898758425444
0.7500010343646007	7214.9264142598195
0.7501260345369949	7141.941908036798
0.750251055542751	7068.945237729487
0.7503760973853414	6995.936401310416
0.7505011600682389	6923.049051664677
0.750626243594917	6850.261152923146
0.7507513479688495	6777.46112286527
0.7508764731935109	6704.648959469026
0.7510016192723765	6631.824660712197
0.7511267862089218	6558.98822457231
0.7512519740066232	6486.139649026373
0.7513771826689577	6413.278932051137
0.7515024121994025	6342.345150964363
0.7516276626014359	6272.303655339838
0.751752933878536	6202.2504861328325
0.7518782260341824	6132.185641397602
0.7520035390718548	6062.109119188219
0.7521288729950334	5992.020917558502
0.7522542278071992	5921.921034561843
0.7523796035118337	5851.8094682513165
0.7525050001124189	5782.603072844659
0.7526304176124378	5713.584538749566
0.7527558560153731	5644.554501565544
0.752881315324709	5575.512959375259
0.7530067955439299	5506.45991026125
0.7531322966765205	5437.395352305815
0.7532578187259665	5368.319283590699
0.7533833616957542	5299.231702197467
0.75350892558937	5232.758650577758
0.7536345104103016	5166.398004227635
0.7537601161620366	5100.026297769823
0.7538857428480638	5033.643529360868
0.7540113904718717	4967.2496971572655
0.7541370590369503	4900.8447993149775
0.7542627485467898	4834.428833989673
0.7543884590048808	4768.348937383073
0.7545141904147151	4705.719727392255
0.7546399427797842	4643.080079199874
0.7547657161035808	4580.4299910661175
0.754891510389598	4517.769461251009
0.7550173256413296	4455.098488014239
0.7551431618622698	4392.417069615279
0.7552690190559135	4329.725204313265
0.7553948972257561	4267.4306742064255
0.7555207963752938	4206.494538503548
0.755646716508023	4145.5482467780885
0.755772657627441	4084.5917973373203
0.7558986197370455	4023.6251884883022
0.756024602840335	3962.648418537826
0.7561506069408084	3901.661485792358
0.7562766320419653	3840.664388558044
0.7564026781473054	3780.0193871382676
0.75652874526033	3720.0017626848226
0.7566548333845401	3659.9741352939377
0.7567809425234375	3599.936503298509
0.7569070726805247	3539.888865031115
0.7570332238593047	3479.8312188240184
0.7571593960632813	3419.7635630091627
0.7572855892959586	3359.685895918335
0.7574118035608413	3302.6952872221846
0.7575380388614347	3248.7251460565576
0.7576642952012449	3194.7460098673832
0.7577905725837782	3140.757877155588
0.7579168710125422	3086.760746421578
0.7580431904910444	3032.754616165759
0.7581695310227928	2978.7394848882986
0.7582958926112967	2924.715351088891
0.7584222752600652	2871.879495503483
0.7585486789726085	2819.7226268936065
0.7586751037524372	2767.557065472275
0.7588015496030628	2715.382809790605
0.7589280165279966	2663.199858399758
0.7590545045307512	2611.0082098503453
0.7591810136148396	2558.8078626928427
0.7593075437837755	2506.5988154774036
0.7594340950410726	2456.5095129670854
0.7595606673902461	2407.029402327082
0.7596872608348112	2357.5410450019226
0.7598138753782836	2308.044439617264
0.75994051102418	2258.5395847983277
0.7600671677760173	2209.026479170294
0.7601938456373134	2159.505121357951
0.7603205446115863	2109.9755099860004
0.7604472647023548	2061.7270464536105
0.7605740059131385	2013.5987079923984
0.7607007682474575	1965.462348141396
0.7608275517088319	1917.3179655638587
0.7609543563007835	1869.1655589224515
0.7610811820268336	1821.0051268799666
0.7612080288905045	1772.8366680989002
0.7613348968953197	1724.6469018687753
0.7614617860448022	1676.1766406094437
0.7615886963424764	1627.6983009731694
0.7617156277918667	1579.2118816136692
0.7618425803964988	1530.7173811842358
0.7619695541598982	1482.2147983380773
0.7620965490855914	1433.7041317281469
0.7622235651771058	1385.1853800070585
0.7623506024379685	1337.3893852921628
0.7624776608717082	1292.7887912620617
0.7626047404818536	1248.1807637996205
0.7627318412719337	1203.5653016660121
0.762858963245479	1158.9424036220203
0.7629861064060198	1114.3120684283501
0.7631132707570876	1069.6742948454348
0.7632404563022137	1025.0290816336292
0.7633676630449308	981.0494852965193
0.7634948909887717	938.495275494489
0.7636221401372697	895.9339733242136
0.7637494104939593	853.3655776035365
0.7638767020623748	810.7900871503007
0.7640040148460518	768.2075007819409
0.7641313488485262	725.6178173158546
0.7642587040733344	683.0210355691422
0.7643860805240132	641.1263293088268
0.7645134782041005	600.070898902634
0.7646408971171346	559.0086259246896
0.764768337266654	517.9395092345973
0.7648957986561985	476.86354769171
0.7650232812893079	435.7807401552376
