#wavelength	surface flux
0.8	48552655.95184911
0.8002000000000001	48743375.72122862
0.8004000500000003	48688844.974603735
0.8006001500125003	48631822.841992795
0.8008003000500035	48574786.4538487
0.8010005001250161	48517735.80660754
0.8012007502500472	48460670.896704644
0.8014010504376099	48550837.7541144
0.8016014007002193	48690350.07594309
0.8018018010503944	48829897.27585224
0.8020022515006572	48969479.36256143
0.8022027520635323	49109096.34479218
0.8024033027515483	49229583.41280501
0.8026039035772362	49331319.82739983
0.8028045545531306	49433081.676098295
0.8030052556917691	49534868.965258986
0.803206007005692	49636681.70124187
0.8034068085074435	49728323.54590037
0.8036076602095705	49791406.45171664
0.8038085621246229	49854505.128259316
0.8040095142651542	49917619.57947117
0.8042105166437206	49980749.8092958
0.8044115692728815	50041207.901027165
0.8046126721651998	49986068.90431591
0.8048138253332411	49930916.122855514
0.8050150287895745	49875749.55319971
0.805216282546772	49820569.191901505
0.8054175866174087	49765375.035513
0.8056189410140631	49726270.768076636
0.8058203457493168	49691715.11259424
0.8060218008357541	49657150.81819802
0.8062233062859632	49622577.882728174
0.8064248621125346	49587996.304024495
0.806626468328063	49583652.549407385
0.8068281249451449	49605285.76709366
0.8070298319763813	49626924.39308438
0.8072315894343755	49648568.42873158
0.8074333973317341	49670217.875387706
0.8076352556810671	49711131.942106344
0.8078371644949874	49798416.36620963
0.8080391237861113	49885722.61141896
0.8082411335670578	49973050.68318955
0.8084431938504498	50060400.58697817
0.8086453046489125	50147148.52356987
0.8088474659750746	50222304.02173788
0.8090496778415686	50297478.308780536
0.809251940261029	50372671.3893949
0.8094542532460944	50447883.268279485
0.8096566168094059	50523113.950133696
0.8098590309636085	50524504.11503032
0.8100614957213493	50508607.249456674
0.8102640110952797	50492706.409666635
0.8104665770980536	50476801.594666645
0.8106691937423283	50460892.8034629
0.8108718610407639	50462210.62722545
0.8110745790060241	50476704.10990103
0.8112773476507757	50491201.21594729
0.8114801669876885	50505701.94627006
0.8116830370294355	50520206.3017754
0.8118859577886929	50568926.95284632
0.8120889292781401	50688720.99462942
0.8122919515104597	50808544.98492297
0.8124950244983374	50928398.93121409
0.8126981482544621	51048282.840991765
0.8129013227915257	51169385.447519585
0.8131045481222237	51304129.42153447
0.8133078242592543	51438907.08154288
0.8135111512153191	51573718.43596625
0.813714529003123	51708563.49322825
0.8139179576353739	51843442.26175459
0.8141214371247829	51908332.24105351
0.8143249674840641	51959659.90060168
0.814528548725935	52011000.392064705
0.8147321808631167	52062353.71865066
0.8149358639083326	52113719.88356826
0.8151395978743097	52091560.98258362
0.8153433827737784	52019711.246220455
0.8155472186194719	51947843.54742323
0.8157511054241268	51875957.88170131
0.815955043200483	51804054.24456292
0.8161590319612831	51720039.62039185
0.8163630717192736	51613845.023758404
0.8165671624872033	51507623.878475904
0.8167713042778252	51401376.17790698
0.8169754971038948	51295101.915412866
0.8171797409781707	51130795.23790784
0.8173840359134155	50503368.84660767
0.8175883819223938	49875785.598710395
0.8177927790178745	49248045.45500079
0.8179972272126291	48620148.37625509
0.8182017265194322	47992094.32324033
0.8184062769510622	47842785.46239214
0.8186108785203001	47767135.235674426
0.8188155312399301	47691466.096400134
0.8190202351227402	47615778.039840944
0.819224990181521	47540071.06126766
0.8194297964290664	48017070.98293326
0.8196346538781738	48827344.66636479
0.8198395625416434	49637820.91821685
0.8200445224322789	50448499.789132215
0.820249533562887	51259381.329765074
0.8204545959462778	51850190.84524645
0.8206597095952644	52086621.806802124
0.8208648745226633	52323111.87609838
0.8210700907412941	52559661.06791192
0.8212753582639793	52796269.39702317
0.8214806771035456	53018014.423794925
0.8216860472728215	53147874.386881076
0.8218914687846397	53277766.814958006
0.822096941651836	53407691.71614203
0.822302465887249	53537649.098551266
0.8225080415037209	53667638.97030617
0.8227136685140968	53847924.235391855
0.8229193469312254	54033960.46096378
0.8231250767679583	54220043.195592165
0.8233308580371503	54406172.4509041
0.8235366907516598	54592348.23853001
0.8237425749243477	54737745.700475976
0.8239485105680789	54861541.61320828
0.824154497695721	54985368.474918686
0.824360536320145	55109226.293344535
0.8245666264542252	55233115.07622499
0.8247727681108388	55325071.783690974
0.8249789613028664	55371274.38030265
0.8251852060431922	55417488.52756352
0.825391502344703	55463714.22836118
0.8255978502202894	55509951.48558409
0.8258042496828445	55561640.95594527
0.8260107007452654	55639766.267122656
0.8262172034204517	55717911.10962775
0.8264237577213068	55796075.48834349
0.8266303636607373	55874259.40815395
0.8268370212516525	55952462.87394432
0.8270437305069654	55986407.0385377
0.8272504914395923	56016899.58465824
0.8274573040624523	56047399.75391532
0.8276641683884679	56077907.54821468
0.8278710844305652	56108422.96946266
0.8280780522016729	56206483.433467366
0.8282850717147234	56335439.63941425
0.8284921429826521	56464428.084412485
0.8286992660183978	56593448.77652208
0.8289064408349024	56722501.7238046
0.8291136674451112	56864168.497480184
0.8293209458619727	57021735.40853531
0.8295282760984382	57179341.711317986
0.829735658167463	57336987.41567654
0.8299430920820048	57494672.531460986
0.8301505778550254	57630665.18524034
0.8303581154994891	57679953.52707869
0.8305657050283641	57729254.19100255
0.8307733464546212	57778567.18009235
0.8309810397912352	57827892.497429505
0.8311887850511829	57877230.1460959
0.8313965822474458	58036362.415531136
0.8316044313930077	58200630.04466418
0.8318123325008561	58364938.74070466
0.8320202855839813	58529288.51391907
0.8322282906553774	58693679.37457681
0.8324363477280413	58848457.497504376
0.8326444568149735	58999387.71486986
0.8328526179291771	59150355.664789505
0.8330608310836596	59301361.35669686
0.8332690962914304	59452404.80002699
0.8334774135655034	59536098.98696368
0.833685782918895	59544540.58623365
0.8338942043646247	59552984.29590344
0.834102677915716	59561430.116500646
0.834311203585195	59569878.04855299
0.8345197813860912	59627410.21928445
0.8347284113314379	59850171.80148393
0.8349370934342709	60072989.07407882
0.8351458277076294	60295862.0509916
0.8353546141645565	60518790.74614898
0.8355634528180977	60741775.17348005
0.8357723436813022	60555826.30509821
0.8359812867672226	60364780.97694186
0.8361902820889144	60173687.887453556
0.8363993296594368	59982547.02469283
0.8366084294918518	59791358.376716346
0.8368175815992247	59679047.82130201
0.8370267859946247	59593892.07532951
0.8372360426911234	59508715.040420555
0.8374453517017962	59423516.711252876
0.8376547130397217	59338297.08250292
0.8378641267179816	59383117.64372488
0.8380735927496613	59557004.22260474
0.8382831111478488	59730934.27312922
0.8384926819256358	59904907.80616623
0.8387023050961173	60078924.83258666
0.8389119806723914	60199225.71449749
0.8391217086675596	60168259.45348383
0.8393314890947265	60137285.450904936
0.8395413219670003	60106303.704825394
0.8397512072974922	60075314.21330931
0.8399611450993165	60045205.97261412
0.8401711353855914	60059237.53744935
0.8403811781694378	60073272.61017579
0.8405912734639802	60087311.1916704
0.8408014212823464	60101353.282810405
0.8410116216376671	60115398.88447319
0.8412218745430766	60122979.48662315
0.8414321800117124	60128679.89685913
0.8416425380567154	60134381.732197665
0.8418529486912297	60140084.99299504
0.8420634119284025	60145789.6796076
0.8422739277813847	60364712.88879963
0.8424844962633302	60771543.364348255
0.842695117387396	61178475.54751526
0.8429057911667428	61585509.46372806
0.8431165176145345	61992645.13842012
0.8433272967439382	62255922.91136027
0.8435381285681244	62168108.91035057
0.8437490131002665	62080272.95584064
0.8439599503535415	61992415.042342134
0.84417094034113	61904535.16436519
0.8443819830762154	61807278.03855832
0.8445930785719846	61521533.72621325
0.8448042268416277	61235717.977790244
0.8450154278983382	60949830.77543017
0.8452266817553128	60663872.101269536
0.8454379884257517	60377841.93744032
0.8456493479228583	60470280.84112562
0.845860760259839	60653899.974480174
0.846072225449904	60837565.012618065
0.8462837435062666	61021275.96701553
0.8464953144421433	61205032.849151686
0.8467069382707537	61355090.56565287
0.8469186150053215	61478882.523720995
0.847130344659073	61602705.42977867
0.8473421272452377	61726559.29156275
0.8475539627770492	61850444.11681239
0.8477658512677435	61941386.46467466
0.8479777927305605	61962336.772048056
0.8481897871787432	61983292.31699829
0.848401834625538	62004253.100834765
0.8486139350841944	62025219.12486719
0.8488260885679657	62041149.131860286
0.8490382950901076	61995631.96934212
0.8492505546638802	61950103.4275333
0.8494628673025462	61904563.50358905
0.8496752330193721	61859012.19466374
0.8498876518276269	61813449.49791127
0.8501001237405839	61884494.683622964
0.8503126487715191	61978836.885714985
0.850525226933712	62073202.67335748
0.8507378582404455	62167592.05244688
0.8509505427050057	62262005.02888111
0.8511632803406821	62494622.16159256
0.8513760711607672	62821925.82423679
0.8515889151785576	63149311.31279719
0.8518018124073523	63476778.64772945
0.8520147628604541	63804327.849495254
0.8522277665511693	64120040.701738514
0.8524408234928071	64413791.14383103
0.8526539336986805	64707615.02353414
0.8528670971821053	65001512.3592072
0.8530803139564007	65295483.16921383
0.8532935840348901	65563232.96422787
0.8535069074308987	65608979.14268258
0.8537202841577566	65654736.75768194
0.8539337142287962	65700505.81208506
0.8541471976573534	65746286.308751754
0.8543607344567677	65792078.25054262
0.8545743246403821	65780103.847153604
0.8547879682215422	65758950.676241904
0.8550016652135977	65737792.21703749
0.8552154156299011	65716628.46821827
0.8554292194838088	65695459.42846183
0.8556430767886797	65604454.02619335
0.855856987557877	65471026.29106485
0.8560709518047664	65337565.19900265
0.8562849695427177	65204070.74166739
0.8564990407851035	65070542.91071775
0.8567131655452999	64993074.86608964
0.8569273438366862	65007497.982665226
0.8571415756726455	65021924.70501996
0.8573558610665638	65036355.034055285
0.8575702000318304	65050788.97067285
0.8577845925818384	65158140.09339523
0.857999038729984	65845890.489369296
0.8582135384896665	66533812.82294219
0.858428091874289	67221907.13709852
0.8586426988972576	67910173.4748332
0.8588573595719821	68598611.87915257
0.8590720739118751	68396861.6862895
0.8592868419303532	68090084.86815992
0.8595016636408359	67783231.3558258
0.8597165390567462	67476301.13011369
0.8599314681915105	67169294.17184508
0.8601464510585584	66871582.86602417
0.860361487671323	66578771.93909378
0.8605765780432408	66285887.809431754
0.8607917221877518	65992930.45873706
0.8610069201182988	65699899.86870478
0.8612221718483286	64924061.59174035
0.8614374773912907	63452102.3468916
0.8616528367606385	61979775.112232044
0.8618682499698288	60507079.79576289
0.8620837170323213	59034016.305464864
0.8622992379615795	57779190.41770068
0.8625148127710699	57605847.514238216
0.8627304414742627	57432461.27504987
0.8629461240846313	57259031.68930171
0.8631618606156526	57085558.74615709
0.8633776510808066	56912042.43477671
0.8635934954935769	58328283.01208967
0.8638093938674504	59875196.4528659
0.8640253462159173	61422496.62200227
0.8642413525524714	62970183.61618088
0.8644574128906095	64518257.53210772
0.8646735272438323	64479696.35999101
0.8648896956256433	63703116.293753326
0.8651059180495498	62926342.082499035
0.8653221945290621	62149373.67769268
0.8655385250776946	61372211.03078403
0.8657549097089641	61129192.16521169
0.8659713484363913	61570182.73814454
0.8661878412735006	62011283.55872083
0.866404388233819	62452494.65450219
0.8666209893308775	62893816.053057306
0.8668376445782103	63248264.34389561
0.8670543539893549	63247777.67974399
0.8672711175778525	63247290.89392633
0.8674879353572469	63246803.98641221
0.8677048073410862	63246316.95717122
0.8679217335429217	63245829.806172915
0.8681387139763074	63087428.35222889
0.8683557486548015	62921142.523723274
0.8685728375919655	62754815.12376033
0.8687899808013633	62588446.141947754
0.8690071782965637	62422035.56788951
0.869224430091138	62207904.45374549
0.8694417361986609	61974319.30745083
0.8696590966327107	61740675.764869645
0.869876511406869	61506973.811402805
0.8700939805347206	61273213.4324477
0.8703115040298544	61094182.67726678
0.870529081905862	60977745.77099579
0.8707467141763385	60861279.755498275
0.8709644008548827	60744784.6234969
0.8711821419550964	60628260.36771258
0.8713999374905854	60605809.81165916
0.871617787474958	60908135.16205954
0.8718356919218269	61210536.09379779
0.8720536508448075	61513012.625769
0.8722716642575187	61815564.776873015
0.8724897321735832	62118192.566014946
0.8727078546066265	62301928.693021044
0.8729260315702784	62483900.87087687
0.873144263078171	62665918.54177697
0.8733625491439405	62847981.71709481
0.8735808897812266	63030090.40820655
0.8737992850036719	63014029.46412455
0.874017734824923	62927759.95350291
0.8742362392586293	62841468.875503644
0.874454798318444	62755156.22473488
0.8746734120180236	62668821.99580343
0.8748920803710283	62627060.44464968
0.875110803391121	62630101.43650855
0.8753295810919689	62633143.1886154
0.875548413487242	62636185.70116027
0.8757673005906139	62639228.97433327
0.8759862424157616	62757589.54723476
0.8762052389763657	63209653.55771652
0.8764242902861098	63661830.58420058
0.8766433963586814	64114120.6549414
0.8768625572077712	64566523.79820003
0.8770817728470732	65016981.01654319
0.8773010432902849	65306787.31784289
0.8775203685511077	65596666.07071833
0.8777397486432454	65886617.29328164
0.8779591835804065	66176641.00365093
0.8781786733763015	66466737.219947435
0.8783982180446457	66040531.57581563
0.878617817599157	65401111.39095231
0.8788374720535569	64761531.351043075
0.8790571814215703	64121791.41612402
0.8792769457169257	63481891.54622123
0.879496764953355	63095437.234492615
0.8797166391445934	62936894.34059149
0.8799365683043796	62778311.81096687
0.8801565524464557	62619689.63570985
0.8803765915845676	62461027.80490887
0.8805966857324639	62525675.19294833
0.880816834903897	63151324.18293828
0.881037039112623	63777129.58517598
0.8812572983724012	64403091.438764185
0.8814776126969944	65029209.78281605
0.8816979821001687	65627172.70455956
0.8819184065956938	65558817.004005924
0.8821388861973429	65490444.214527085
0.8823594209188923	65422054.331850946
0.882580010774122	65353647.351704165
0.8828006557768155	65285223.26981231
0.8830213559407598	65651486.58638722
0.8832421112797452	66127174.0642322
0.8834629218075651	66602980.46394635
0.8836837875380171	67078905.815260574
0.8839047084849018	67554950.14791271
0.884125684662023	67397460.37290183
0.8843467160831886	66732139.17758842
0.8845678027622095	66066651.65197617
0.8847889447129001	65400997.754482396
0.8850101419490785	64735177.44351438
0.8852313944845657	64599361.10438151
0.885452702333187	65623988.84991867
0.8856740655087704	66648872.75239206
0.8858954840251476	67674012.8758408
0.8861169578961539	68699409.2843199
0.886338487135628	69598007.30993575
0.886560071757412	68806060.97761343
0.8867817117753515	68013916.65870808
0.8870034072032955	67221574.30372262
0.8872251580550963	66429033.86314936
0.8874469643446101	65636295.28746546
0.8876688260856963	65706031.55211303
0.8878907432922178	65954326.48914577
0.8881127159780409	66202683.49991261
0.8883347441570356	66451102.599932455
0.8885568278430749	66699583.80472703
0.8887789670500358	66737496.21415482
0.8890011617917983	66626002.081367865
0.8892234120822464	66514480.07504767
0.8894457179352669	66402930.18822598
0.8896680793647509	66291352.413932495
0.8898904963845921	66275566.06347409
0.8901129690086883	66442601.547945455
0.8903354972509405	66609678.7912879
0.8905580811252535	66776797.80394131
0.8907807206455347	66943958.59634765
0.8910034158256963	67091327.44554202
0.8912261666796527	67061479.7781067
0.8914489732213227	67031624.6487545
0.8916718354646282	67001762.05561994
0.8918947534234944	66971891.996837124
0.8921177271118502	66942014.47053963
0.8923407565436284	67133832.4776317
0.8925638417327644	67361864.22736587
0.8927869826931977	67589952.98503754
0.8930101794388711	67818098.76489861
0.8932334319837308	68046301.58120462
0.8934567403417267	68330165.39004372
0.8936801045268123	68648651.46926187
0.8939035245529441	68967217.16999961
0.8941270004340824	69285862.51216267
0.894350532184191	69604587.51566118
0.8945741198172371	69824817.93932588
0.8947977633471915	69881629.76689231
0.8950214627880284	69938455.79741563
0.8952452181537254	69995296.03444654
0.8954690294582639	70052150.48153675
0.8956928967156286	70090781.26607808
0.8959168199398075	70011064.38888165
0.8961407991447926	69931327.58246592
0.8963648343445789	69851570.84184857
0.896588925553165	69771794.16204612
0.8968130727845534	69691997.5380737
0.8970372760527496	70042813.89582841
0.8972615353717629	70447598.8094776
0.8974858507556059	70852484.91935523
0.8977102222182949	71257472.25076023
0.8979346497738496	71662560.82899831
0.8981591334362931	71921594.96046577
0.8983836732196523	72100764.72443104
0.8986082691379572	72279979.28083718
0.8988329212052417	72459238.64088242
0.8990576294355432	72638542.81576782
0.8992823938429022	72532648.75874718
0.8995072144413631	72002608.0498808
0.8997320912449734	71472434.83083738
0.8999570242677847	70942129.06848934
0.9001820135238516	70411690.72970068
0.9004070590272328	69984868.35247754
0.9006321607919896	70101824.6748266
0.9008573188321878	70218810.23625639
0.9010825331618959	70335825.04407647
0.9013078037951865	70452869.10559854
0.9015331307461353	70569942.42813592
0.9017585140288219	70773947.7586523
0.9019839536573292	70985489.24871889
0.9022094496457435	71197083.62415783
0.9024350020081551	71408730.89819089
0.9026606107586572	71620431.08404237
0.902886275911347	71861862.2705175
0.9031119974803249	72117660.71300268
0.9033377754796951	72373523.10509847
0.903563609923565	72629449.46279217
0.903789500826046	72885439.80207548
0.9040154482012526	73054881.9685885
0.904241452063303	73112167.99146417
0.9044675124263188	73169468.33584553
0.9046936293044254	73226783.00531298
0.9049198027117517	73284112.00344782
0.9051460326624297	73310927.48251203
0.9053723191705955	73207754.97264867
0.9055986622503881	73104556.66965793
0.9058250619159507	73001332.56709145
0.9060515181814298	72898082.65849926
0.9062780310609752	72794806.93742998
0.9065046005687405	72913941.05882378
0.906731226718883	73045513.9916622
0.9069579095255627	73177119.81773366
0.907184649002944	73308758.54526164
0.907411445165195	73440430.18247163
0.9076382980264862	73211852.35604486
0.907865207600993	72833592.77937968
0.9080921739028933	72455238.63782044
0.9083191969463691	72076789.90772586
0.9085462767456058	71698246.56544858
0.9087734133147922	71874691.25037013
0.9090006066681211	72692307.40264808
0.909227856819788	73510127.958963
0.9094551637839932	74328152.97041814
0.9096825275749393	75146382.48812589
0.9099099482068329	75709129.69823782
0.9101374256938848	75363302.04352023
0.9103649600503083	75017387.93188912
0.9105925512903209	74671387.34173018
0.9108201994281437	74325300.25142333
0.9110479044780008	73979126.63934429
0.9112756664541204	74110609.44057076
0.911503485370734	74253060.56455266
0.9117313612420768	74395547.30131556
0.9119592940823873	74538069.6597626
0.912187283905908	74680627.64879932
0.9124153307268845	74684332.68468006
0.9126434345595664	74637630.20594285
0.9128715954182063	74590916.051586
0.9130998133170609	74544190.21869054
0.9133280882703902	74497452.70433687
0.913556420292458	74514837.05049112
0.9137848093975312	74598367.61453067
0.9140132555998806	74681919.06121121
0.9142417589137806	74765491.39575344
0.9144703193535092	74849084.62337935
0.9146989369333476	74931406.3248364
0.9149276116675811	75009850.61419366
0.9151563435704979	75088314.5146232
0.9153851326563907	75166798.0310279
