#wavelength	surface flux
0.7	797520.3421035635
0.7001166666666666	798727.6470277385
0.7002333527777778	799789.6657394852
0.700350058336574	800851.8614543501
0.7004667833462966	801914.2342018327
0.7005835278101878	802976.7840114428
0.7007002917314895	804039.5109126861
0.7008170751134447	805102.4149350795
0.7009338779592968	806165.4961081429
0.7010507002722901	807086.6007073305
0.7011675420556689	807834.8671560395
0.701284403312678	808583.2583158221
0.7014012840465635	809331.7742074657
0.7015181842605713	810080.4148517578
0.701635103957948	810829.18026949
0.701752043141941	811578.0704814584
0.701869001815798	812327.0855084633
0.7019859799827672	813179.8109392611
0.7021029776460976	814104.7682135932
0.7022199948090387	815029.8796474722
0.7023370314748403	815955.1452665897
0.7024540876467528	816880.5650966435
0.702571163328027	817806.1391633343
0.7026882585219152	818731.8674923719
0.7028053732316688	819657.7501094631
0.7029225074605406	821040.4128742433
0.7030396612117841	822599.6302586916
0.7031568344886527	824159.1075127042
0.7032740272944008	825718.8446795915
0.7033912396322832	827278.8418026741
0.7035084715055552	828839.0989252756
0.7036257229174727	830399.6160907316
0.7037429938712924	831960.3933423832
0.7038602843702709	833411.8787134935
0.7039775944176659	834845.025176238
0.7040949240167356	836278.4104967269
0.7042122731707383	837712.0347147684
0.7043296418829335	839145.8978701804
0.7044470301565806	840580.0000027849
0.70456443799494	842014.3411524101
0.7046818654012724	843448.9213588947
0.7047993123788394	844661.0539488216
0.7049167789309024	845873.1330179587
0.7050342650607243	847085.4141002758
0.7051517707715678	848297.8972294395
0.7052692960666963	849510.582439124
0.705386840949374	850723.4697630097
0.7055044054228656	851936.5592347846
0.7056219894904361	853104.7464591721
0.7057395931553511	853986.4945369402
0.705857216420877	854868.389572722
0.7059748592902804	855750.4315910093
0.7060925217668288	856632.6206163005
0.70621020385379	857514.9566730957
0.7063279055544321	858397.4397858992
0.7064456268720246	859280.0699792231
0.7065633678098366	860211.2401463862
0.7066811283711383	861275.8403566765
0.7067989085592001	862340.6180003352
0.7069167083772933	863405.5731069339
0.7070345278286895	864470.7057060509
0.707152366916661	865536.015827268
0.7072702256444803	866601.5035001708
0.7073881040154211	867667.1687543539
0.7075060020327569	868840.9257106676
0.7076239196997625	870172.0386955657
0.7077418570197124	871503.3735326265
0.7078598139958823	872834.9302588267
0.7079777906315483	874166.7089111493
0.7080957869299869	875498.7095265796
0.7082138028944751	876830.9321421117
0.7083318385282908	878163.3767947474
0.7084498938347124	879123.7160295586
0.708567968817018	879768.5484654241
0.7086860634784875	880413.4883733629
0.7088041778224007	881058.5357712869
0.7089223118520377	881703.6906771098
0.7090404655706796	882348.9531087499
0.709158638981608	882994.3230841294
0.709276832088105	883639.8006211715
0.7093950448934531	884810.423468715
0.7095132774009353	886231.6375780553
0.7096315296138355	887653.0885564142
0.7097498015354378	889074.7764432691
0.7098680931690269	890496.7012781039
0.7099864045178884	891918.8631004129
0.7101047355853081	893341.2619496919
0.7102230863745722	894763.897865445
0.7103414568889679	896112.9106287655
0.7104598471317828	897445.3654366874
0.7105782571063047	898778.0423204094
0.7106966868158224	900110.9413169456
0.710815136263625	901444.0624633142
0.7109336054530023	902777.4057965413
0.7110520943872445	904110.9713536567
0.7111706030696424	905444.7591716992
0.7112891315034873	906509.8612075923
0.7114076796920712	907562.3103815442
0.7115262476386865	908614.9349636917
0.7116448353466263	909667.7349832689
0.711763442819184	910720.7104695166
0.711882070059654	911773.8614516796
0.7120007170713306	912827.1879590056
0.7121193838575091	913884.8947607054
0.7122380704214853	914986.6322083232
0.7123567767665555	916088.553278848
0.7124755028960166	917190.6580028848
0.7125942488131658	918292.9464110415
0.7127130145213015	919395.418533936
0.7128318000237216	920498.074402181
0.7129506053237256	921600.9140464055
0.7130694304246129	922691.1520649227
0.7131882753296837	923736.8694143362
0.7133071400422386	924782.7610499748
0.7134260245655789	925828.8270008853
0.7135449289030065	926875.0672961213
0.7136638530578235	927921.4819647393
0.7137827970333332	928968.0710358034
0.7139017608328388	930014.8345383793
0.7140207444596443	931056.2708262232
0.7141397479170543	932088.0662440539
0.7142587712083737	933120.033627786
0.7143778143369084	934152.1730060829
0.7144968773059646	935184.4844076098
0.7146159601188489	936216.9678610365
0.7147350627788687	937249.623395039
0.7148541852893318	938282.4510382967
0.7149733276535467	939085.6716107283
0.7150924898748222	939657.3218349953
0.715211671956468	940229.0673342999
0.7153308739017941	940800.9081245215
0.715450095714111	941372.8442215412
0.71556933739673	941944.8756412438
0.7156885989529628	942517.0023995162
0.7158078803861218	943089.2245122492
0.7159271816995193	942893.6404690521
0.7160465028964692	942247.3135407815
0.7161658439802853	941600.878891356
0.7162852049542819	940954.3365028226
0.7164045858217744	940307.6863572239
0.716523986586078	939660.9284366013
0.7166434072505089	939014.0627229923
0.716762847818384	938367.0891984307
0.7168823082930204	938702.0897486999
0.7170017886777359	939326.0704491335
0.7171212889758488	939950.1551463502
0.7172408091906781	940574.3438576831
0.7173603493255433	941198.6366004682
0.7174799093837642	941823.0333920434
0.7175994893686615	942447.5342497508
0.7177190892835562	943072.1391909341
0.7178387091317702	946134.2825086408
0.7179583489166254	949441.6128372939
0.7180780086414448	952749.4943876711
0.7181976883095517	956057.9272516399
0.7183173879242699	959366.9115210864
0.718437107488924	962676.4472879118
0.7185568470068389	965986.534644033
0.7186766064813399	969200.6756131953
0.7187963859157535	970002.6879042069
0.7189161853134061	970804.8338639337
0.719036004677625	971607.1135146539
0.7191558440117378	972409.5268786487
0.7192757033190732	973212.0739782053
0.7193955826029597	974014.7548356109
0.7195154818667269	974817.56947316
0.7196354011137046	975533.4124212533
0.7197553403472235	975848.325421646
0.7198752995706147	976163.2909075386
0.7199952787872098	976478.3088876791
0.720115278000341	976793.3793708163
0.7202352972133411	977108.5023657008
0.7203553364295432	977423.6778810838
0.7204753956522815	977738.9059257199
0.7205954748848902	978466.8642539479
0.7207155741307044	980104.7441010919
0.7208356933930594	981742.8969282075
0.7209558326752915	983381.3227807948
0.7210759919807375	985020.0217043597
0.7211961713127342	986658.9937444096
0.7213163706746197	988298.238946469
0.7214365900697322	989937.7573560603
0.7215568295014103	990899.8184137697
0.721677088972994	991053.3930307786
0.7217973684878227	991206.9932435568
0.7219176680492374	991360.6190563706
0.7220379876605789	991514.2704734864
0.722158327325189	991667.9474991718
0.7222786870464099	991821.6501376949
0.7223990668275843	991975.3783933243
0.7225194666720555	992692.6306198777
0.7226398865831676	993809.3677759148
0.7227603265642646	994926.2910548087
0.722880786618692	996043.4004875846
0.7230012667497951	997160.6961052653
0.7231217669609201	998278.1779388825
0.7232422872554135	999395.8460194708
0.7233628276366229	1000513.7003780747
0.7234833881078956	1002062.5956050955
0.7236039686725803	1003775.3278300615
0.7237245693340255	1005488.3455103956
0.7238451900955812	1007201.6486936796
0.7239658309605971	1008915.237427492
0.7240864919324239	1010629.1117594292
0.7242071730144127	1012343.2717370883
0.724327874209915	1014057.7174080736
0.7244485955222832	1013045.0096413352
0.7245693369548704	1011581.1740645276
0.7246900985110294	1010117.0945151261
0.7248108801941148	1008652.7709524625
0.7249316820074803	1007188.2033358766
0.7250525039544815	1005723.3916246856
0.7251733460384739	1004258.3357782091
0.7252942082628137	1002799.2718014583
0.7254150906308574	1004953.3270392071
0.7255359931459625	1007107.7412861623
0.7256569158114868	1009262.5146021594
0.7257778586307888	1011417.6470470434
0.7258988216072273	1013573.1386806677
0.7260198047441617	1015728.9895628953
0.7261408080449525	1017885.1997536069
0.72626183151296	1019913.3262211488
0.7263828751515454	1021088.2126715808
0.7265039389640706	1022263.294936421
0.726625022953898	1023438.573048306
0.7267461271243904	1024614.0470398769
0.7268672514789111	1025789.7169437789
0.7269883960208241	1026965.582792664
0.7271095607534942	1028141.6446191913
0.7272307456802866	1029223.3669964058
0.7273519508045666	1030049.9065659355
0.7274731761297006	1030876.5838920597
0.7275944216590555	1031703.3989977384
0.7277156873959987	1032530.3519059349
0.7278369733438982	1033357.4426396174
0.727958279506122	1034184.6712217533
0.7280796058860397	1035012.0376753206
0.7282009524870207	1035328.8615035425
0.7283223193124353	1034890.3847777039
0.7284437063656539	1034451.834972412
0.7285651136500483	1034013.212075485
0.7286865411689898	1033574.5160747429
0.7288079889258514	1033135.7469579995
0.7289294569240056	1032696.9047130711
0.7290509451668262	1032257.989327768
0.7291724536576875	1032162.266412293
0.7292939823999636	1032350.9600629151
0.7294155313970303	1032539.6851624794
0.7295371006522632	1032728.441716227
0.7296586901690385	1032917.2297294
0.7297802999507332	1033106.0492072419
0.7299019300007252	1033294.9001549971
0.7300235803223919	1033483.7825779098
0.7301452509191123	1034463.2995469156
0.7302669417942654	1035807.897990387
0.7303886529512311	1037152.7205335996
0.7305103843933897	1038497.7672139029
0.7306321361241218	1039843.038068652
0.7307539081468093	1041188.5331352125
0.7308757004648336	1042534.252450948
0.7309975130815778	1043880.1960532377
0.7311193460004248	1045791.7260632018
0.7312411992247582	1047831.5654198261
0.7313630727579622	1049871.744749676
0.7314849666034219	1051912.2641094162
0.7316068807645224	1053953.1235557152
0.7317288152446498	1055994.3231452561
0.7318507700471907	1058035.8629347298
0.7319727451755319	1060077.7429808343
0.732094740633061	1060230.3716562863
0.7322167564231665	1060297.9557538035
0.7323387925492371	1060365.551115337
0.7324608490146619	1060433.1577427643
0.732582925822831	1060500.7756379626
0.7327050229771347	1060568.4048028102
0.7328271404809642	1060636.0452391852
0.7329492783377112	1060677.9628129308
0.7330714365507675	1060466.8935811447
0.7331936151235259	1060255.7891711537
0.7333158140593796	1060044.6495770942
0.7334380333617229	1059833.4747931024
0.7335602730339499	1059622.2648133128
0.7336825330794556	1059411.01963186
0.7338048135016354	1059199.7392428776
0.7339271143038857	1059443.1441169118
0.734049435489603	1061210.2149581711
0.7341717770621846	1062977.5803112376
0.7342941390250283	1064745.2402251954
0.7344165213815324	1066513.1947491383
0.734538924135096	1068281.443932171
0.7346613472891185	1070049.9878233986
0.734783790847	1071818.8264719418
0.7349062548121412	1072649.7149985407
0.7350287391879431	1071822.3557770196
0.7351512439778078	1070994.8586622935
0.7352737691851374	1070167.2236313822
0.735396314813335	1069339.4506612986
0.7355188808658037	1068511.5397290546
0.7356414673459482	1067683.4908116537
0.7357640742571725	1066855.3038861002
0.7358867016028818	1066578.4207726389
0.7360093493864824	1066846.0900614148
0.7361320176113801	1067113.8039617382
0.736254706280982	1067381.5624810453
0.7363774153986956	1067649.3656267726
0.7365001449679286	1067917.2134063568
0.7366228949920899	1068185.105827238
0.7367456654745885	1068453.0428968559
0.7368684564188344	1068922.5108193068
0.7369912678282374	1069505.9327385481
0.7371140997062088	1070089.4518947762
0.7372369520561599	1070673.0683041976
0.7373598248815024	1071256.7819830193
0.7374827181856494	1071840.5929474551
0.7376056319720137	1072424.5012137184
0.7377285662440091	1073008.5067980262
0.7378515210050496	1073292.2243936122
0.7379744962585505	1073485.6124699453
0.738097492007927	1073679.0327776244
0.7382205082565949	1073872.4853220216
0.738343545007971	1074065.9701085093
0.7384666022654723	1074259.4871424616
0.7385896800325165	1074453.0364292527
0.7387127783125219	1074646.6179742585
0.7388358971089073	1074802.3260185507
0.7389590364250921	1074954.2579719394
0.7390821962644963	1075106.2152473205
0.7392053766305403	1075258.1978489137
0.7393285775266454	1075410.2057809408
0.7394517989562333	1075562.2390476235
0.7395750409227259	1075714.2976531836
0.7396983034295463	1075841.5438697585
0.739821586480118	1075416.2774593038
0.7399448900778645	1074990.940171115
0.7400682142262109	1074565.5319933768
0.740191558928582	1074140.0529142763
0.7403149241884034	1073714.502921996
0.7404383100091014	1073288.882004717
0.7405617163941028	1072863.1901506188
0.7406851433468352	1072272.707808465
0.7408085908707264	1070928.5747733233
0.7409320589692048	1069584.2177160098
0.7410555476456997	1068239.6365991859
0.7411790569036406	1066894.83138551
0.7413025867464579	1065549.8020376314
0.7414261371775823	1064204.5485181944
0.7415497082004452	1062859.0707898387
0.7416732998184786	1061537.8618262638
0.741796912035115	1060268.974992252
0.7419205448537874	1058999.8766771012
0.7420441982779297	1057730.5668455646
0.742167872310976	1056461.0454623885
0.7422915669563612	1055191.312492315
0.7424152822175206	1053921.3679000803
0.7425390180978901	1052651.2116504142
0.7426627746009065	1051775.4214258853
0.7427865517300065	1051380.5037293963
0.7429103494886282	1050985.5202132908
0.7430341678802096	1050590.4708665996
0.7431580069081896	1050195.3556783507
0.7432818665760077	1049800.1746375698
0.7434057468871037	1049404.9277332823
0.7435296478449182	1049009.6149545112
0.7436535694528923	1048147.1575326282
0.7437775117144678	1046964.8266314785
0.7439014746330868	1045782.2986751805
0.7440254582121922	1044599.5736308887
0.7441494624552276	1043416.6514657558
0.7442734873656368	1042233.532146929
0.7443975329468645	1041050.2156415479
0.7445215992023557	1039866.7019167496
0.7446456861355559	1038266.9762311442
0.7447697937499119	1036513.7351519753
0.7448939220488703	1034760.2018659604
0.7450180710358784	1033006.3763243994
0.7451422407143843	1031252.2584785812
0.7452664310878367	1029497.8482797871
0.7453906421596846	1027743.1456792951
0.7455148739333779	1025988.150628369
0.7456391264123667	1023841.8819930777
0.7457633996001021	1021632.7399328116
0.7458876935000356	1019423.2296821981
0.7460120081156189	1017213.3511798806
0.7461363434503048	1015003.1043644781
0.7462606995075466	1012792.4891746044
0.7463850762907978	1010581.5055488691
0.7465094738035127	1008369.3409396521
0.7466338920491467	1005944.2657631802
0.746758331031155	1003518.7864075099
0.7468827907529935	1001092.9028052833
0.7470072712181189	998666.6148891228
0.7471317724299886	996239.9225916425
0.7472562943920602	993812.8258454477
0.7473808371077922	991385.3245831263
0.7475054005806435	988891.9670434649
0.7476299848140736	985995.0371789451
0.7477545898115426	983097.6244927808
0.7478792155765113	980199.7289045013
0.7480038621124406	977301.350333626
0.7481285294227926	974402.4886996563
0.7482532175110298	971503.143922078
0.7483779263806148	968603.3159203739
0.7485026560350116	965567.4813220672
0.7486274064776842	962164.3520371348
0.748752177712097	958760.6555639944
0.7488769697417158	955356.3918081013
0.749001782570006	951951.5606749196
0.7491266162004343	948546.1620698834
0.7492514706364677	945140.1958984114
0.7493763458815739	941733.6620659075
0.7495012419392209	938051.7835517165
0.7496261588128773	933974.2668148526
0.7497510965060128	929896.070491863
0.7498760550220971	925817.1944694878
0.7500010343646007	921737.6386344414
0.7501260345369949	917657.4028734206
0.750251055542751	913576.487073111
0.7503760973853414	909494.8911201654
0.7505011600682389	905052.3731876238
0.750626243594917	900308.3212418635
0.7507513479688495	895563.4786207862
0.7508764731935109	890817.8451926038
0.7510016192723765	886071.4208255153
0.7511267862089218	881324.2053877035
0.7512519740066232	876576.1987473171
0.7513771826689577	871827.4007724877
0.7515024121994025	866666.8497806828
0.7516276626014359	861313.8253273527
0.751752933878536	855959.9087032898
0.7518782260341824	850605.0997597878
0.7520035390718548	845249.3983481261
0.7521288729950334	839892.8043195653
0.7522542278071992	834535.3175253326
0.7523796035118337	829176.9378166315
0.7525050001124189	823151.7773752786
0.7526304176124378	816980.797064606
0.7527558560153731	810808.7882572227
0.752881315324709	804635.750781699
0.7530067955439299	798461.6844665937
0.7531322966765205	792286.5891404441
0.7532578187259665	786110.4646317384
0.7533833616957542	779933.3107689479
0.75350892558937	773020.7218476917
0.7536345104103016	766072.4469811656
0.7537601161620366	759123.014068832
0.7538857428480638	752172.422917673
0.7540113904718717	745220.6733346643
0.7541370590369503	738267.7651267268
0.7542627485467898	731313.6981007502
0.7543884590048808	724300.1184939352
0.7545141904147151	716703.4615482332
0.7546399427797842	709105.5384930526
0.7547657161035808	701506.3491173615
0.754891510389598	693905.8932101083
0.7550173256413296	686304.1705602007
0.7551431618622698	678701.18095652
0.7552690190559135	671096.924187907
0.7553948972257561	663293.7529771503
0.7555207963752938	654825.854447824
0.755646716508023	646356.5446020811
0.755772657627441	637885.8232046943
0.7558986197370455	629413.6900204066
0.756024602840335	620940.1448139239
0.7561506069408084	612465.1873499067
0.7562766320419653	603988.8173929711
0.7564026781473054	595146.7977957294
0.75652874526033	585662.3447389161
0.7566548333845401	576176.3109399219
0.7567809425234375	566688.6961352979
0.7569070726805247	557199.5000615452
0.7570332238593047	547708.7224551147
0.7571593960632813	538216.3630524075
0.7572855892959586	528722.4215897993
0.7574118035608413	519185.33891284536
0.7575380388614347	509606.00830298656
0.7576642952012449	500025.08113802254
0.7577905725837782	490442.55715187814
0.7579168710125422	480858.4360783857
0.7580431904910444	471272.7176513774
0.7581695310227928	461685.4016046434
0.7582958926112967	452096.4876718895
0.7584222752600652	442253.4181830437
0.7585486789726085	432263.62359279784
0.7586751037524372	422272.1640367831
0.7588015496030628	412279.0392374896
0.7589280165279966	402284.24891741585
0.7590545045307512	392287.7927989555
0.7591810136148396	382289.67060447566
0.7593075437837755	372289.88205628196
0.7594340950410726	362297.35308943293
0.7595606673902461	352305.748521843
0.7596872608348112	342312.4786868152
0.7598138753782836	332317.5433068258
0.75994051102418	322320.9421042638
0.7600671677760173	312322.6748015091
0.7601938456373134	302322.74112086307
0.7603205446115863	292321.1407846092
0.7604472647023548	282546.1410596337
0.7605740059131385	272792.2019347053
0.7607007682474575	263036.63715324656
0.7608275517088319	253279.44644434584
0.7609543563007835	243520.62953697203
0.7610811820268336	233760.18616011954
0.7612080288905045	223998.11604272298
0.7613348968953197	214252.38394086674
0.7614617860448022	204873.63024196273
0.7615886963424764	195493.31341742945
0.7617156277918667	186111.4332067678
0.7618425803964988	176727.98934939667
0.7619695541598982	167342.98158471845
0.7620965490855914	157956.4096520864
0.7622235651771058	148568.27329078806
0.7623506024379685	139509.41733316836
0.7624776608717082	131899.18172375698
0.7626047404818536	124287.67774174365
0.7627318412719337	116674.9051757464
0.762858963245479	109060.86381431672
0.7629861064060198	101445.55344599276
0.7631132707570876	93828.97385926619
0.7632404563022137	86211.12484261533
0.7633676630449308	79194.26519329604
0.7634948909887717	73458.24553547654
0.7636221401372697	67721.26987438819
0.7637494104939593	61983.33805068425
0.7638767020623748	56244.44990501797
0.7640040148460518	50504.60527798756
0.7641313488485262	44763.804010186184
0.7642587040733344	39022.04594216699
0.7643860805240132	34315.96231238724
0.7645134782041005	30846.106344753563
0.7646408971171346	27375.67206779051
0.764768337266654	23904.659385115898
0.7648957986561985	20433.068200326386
0.7650232812893079	16960.898417006538
0.7651507851695227	13488.149938722767
0.7652783103003843	10014.822669026376
0.7654058566854343	8038.79958830281
