#wavelength	surface flux
0.7	2430519.8812126243
0.7001166666666666	2433856.9420223874
0.7002333527777778	2436669.7884970247
0.700350058336574	2439483.103779406
0.7004667833462966	2442296.887947664
0.7005835278101878	2445111.1410799585
0.7007002917314895	2447925.8632544368
0.7008170751134447	2450741.054549277
0.7009338779592968	2453556.715042665
0.7010507002722901	2456223.9735000962
0.7011675420556689	2458710.5100104343
0.701284403312678	2461197.46094352
0.7014012840465635	2463684.8263684316
0.7015181842605713	2466172.606354247
0.701635103957948	2468660.8009700575
0.701752043141941	2471149.410284971
0.701869001815798	2473638.434368107
0.7019859799827672	2475748.88688163
0.7021029776460976	2477595.9379378636
0.7022199948090387	2479443.2968359427
0.7023370314748403	2481290.9636271703
0.7024540876467528	2483138.938362863
0.702571163328027	2484987.2210943415
0.7026882585219152	2486835.8118729475
0.7028053732316688	2488684.7107500136
0.7029225074605406	2491526.4188452265
0.7030396612117841	2494751.8507382045
0.7031568344886527	2497977.8202031655
0.7032740272944008	2501204.3273297017
0.7033912396322832	2504431.372207428
0.7035084715055552	2507658.954925963
0.7036257229174727	2510887.075574953
0.7037429938712924	2514115.734244054
0.7038602843702709	2517550.3706742176
0.7039775944176659	2521020.4236120167
0.7040949240167356	2524491.0548919733
0.7042122731707383	2527962.2646104745
0.7043296418829335	2531434.052863931
0.7044470301565806	2534906.419748762
0.70456443799494	2538379.365361405
0.7046818654012724	2541852.8897983185
0.7047993123788394	2544832.832199982
0.7049167789309024	2547812.70418708
0.7050342650607243	2550793.0728195137
0.7051517707715678	2553773.9381800513
0.7052692960666963	2556755.300351481
0.705386840949374	2559737.1594166043
0.7055044054228656	2562719.515458244
0.7056219894904361	2565640.444492233
0.7057395931553511	2568168.3394941357
0.705857216420877	2570696.6558118737
0.7059748592902804	2573225.393515663
0.7060925217668288	2575754.552675739
0.70621020385379	2578284.1333623417
0.7063279055544321	2580814.1356457216
0.7064456268720246	2583344.559596153
0.7065633678098366	2585992.3010125016
0.7066811283711383	2588962.416699204
0.7067989085592001	2591933.027405188
0.7069167083772933	2594904.1332129543
0.7070345278286895	2597875.7342050234
0.707152366916661	2600847.8304639254
0.7072702256444803	2603820.4220722006
0.7073881040154211	2606793.5091124144
0.7075060020327569	2609738.0544311577
0.7076239196997625	2612640.8022053638
0.7077418570197124	2615544.0337708625
0.7078598139958823	2618447.7492082887
0.7079777906315483	2621351.948598291
0.7080957869299869	2624256.632021522
0.7082138028944751	2627161.799558656
0.7083318385282908	2630067.4512903816
0.7084498938347124	2632908.6054576873
0.708567968817018	2635695.1402191916
0.7086860634784875	2638482.139403159
0.7088041778224007	2641269.6030869926
0.7089223118520377	2644057.531348103
0.7090404655706796	2646845.9242639225
0.709158638981608	2649634.7819118975
0.709276832088105	2652424.104369481
0.7093950448934531	2655367.799843897
0.7095132774009353	2658385.386381668
0.7096315296138355	2661403.47585053
0.7097498015354378	2664422.0683343024
0.7098680931690269	2667441.163916819
0.7099864045178884	2670460.762681937
0.7101047355853081	2673480.8647135147
0.7102230863745722	2676501.470095429
0.7103414568889679	2679332.3529038453
0.7104598471317828	2682120.4836953836
0.7105782571063047	2684909.0791753856
0.7106966868158224	2687698.1394213005
0.710815136263625	2690487.6645105896
0.7109336054530023	2693277.654520728
0.7110520943872445	2696068.109529201
0.7111706030696424	2698859.0296135102
0.7112891315034873	2701770.7632800974
0.7114076796920712	2704688.7244057744
0.7115262476386865	2707607.171858306
0.7116448353466263	2710526.1057187445
0.711763442819184	2713445.526068161
0.711882070059654	2716365.4329876383
0.7120007170713306	2719285.826558267
0.7121193838575091	2722232.1991975773
0.7122380704214853	2725444.941442518
0.7123567767665555	2728658.219144496
0.7124755028960166	2731872.03239276
0.7125942488131658	2735086.381276562
0.7127130145213015	2738301.2658851873
0.7128318000237216	2741516.686307904
0.7129506053237256	2744732.642634029
0.7130694304246129	2747865.023265046
0.7131882753296837	2750703.841867884
0.7133071400422386	2753543.1336071566
0.7134260245655789	2756382.898561717
0.7135449289030065	2759223.1368104373
0.7136638530578235	2762063.8484321972
0.7137827970333332	2764905.033505899
0.7139017608328388	2767746.692110445
0.7140207444596443	2770650.1732689417
0.7141397479170543	2773663.5787686147
0.7142587712083737	2776677.486502534
0.7143778143369084	2779691.896554411
0.7144968773059646	2782706.8090079636
0.7146159601188489	2785722.223946925
0.7147350627788687	2788738.141455042
0.7148541852893318	2791754.5616160766
0.7149733276535467	2794694.6806357
0.7150924898748222	2797557.8423611377
0.715211671956468	2800421.4812801974
0.7153308739017941	2803285.597472412
0.715450095714111	2806150.1910173246
0.71556933739673	2809015.2619944946
0.7156885989529628	2811880.810483494
0.7158078803861218	2814746.836563912
0.7159271816995193	2816631.1722278018
0.7160465028964692	2817939.3505562097
0.7161658439802853	2819247.746914339
0.7162852049542819	2820556.3613385274
0.7164045858217744	2821865.193865121
0.716523986586078	2823174.2445304682
0.7166434072505089	2824483.5133709256
0.716762847818384	2825793.000422857
0.7168823082930204	2828011.3219313063
0.7170017886777359	2830497.324181896
0.7171212889758488	2832983.7407661923
0.7172408091906781	2835470.5717532537
0.7173603493255433	2837957.817212147
0.7174799093837642	2840445.4772119485
0.7175994893686615	2842933.5518217515
0.7177190892835562	2845422.0411106544
0.7178387091317702	2850291.030125898
0.7179583489166254	2855399.750405818
0.7180780086414448	2860509.322139122
0.7181976883095517	2865619.745467715
0.7183173879242699	2870731.0205335296
0.718437107488924	2875843.147478523
0.7185568470068389	2880956.1264446764
0.7186766064813399	2885991.3065534392
0.7187963859157535	2889060.877013056
0.7189161853134061	2892130.959067749
0.719036004677625	2895201.552802785
0.7191558440117378	2898272.658303441
0.7192757033190732	2901344.2756550186
0.7193955826029597	2904416.4049428175
0.7195154818667269	2907489.0462521673
0.7196354011137046	2910427.087053723
0.7197553403472235	2912743.5348992925
0.7198752995706147	2915060.3688195017
0.7199952787872098	2917377.588878699
0.720115278000341	2919695.1951412396
0.7202352972133411	2922013.187671491
0.7203553364295432	2924331.566533827
0.7204753956522815	2926650.3317926438
0.7205954748848902	2929363.633668914
0.7207155741307044	2932946.341545539
0.7208356933930594	2936529.646540137
0.7209558326752915	2940113.5487522352
0.7210759919807375	2943698.048281373
0.7211961713127342	2947283.1452270946
0.7213163706746197	2950868.8396889796
0.7214365900697322	2954455.1317666047
0.7215568295014103	2957499.4562808154
0.721677088972994	2959896.916402737
0.7217973684878227	2962294.7761013424
0.7219176680492374	2964693.0354432333
0.7220379876605789	2967091.694495013
0.722158327325189	2969490.7533233026
0.7222786870464099	2971890.2119947285
0.7223990668275843	2974290.0705759344
0.7225194666720555	2976750.8976724837
0.7226398865831676	2979255.0613467414
0.7227603265642646	2981759.6423816057
0.722880786618692	2984264.640846648
0.7230012667497951	2986770.0568114324
0.7231217669609201	2989275.8903455446
0.7232422872554135	2991782.141518577
0.7233628276366229	2994288.8104001423
0.7234833881078956	2997868.912262769
0.7236039686725803	3001856.993272011
0.7237245693340255	3005845.7389614154
0.7238451900955812	3009835.149441775
0.7239658309605971	3013825.2248238767
0.7240864919324239	3017815.9652185477
0.7242071730144127	3021807.370736618
0.724327874209915	3025799.441488933
0.7244485955222832	3027691.105819395
0.7245693369548704	3029235.690961467
0.7246900985110294	3030780.5335343946
0.7248108801941148	3032325.6335810884
0.7249316820074803	3033870.9911444513
0.7250525039544815	3035416.606267411
0.7251733460384739	3036962.4789928906
0.7252942082628137	3038513.46214098
0.7254150906308574	3042876.5565717476
0.7255359931459625	3047240.378184921
0.7256569158114868	3051604.9271016982
0.7257778586307888	3055970.2034432967
0.7258988216072273	3060336.2073309505
0.7260198047441617	3064702.9388859146
0.7261408080449525	3069070.3982294784
0.72626183151296	3073268.126210774
0.7263828751515454	3076333.754147956
0.7265039389640706	3079399.8930231277
0.726625022953898	3082466.5429214467
0.7267461271243904	3085533.703928083
0.7268672514789111	3088601.3761282195
0.7269883960208241	3091669.5596070527
0.7271095607534942	3094738.254449801
0.7272307456802866	3097701.591116187
0.7273519508045666	3100379.442259442
0.7274731761297006	3103057.7397112194
0.7275944216590555	3105736.4835459054
0.7277156873959987	3108415.6738378983
0.7278369733438982	3111095.3106616107
0.727958279506122	3113775.394091453
0.7280796058860397	3116455.9242018703
0.7282009524870207	3119174.640305175
0.7283223193124353	3121949.6300632795
0.7284437063656539	3124725.0823196718
0.7285651136500483	3127500.9971514447
0.7286865411689898	3130277.374635684
0.7288079889258514	3133054.21484951
0.7289294569240056	3135831.5178700327
0.7290509451668262	3138609.283774395
0.7291724536576875	3141497.532305487
0.7292939823999636	3144477.4253477636
0.7294155313970303	3147457.815038886
0.7295371006522632	3150438.701461623
0.7296586901690385	3153420.084698762
0.7297802999507332	3156401.964833105
0.7299019300007252	3159384.3419474787
0.7300235803223919	3162367.216124696
0.7301452509191123	3165518.011041544
0.7302669417942654	3168746.608706924
0.7303886529512311	3171975.7444719165
0.7305103843933897	3175205.418426204
0.7306321361241218	3178435.630659481
0.7307539081468093	3181666.38126147
0.7308757004648336	3184897.670321885
0.7309975130815778	3188129.4979304806
0.7311193460004248	3191831.0287365136
0.7312411992247582	3195639.3893312425
0.7313630727579622	3199448.384652737
0.7314849666034219	3203258.0148067884
0.7316068807645224	3207068.2798991967
0.7317288152446498	3210879.1800357886
0.7318507700471907	3214690.7153224056
0.7319727451755319	3218502.885864902
0.732094740633061	3221204.306589166
0.7322167564231665	3223856.1426374423
0.7323387925492371	3226508.4206583933
0.7324608490146619	3229161.1407256806
0.732582925822831	3231814.3029129794
0.7327050229771347	3234467.907293973
0.7328271404809642	3237121.9539423664
0.7329492783377112	3239734.9361160244
0.7330714365507675	3241940.2978600613
0.7331936151235259	3244146.027164388
0.7333158140593796	3246352.124090263
0.7334380333617229	3248558.5886989627
0.7335602730339499	3250765.421051765
0.7336825330794556	3252972.6212099595
0.7338048135016354	3255180.1892348425
0.7339271143038857	3257664.4123092624
0.734049435489603	3261074.8007292314
0.7341717770621846	3264485.7575472714
0.7342941390250283	3267897.2828581124
0.7344165213815324	3271309.376756504
0.734538924135096	3274722.039337217
0.7346613472891185	3278135.2706950223
0.734783790847	3281549.0709247217
0.7349062548121412	3284495.92222978
0.7350287391879431	3286616.90770998
0.7351512439778078	3288738.246687765
0.7352737691851374	3290859.939222043
0.735396314813335	3292981.9853717457
0.7355188808658037	3295104.385195803
0.7356414673459482	3297227.1387531688
0.7357640742571725	3299350.246102792
0.7358867016028818	3302035.0335359066
0.7360093493864824	3305274.6287085633
0.7361320176113801	3308514.763813744
0.736254706280982	3311755.4389414424
0.7363774153986956	3314996.654181666
0.7365001449679286	3318238.4096244234
0.7366228949920899	3321480.705359757
0.7367456654745885	3324723.5414777133
0.7368684564188344	3327613.3256702228
0.7369912678282374	3330303.7485217685
0.7371140997062088	3332994.619777124
0.7372369520561599	3335685.9395110244
0.7373598248815024	3338377.7077982076
0.7374827181856494	3341069.9247134435
0.7376056319720137	3343762.590331499
0.7377285662440091	3346455.7047271575
0.7378515210050496	3348750.3233810877
0.7379744962585505	3350925.294179579
0.738097492007927	3353100.6274732025
0.7382205082565949	3355276.323322374
0.738343545007971	3357452.3817875194
0.7384666022654723	3359628.8029290778
0.7385896800325165	3361805.5868074903
0.7387127783125219	3363982.7334832186
0.7388358971089073	3367477.906405202
0.7389590364250921	3371105.8267643987
0.7390821962644963	3374734.351776991
0.7392053766305403	3378363.481543747
0.7393285775266454	3381993.2161654662
0.7394517989562333	3385623.5557429595
0.7395750409227259	3389254.500377043
0.7396983034295463	3392837.9889724106
0.739821586480118	3395352.9177397164
0.7399448900778645	3397868.2656618115
0.7400682142262109	3400384.032808568
0.740191558928582	3402900.2192498464
0.7403149241884034	3405416.82505553
0.7404383100091014	3407933.8502955143
0.7405617163941028	3410451.2950397045
0.7406851433468352	3412774.0001348723
0.7408085908707264	3414204.2858356666
0.7409320589692048	3415634.8099174104
0.7410555476456997	3417065.5724198357
0.7411790569036406	3418496.573382677
0.7413025867464579	3419927.812845679
0.7414261371775823	3421359.2908485923
0.7415497082004452	3422791.0074311714
0.7416732998184786	3424414.8852825505
0.741796912035115	3426450.745649856
0.7419205448537874	3428486.945327223
0.7420441982779297	3430523.484371202
0.742167872310976	3432560.3628383577
0.7422915669563612	3434597.5807852573
0.7424152822175206	3436635.138268481
0.7425390180978901	3438673.0353446174
0.7426627746009065	3440938.5960124163
0.7427865517300065	3443481.6584374076
0.7429103494886282	3446025.1447061393
0.7430341678802096	3448569.054889247
0.7431580069081896	3451113.3890573853
0.7432818665760077	3453658.1472812216
0.7434057468871037	3456203.3296314264
0.7435296478449182	3458748.9361786884
0.7436535694528923	3460575.9504988077
0.7437775117144678	3461911.080476092
0.7439014746330868	3463246.432975037
0.7440254582121922	3464582.008032733
0.7441494624552276	3465917.8056862727
0.7442734873656368	3467253.825972754
0.7443975329468645	3468590.0689292843
0.7445215992023557	3469926.534592974
0.7446456861355559	3470802.2026679073
0.7447697937499119	3471508.1890378273
0.7448939220488703	3472214.293072142
0.7450180710358784	3472920.5147904623
0.7451422407143843	3473626.854212402
0.7452664310878367	3474333.3113575797
0.7453906421596846	3475039.886245614
0.7455148739333779	3475746.5788961295
0.7456391264123667	3477274.4898259244
0.7457633996001021	3478933.944836645
0.7458876935000356	3480593.6764232037
0.7460120081156189	3482253.68463169
0.7461363434503048	3483913.969508212
0.7462606995075466	3485574.5310988817
0.7463850762907978	3487235.3694498143
0.7465094738035127	3488895.959796111
0.7466338920491467	3490419.539262507
0.746758331031155	3491943.3726588157
0.7468827907529935	3493467.4600273552
0.7470072712181189	3494991.801410456
0.7471317724299886	3496516.3968504546
0.7472562943920602	3498041.246389692
0.7473808371077922	3499566.350070521
0.7475054005806435	3500944.9528115853
0.7476299848140736	3501419.8313114173
0.7477545898115426	3501894.788957666
0.7478792155765113	3502369.825763523
0.7480038621124406	3502844.9417421804
0.7481285294227926	3503320.136906834
0.7482532175110298	3503795.4112706822
0.7483779263806148	3504270.7648469238
0.7485026560350116	3504554.4626389705
0.7486274064776842	3504319.284090566
0.748752177712097	3504084.0663457364
0.7488769697417158	3503848.8093979494
0.749001782570006	3503613.5132406713
0.7491266162004343	3503378.177867367
0.7492514706364677	3503142.8032715
0.7493763458815739	3502907.3894465338
0.7495012419392209	3502411.597965298
0.7496261588128773	3501541.45634806
0.7497510965060128	3500671.169707219
0.7498760550220971	3499800.738018605
0.7500010343646007	3498930.1612580423
0.7501260345369949	3498059.4394013523
0.750251055542751	3497188.572424354
0.7503760973853414	3496317.560302859
0.7505011600682389	3494935.0218351004
0.750626243594917	3493125.2613542518
0.7507513479688495	3491315.1992466594
0.7508764731935109	3489504.835462048
0.7510016192723765	3487694.1699501392
0.7511267862089218	3485883.2026606468
0.7512519740066232	3484071.933543272
0.7513771826689577	3482260.3625477096
0.7515024121994025	3479910.6973884115
0.7516276626014359	3477309.891655914
0.751752933878536	3474708.6524557993
0.7518782260341824	3472106.9797158167
0.7520035390718548	3469504.87336371
0.7521288729950334	3466902.3333272124
0.7522542278071992	3464299.359534042
0.7523796035118337	3461695.9519119044
0.7525050001124189	3458018.3201720174
0.7526304176124378	3454106.5501361014
0.7527558560153731	3450194.128138518
0.752881315324709	3446281.0540705975
0.7530067955439299	3442367.3278236645
0.7531322966765205	3438452.9492890285
0.7532578187259665	3434537.9183579693
0.7533833616957542	3430622.2349217553
0.75350892558937	3425044.8193200026
0.7536345104103016	3419388.365441041
0.7537601161620366	3413730.9688197696
0.7538857428480638	3408072.629299056
0.7540113904718717	3402413.3467217623
0.7541370590369503	3396753.1209307075
0.7542627485467898	3391091.9517686837
0.7543884590048808	3385336.6604636596
0.7545141904147151	3378651.222238239
0.7546399427797842	3371964.6697731246
0.7547657161035808	3365277.002882599
0.754891510389598	3358588.221380925
0.7550173256413296	3351898.325082331
0.7551431618622698	3345207.3138010222
0.7552690190559135	3338515.187351168
0.7553948972257561	3331069.1883149203
0.7555207963752938	3321095.225650639
0.755646716508023	3311119.6006592526
0.755772657627441	3301142.313063698
0.7558986197370455	3291163.3625868754
0.756024602840335	3281182.748951643
0.7561506069408084	3271200.4718808043
0.7562766320419653	3261216.5310971118
0.7564026781473054	3249988.921037844
0.75652874526033	3236573.841764848
0.7566548333845401	3223156.5266453
0.7567809425234375	3209736.97530657
0.7569070726805247	3196315.187375958
0.7570332238593047	3182891.162480693
0.7571593960632813	3169464.900247932
0.7572855892959586	3156036.4003047985
0.7574118035608413	3141466.47351319
0.7575380388614347	3125779.6128536346
0.7576642952012449	3110090.1377172964
0.7577905725837782	3094398.047668458
0.7579168710125422	3078703.3422712507
0.7580431904910444	3063006.021089804
0.7581695310227928	3047306.0836881804
0.7582958926112967	3031603.5296303034
0.7584222752600652	3012357.208120484
0.7585486789726085	2991073.4231539257
0.7586751037524372	2969786.090889865
0.7588015496030628	2948495.210737052
0.7589280165279966	2927200.7821042556
0.7590545045307512	2905902.8044000203
0.7591810136148396	2884601.277032835
0.7593075437837755	2863296.199411057
0.7594340950410726	2837236.3442192446
0.7595606673902461	2809793.6410847185
0.7596872608348112	2782346.3641663096
0.7598138753782836	2754894.5127017777
0.75994051102418	2727438.085928643
0.7600671677760173	2699977.0830844007
0.7601938456373134	2672511.50340633
0.7603205446115863	2645041.346131662
0.7604472647023548	2609889.443575055
0.7605740059131385	2573968.572892994
0.7607007682474575	2538041.7153991186
0.7608275517088319	2502108.87009574
0.7609543563007835	2466170.0359847313
0.7610811820268336	2430225.212068059
0.7612080288905045	2394274.39734747
0.7613348968953197	2357732.519619489
0.7614617860448022	2309180.182319127
0.7615886963424764	2260619.752962482
0.7617156277918667	2212051.2302009915
0.7618425803964988	2163474.6126856674
0.7619695541598982	2114889.8990674363
0.7620965490855914	2066297.087996972
0.7622235651771058	2017696.1781246061
0.7623506024379685	1967183.7979784906
0.7624776608717082	1908320.3200870126
0.7626047404818536	1849447.0316158833
0.7627318412719337	1790563.93093011
0.762858963245479	1731671.0163941854
0.7629861064060198	1672768.2863724993
0.7631132707570876	1613855.739229082
0.7632404563022137	1554933.3733278601
0.7633676630449308	1492271.111384062
0.7634948909887717	1421658.313132463
0.7636221401372697	1351033.7460812475
0.7637494104939593	1280397.4082687902
0.7638767020623748	1209749.297733466
0.7640040148460518	1139089.412512972
0.7641313488485262	1068417.7506449441
0.7642587040733344	997734.3101665246
0.7643860805240132	924833.6116590301
0.7645134782041005	849288.9672928818
0.7646408971171346	773731.732152641
0.764768337266654	698161.9041399045
0.7648957986561985	622579.4811558081
0.7650232812893079	546984.4611012244
