#wavelength	surface flux
0.8	142813597.89942756
0.8002000000000001	145122477.35050228
0.8004000500000003	143234288.23319593
0.8006001500125003	141303226.71315187
0.8008003000500035	139371682.42772767
0.8010005001250161	137439655.25623122
0.8012007502500472	135507145.0779447
0.8014010504376099	136085793.00708783
0.8016014007002193	137505908.67847598
0.8018018010503944	138926379.37878197
0.8020022515006572	140347205.1967637
0.8022027520635323	141768386.22119865
0.8024033027515483	142837856.27586275
0.8026039035772362	143562582.47936907
0.8028045545531306	144287489.8644263
0.8030052556917691	145012578.47633016
0.803206007005692	145737848.36038634
0.8034068085074435	146294201.97824138
0.8036076602095705	146376689.35346305
0.8038085621246229	146459197.35052848
0.8040095142651542	146541725.97459322
0.8042105166437206	146624275.23081395
0.8044115692728815	146671173.70746535
0.8046126721651998	145183793.42002577
0.8048138253332411	143696041.28751555
0.8050150287895745	142207917.2169708
0.805216282546772	140719421.1154088
0.8054175866174087	139230552.88982224
0.8056189410140631	138026549.64457926
0.8058203457493168	136902986.02544168
0.8060218008357541	135779141.51540077
0.8062233062859632	134655016.04423177
0.8064248621125346	133530609.54169577
0.806626468328063	132669928.10555321
0.8068281249451449	132035780.85944788
0.8070298319763813	131401475.07653025
0.8072315894343755	130767010.71716736
0.8074333973317341	130132387.7417144
0.8076352556810671	129922684.22429533
0.8078371644949874	130736162.2810537
0.8080391237861113	131549843.70732644
0.8082411335670578	132363728.55395526
0.8084431938504498	133177816.87179658
0.8086453046489125	133991169.03102751
0.8088474659750746	134787229.3573837
0.8090496778415686	135583488.69882256
0.809251940261029	136379947.1050962
0.8094542532460944	137176604.6259721
0.8096566168094059	137973461.3112273
0.8098590309636085	137579592.3920267
0.8100614957213493	136906879.32755896
0.8102640110952797	136233998.084825
0.8104665770980536	135560948.62178013
0.8106691937423283	134887730.89636922
0.8108718610407639	134372564.8024689
0.8110745790060241	133978252.39767383
0.8112773476507757	133583841.41477723
0.8114801669876885	133189331.82913502
0.8116830370294355	132794723.61609663
0.8118859577886929	132806292.54176392
0.8120889292781401	133661716.94263463
0.8122919515104597	134517355.1996055
0.8124950244983374	135373207.36614063
0.8126981482544621	136229273.49571732
0.8129013227915257	137109848.65638486
0.8131045481222237	138268825.59187385
0.8133078242592543	139428092.27159685
0.8135111512153191	140587648.76798946
0.813714529003123	141747495.1535063
0.8139179576353739	142907631.50061974
0.8141214371247829	142778272.56376174
0.8143249674840641	142398770.22004074
0.814528548725935	142019173.00073403
0.8147321808631167	141639480.88212198
0.8149358639083326	141259693.84048042
0.8151395978743097	140171210.68868476
0.8153433827737784	138603694.73977077
0.8155472186194719	137035786.91187012
0.8157511054241268	135467487.1070128
0.815955043200483	133898795.22720318
0.8161590319612831	132331728.51614323
0.8163630717192736	130767966.57120126
0.8165671624872033	129203813.68577479
0.8167713042778252	127639269.76212543
0.8169754971038948	126074334.70249438
0.8171797409781707	124395677.95138618
0.8173840359134155	121811849.39265282
0.8175883819223938	119227374.87678275
0.8177927790178745	116642254.24228223
0.8179972272126291	114056487.3276224
0.8182017265194322	111470073.97123653
0.8184062769510622	111050313.08215088
0.8186108785203001	110963962.50217812
0.8188155312399301	110877590.33456048
0.8190202351227402	110791196.57390085
0.819224990181521	110704781.2148011
0.8194297964290664	112219628.90099293
0.8196346538781738	114700026.78100067
0.8198395625416434	117181044.76047742
0.8200445224322789	119662682.9944501
0.820249533562887	122144941.63798054
0.8204545959462778	124398845.17753227
0.8206597095952644	126284782.0358232
0.8208648745226633	128171190.37833014
0.8210700907412941	130058070.32292242
0.8212753582639793	131945421.98749892
0.8214806771035456	133775677.48326643
0.8216860472728215	135251701.48375362
0.8218914687846397	136728094.490241
0.822096941651836	138204856.59498075
0.822302465887249	139681987.89024585
0.8225080415037209	141159488.46833557
0.8227136685140968	142719737.8278568
0.8229193469312254	144289729.034054
0.8231250767679583	145860112.7380533
0.8233308580371503	147430889.03797773
0.8235366907516598	149002058.0319783
0.8237425749243477	148729898.397309
0.8239485105680789	147480465.9581054
0.824154497695721	146230721.16079277
0.824360536320145	144980663.92728058
0.8245666264542252	143730294.17946005
0.8247727681108388	143543387.08947763
0.8249789613028664	144879959.64719102
0.8251852060431922	146216866.34804496
0.825391502344703	147554107.27557352
0.8255978502202894	148891682.5133352
0.8258042496828445	150174568.45202506
0.8260107007452654	151190548.6727444
0.8262172034204517	152206782.88851792
0.8264237577213068	153223271.1628456
0.8266303636607373	154240013.55924237
0.8268370212516525	155257010.1412377
0.8270437305069654	155381246.67992702
0.8272504914395923	155435731.01462686
0.8274573040624523	155490228.97041044
0.8276641683884679	155544740.55068287
0.8278710844305652	155599265.75885046
0.8280780522016729	156349355.24569958
0.8282850717147234	157417567.1677921
0.8284921429826521	158486046.14286408
0.8286992660183978	159554792.2376806
0.8289064408349024	160623805.51902014
0.8291136674451112	161877390.44078794
0.8293209458619727	163363687.35555685
0.8295282760984382	164850355.8445525
0.829735658167463	166337396.0006721
0.8299430920820048	167824807.91682884
0.8301505778550254	169028892.12972724
0.8303581154994891	169100949.3567721
0.8305657050283641	169173024.59812376
0.8307733464546212	169245117.8582857
0.8309810397912352	169317229.1417628
0.8311887850511829	169389358.45306063
0.8313965822474458	170800514.7075862
0.8316044313930077	172274174.23775065
0.8318123325008561	173748202.18279898
0.8320202855839813	175222598.6348329
0.8322282906553774	176697363.6859799
0.8324363477280413	178133191.22138625
0.8326444568149735	179553553.17340425
0.8328526179291771	180974270.2159086
0.8330608310836596	182395342.4376757
0.8332690962914304	183816769.92749637
0.8334774135655034	184320946.34710976
0.833685782918895	183800252.29825586
0.8338942043646247	183279428.07589003
0.834102677915716	182758473.64746827
0.834311203585195	182237388.9804398
0.8345197813860912	182379850.2554815
0.8347284113314379	184756343.343969
0.8349370934342709	187133430.5557272
0.8351458277076294	189511112.0392855
0.8353546141645565	191889387.94321868
0.8355634528180977	194268258.41612682
0.8357723436813022	191357575.88431183
0.8359812867672226	188380845.83685303
0.8361902820889144	185403371.60688385
0.8363993296594368	182425153.0083563
0.8366084294918518	179446189.85517812
0.8368175815992247	177203715.35257247
0.8370267859946247	175214590.98355967
0.8372360426911234	173224969.33345526
0.8374453517017962	171234850.27793851
0.8376547130397217	169244233.69265816
0.8378641267179816	169142827.72323933
0.8380735927496613	170916478.2374657
0.8382831111478488	172690572.16431957
0.8384926819256358	174465109.61465424
0.8387023050961173	176240090.699353
0.8389119806723914	177257717.41915622
0.8391217086675596	176142907.04531965
0.8393314890947265	175027817.96889043
0.8395413219670003	173912450.120192
0.8397512072974922	172796803.42953062
0.8399611450993165	171694221.82073933
0.8401711353855914	171254022.5169351
0.8403811781694378	170813713.16330504
0.8405912734639802	170373293.73233646
0.8408014212823464	169932764.19650996
0.8410116216376671	169492124.5282995
0.8412218745430766	168695023.67168972
0.8414321800117124	167794039.1416898
0.8416425380567154	166892829.36555696
0.8418529486912297	165991394.28697985
0.8420634119284025	165089733.84963384
0.8422739277813847	167158623.67929482
0.8424844962633302	171845399.38454014
0.842695117387396	176533346.78370583
0.8429057911667428	181222466.16972145
0.8431165176145345	185912757.83558586
0.8433272967439382	188704212.08115995
0.8435381285681244	186861712.94380626
0.8437490131002665	185018753.18166867
0.8439599503535415	183175332.6795917
0.84417094034113	181331451.32238784
0.8443819830762154	179394202.51944637
0.8445930785719846	175584860.51506373
0.8448042268416277	171774566.17518207
0.8450154278983382	167963319.26171592
0.8452266817553128	164151119.53652173
0.8454379884257517	160337966.76139575
0.8456493479228583	160687735.2931626
0.845860760259839	162040302.31286728
0.846072225449904	163393207.47432688
0.8462837435062666	164746450.86207712
0.8464953144421433	166100032.56067508
0.8467069382707537	167166815.98983917
0.8469186150053215	168010051.90308496
0.847130344659073	168853498.62530926
0.8473421272452377	169697156.20921332
0.8475539627770492	170541024.7075142
0.8477658512677435	171020575.67689985
0.8479777927305605	170726218.27456364
0.8481897871787432	170431787.2828769
0.848401834625538	170137282.6834421
0.8486139350841944	169842704.4578576
0.8488260885679657	169317195.25411582
0.8490382950901076	165977485.7312209
0.8492505546638802	162636941.28094354
0.8494628673025462	159295561.6945548
0.8496752330193721	155953346.76326454
0.8498876518276269	152610296.278246
0.8501001237405839	153334723.17746538
0.8503126487715191	154871437.9386492
0.850525226933712	156408536.8785225
0.8507378582404455	157946020.0931307
0.8509505427050057	159483887.6785435
0.8511632803406821	163503968.62963367
0.8513760711607672	169224652.93210754
0.8515889151785576	174946767.40566593
0.8518018124073523	180670312.40783793
0.8520147628604541	186395288.2962571
0.8522277665511693	191025216.8921459
0.8524408234928071	193628498.45595396
0.8526539336986805	196232430.84015366
0.8528670971821053	198837014.2074496
0.8530803139564007	201442248.72058427
0.8532935840348901	203687312.48100892
0.8535069074308987	202885610.8189156
0.8537202841577566	202083708.73140612
0.8539337142287962	201281606.16837466
0.8541471976573534	200479303.07970294
0.8543607344567677	199676799.4152589
0.8545743246403821	198676287.28638384
0.8547879682215422	197644110.88389018
0.8550016652135977	196611676.437296
0.8552154156299011	195578983.88209015
0.8554292194838088	194546033.15374473
0.8556430767886797	192810294.75273207
0.855856987557877	190647565.09909427
0.8560709518047664	188484294.76304442
0.8562849695427177	186320483.60940975
0.8564990407851035	184156131.50298604
0.8567131655452999	182729536.15093663
0.8569273438366862	182512309.80393103
0.8571415756726455	182295029.15033862
0.8573558610665638	182077694.17658275
0.8575702000318304	181860304.86908367
0.8577845925818384	182714243.11725068
0.857999038729984	190260640.91651604
0.8582135384896665	197808925.31522945
0.858428091874289	205359096.785043
0.8586426988972576	212911155.79772198
0.8588573595719821	220465102.82515672
0.8590720739118751	217316773.65065977
0.8592868419303532	212905604.39313972
0.8595016636408359	208493332.3433053
0.8597165390567462	204079957.22545987
0.8599314681915105	199665478.76383388
0.8601464510585584	196191400.36442646
0.860361487671323	193216197.02741918
0.8605765780432408	190240249.88957852
0.8607917221877518	187263558.76495093
0.8610069201182988	184286123.467543
0.8612221718483286	179090857.25915483
0.8614374773912907	170698061.93072742
0.8616528367606385	162303168.40347022
0.8618682499698288	153906176.15282586
0.8620837170323213	145507084.65412027
0.8622992379615795	138459755.66555476
0.8625148127710699	138110410.5935881
0.8627304414742627	137760978.18535346
0.8629461240846313	137411458.4190167
0.8631618606156526	137061851.2727383
0.8633776510808066	136712156.7246734
0.8635934954935769	143999873.9690305
0.8638093938674504	151915472.76689368
0.8640253462159173	159833050.46445605
0.8642413525524714	167752607.55644265
0.8644574128906095	175674144.5377006
0.8646735272438323	174148383.40844688
0.8648896956256433	168228064.51177213
0.8651059180495498	162306265.53537288
0.8653221945290621	156382986.1092352
0.8655385250776946	150458225.86323267
0.8657549097089641	148018672.97355288
0.8659713484363913	150042237.99761996
0.8661878412735006	152066308.91294402
0.866404388233819	154090885.84599662
0.8666209893308775	156115968.92328155
0.8668376445782103	157667070.2150862
0.8670543539893549	157281932.65531942
0.8672711175778525	156896698.81116247
0.8674879353572469	156511368.6585449
0.8677048073410862	156125942.17338902
0.8679217335429217	155740419.33161163
0.8681387139763074	154097776.10209745
0.8683557486548015	152392276.4616576
0.8685728375919655	150686350.44630554
0.8687899808013633	148979997.94945335
0.8690071782965637	147273218.86447474
0.869224430091138	146020876.30465955
0.8694417361986609	144953303.92838374
0.8696590966327107	143885464.65901408
0.869876511406869	142817358.429827
0.8700939805347206	141748985.17408314
0.8703115040298544	140988856.56358725
0.870529081905862	140581256.08723703
0.8707467141763385	140173553.71076784
0.8709644008548827	139765749.40870458
0.8711821419550964	139357843.15556604
0.8713999374905854	139233418.54886636
0.871617787474958	140087708.31147605
0.8718356919218269	140942211.64652717
0.8720536508448075	141796928.60741213
0.8722716642575187	142651859.24753678
0.8724897321735832	143507003.62032187
0.8727078546066265	144126315.29644206
0.8729260315702784	144742190.75915524
0.873144263078171	145358220.19073346
0.8733625491439405	145974403.62966964
0.8735808897812266	146590741.11446577
0.8737992850036719	146390337.34956777
0.874017734824923	145900552.5884256
0.8742362392586293	145410645.38109335
0.874454798318444	144920615.6969593
0.8746734120180236	144430463.50540423
0.8748920803710283	144099446.8461225
0.875110803391121	143928386.6181688
0.8753295810919689	143757283.625158
0.875548413487242	143586137.85639897
0.8757673005906139	143414949.30119774
0.8759862424157616	143696700.96923664
0.8762052389763657	145289250.82215697
0.8764242902861098	146882198.8125394
0.8766433963586814	148475545.03991985
0.8768625572077712	150069289.60385764
0.8770817728470732	151665745.8594192
0.8773010432902849	153443214.38025936
0.8775203685511077	155221127.26823232
0.8777397486432454	156999484.634425
0.8779591835804065	158778286.58996144
0.8781786733763015	160557533.2459844
0.8783982180446457	158660563.1271033
0.878617817599157	155669380.66575816
0.8788374720535569	152677450.4087991
0.8790571814215703	149684772.16927657
0.8792769457169257	146691345.7601941
0.879496764953355	145001715.21877974
0.8797166391445934	144484533.21135488
0.8799365683043796	143967221.90842816
0.8801565524464557	143449781.27767572
0.8803765915845676	142932211.28676507
0.8805966857324639	143226585.54364857
0.880816834903897	145560718.92880204
0.881037039112623	147895435.8473027
0.8812572983724012	150230736.44503278
0.8814776126969944	152566620.8679133
0.8816979821001687	154763708.13761637
0.8819184065956938	153680289.5530376
0.8821388861973429	152596600.11381158
0.8823594209188923	151512639.75222683
0.882580010774122	150428408.40055212
0.8828006557768155	149343905.99103892
0.8830213559407598	150914545.5022428
0.8832421112797452	153153441.00881973
0.8834629218075651	155392896.23927197
0.8836837875380171	157632911.33353245
0.8839047084849018	159873486.4315669
0.884125684662023	159380649.6872032
0.8843467160831886	156696760.3551408
0.8845678027622095	154012200.05074543
0.8847889447129001	151326968.6062734
0.8850101419490785	148641065.85394078
0.8852313944845657	148474550.1146519
0.885452702333187	153824091.6914036
0.8856740655087704	159174970.65354872
0.8858954840251476	164527187.33543292
0.8861169578961539	169880742.07148513
0.886338487135628	174522249.54469126
0.886560071757412	169671604.30595824
0.8867817117753515	164819746.40591568
0.8870034072032955	159966675.54139593
0.8872251580550963	155112391.4091657
0.8874469643446101	150256893.70589948
0.8876688260856963	149837953.49143586
0.8878907432922178	150337362.19889933
0.8881127159780409	150836895.75853935
0.8883347441570356	151336554.20156989
0.8885568278430749	151836337.55921063
0.8887789670500358	151803293.64490402
0.8890011617917983	151392179.21247914
0.8892234120822464	150980962.00144595
0.8894457179352669	150569641.98611033
0.8896680793647509	150158219.14077055
0.8898904963845921	150168090.71287963
0.8901129690086883	150982001.8424672
0.8903354972509405	151796116.4498369
0.8905580811252535	152610434.58585915
0.8907807206455347	153424956.30141425
0.8910034158256963	154161970.13081837
0.8912261666796527	154204663.19792038
0.8914489732213227	154247366.93828917
0.8916718354646282	154290081.3545931
0.8918947534234944	154332806.44950107
0.8921177271118502	154375542.22568274
0.8923407565436284	155125516.66587108
0.8925638417327644	155991046.7136513
0.8927869826931977	156856793.14394376
0.8930101794388711	157722756.01084372
0.8932334319837308	158588935.3684603
0.8934567403417267	159820364.13663667
0.8936801045268123	161278925.71819338
0.8939035245529441	162737851.94014445
0.8941270004340824	164197142.8936516
0.894350532184191	165656798.66989675
0.8945741198172371	166341532.0119201
0.8947977633471915	165740714.94950572
0.8950214627880284	165139747.68282577
0.8952452181537254	164538630.1743295
0.8954690294582639	163937362.38645574
0.8956928967156286	163315931.05615184
0.8959168199398075	162564465.6639085
0.8961407991447926	161812812.40531695
0.8963648343445789	161060971.23341075
0.896588925553165	160308942.10121197
0.8968130727845534	159556724.96173006
0.8970372760527496	161991741.13890132
0.8972615353717629	164826176.67239836
0.8974858507556059	167661320.8147791
0.8977102222182949	170497173.74319467
0.8979346497738496	173333735.63484392
0.8981591334362931	175020570.54210424
0.8983836732196523	176078680.69223997
0.8986082691379572	177137055.3699125
0.8988329212052417	178195694.64125448
0.8990576294355432	179254598.5724152
0.8992823938429022	178286885.91276878
0.8995072144413631	174305216.38404876
0.8997320912449734	170322551.43794796
0.8999570242677847	166338890.8256116
0.9001820135238516	162354234.29812187
0.9004070590272328	159043699.12499163
0.9006321607919896	159271532.67527348
0.9008573188321878	159499423.18394315
0.9010825331618959	159727370.66523987
0.9013078037951865	159955375.13340697
0.9015331307461353	160183436.60269096
0.9017585140288219	160819616.40256557
0.9019839536573292	161491102.62616408
0.9022094496457435	162162756.72131798
0.9024350020081551	162834578.72999644
0.9026606107586572	163506568.69417685
0.902886275911347	164715610.1644029
0.9031119974803249	166183769.11666924
0.9033377754796951	167652295.10867366
0.903563609923565	169121188.2321754
0.903789500826046	170590448.57895902
0.9040154482012526	171750056.58727255
0.904241452063303	172508351.10568014
0.9044675124263188	173266835.19771716
0.9046936293044254	174025508.9107771
0.9049198027117517	174784372.29226562
0.9051460326624297	175080106.67571342
0.9053723191705955	173402996.12443426
0.9055986622503881	171725466.29551888
0.9058250619159507	170047517.08414617
0.9060515181814298	168369148.3854696
0.9062780310609752	166690360.09461948
0.9065046005687405	167236488.7636114
0.906731226718883	167906898.91761312
0.9069579095255627	168577476.67415246
0.907184649002944	169248222.075131
0.907411445165195	169919135.16246048
0.9076382980264862	168507587.4418557
0.907865207600993	166230775.06044325
0.9080921739028933	163953393.47593614
0.9083191969463691	161675442.54603326
0.9085462767456058	159396922.12839678
0.9087734133147922	160712308.62929624
0.9090006066681211	166179688.9448848
0.909227856819788	171648436.10554504
0.9094551637839932	177118550.453003
0.9096825275749393	182590032.3290461
0.9099099482068329	186089138.0917728
0.9101374256938848	182574398.2886154
0.9103649600503083	179058779.8005089
0.9105925512903209	175542282.407781
0.9108201994281437	172024905.8907013
0.9110479044780008	168506650.0294963
0.9112756664541204	169062515.56016314
0.911503485370734	169711796.11068755
0.9117313612420768	170361238.9813496
0.9119592940823873	171010844.2127291
0.912187283905908	171660611.84541667
0.9124153307268845	171559663.99496636
0.9126434345595664	171186166.11075473
0.9128715954182063	170812574.8520724
0.9130998133170609	170438890.1955752
0.9133280882703902	170065112.11791393
