#wavelength	surface flux
0.676892	97845.91259377697
0.678297	100639.15480410741
0.679702	103396.69665653838
0.681109	106152.07714326536
0.682517	108929.24701903513
0.683926	111715.48374625097
0.685337	114484.5749971254
0.686749	117286.50077091447
0.688164	120077.03328639298
0.689581	122696.22514284508
0.691	124295.8364153678
0.692422	124418.81473029869
0.693847	128527.38914278439
0.695274	133472.57479799865
0.696705	137025.9522247663
0.698139	139666.28965213886
0.699576	142502.4907674448
0.701017	145077.16429008677
0.702461	147002.59252045472
0.70391	151015.68151580635
0.705362	154926.74223159737
0.706819	157495.20443144787
0.70828	160183.32364368
0.709745	162752.83664468877
0.711216	166331.4950441125
0.71269	169103.94580556135
0.71417	171353.7311188906
0.715655	171381.19110301128
0.717145	169418.10601510544
0.71864	174623.57407034063
0.72014	177664.18898028633
0.721647	179299.60555761104
0.723158	180017.76650537734
0.724676	179641.34184439294
0.726199	179979.44980416945
0.727728	182311.24872746697
0.729264	180419.22408886705
0.730805	181825.45526483364
0.732353	185577.9584360489
0.733907	185137.0706195001
0.735468	185098.01128064588
0.737035	183724.28390806244
0.738609	183063.53610772733
0.74019	180785.2670393036
0.741777	175066.77008509627
0.743372	169851.63932380234
0.744973	164148.58834515983
0.746582	155739.61707737512
0.748197	145756.2782537271
0.74982	133931.35244746995
0.751451	119992.70595919075
0.753088	104109.37237529951
0.754734	86816.58812135362
0.756386	68600.63070427306
0.758047	50297.36182379836
0.759715	33501.572340624516
0.76139	19068.019807337903
0.763074	8606.492761514532
0.764765	2707.18685611301
0.766464	608.5200020510902
0.768172	787.6502343891714
0.769887	809.7785024737169
0.77161	4950.012056296647
0.773341	15668.22630662519
0.775081	33163.36832751321
0.776829	55256.0748796974
0.778585	71396.17482565997
0.780349	86041.36546141234
0.782121	133368.5955783344
0.783902	172144.3993364533
0.785691	204116.84124333438
0.787489	234336.42874192275
0.789295	261886.9093120233
0.79111	283808.53255534905
0.792933	234794.9229609559
0.794764	123847.59476856005
0.796604	306339.8879801655
0.798453	383559.7867211246
0.80031	409843.3029457974
0.802176	431650.757517067
0.804051	452056.95478848595
0.805934	471954.78079465067
0.807826	488650.2168018911
0.809727	494192.4142202149
0.811636	499573.6904044485
0.813554	512499.5153454011
0.81548	552514.2876126713
0.817416	574210.6406420807
0.81936	593540.9779137287
0.821313	608447.6466399479
0.823274	612363.1917783075
0.825244	646008.1152354359
0.827223	662803.9558881172
0.829211	668734.3049896978
0.831208	679497.1165822576
0.833213	705814.762542763
0.835227	719702.2640893328
0.837249	723094.975414689
0.83928	744040.0153145712
0.841321	783984.433575925
0.843369	815499.683750579
0.845427	835347.8085202947
0.847493	858553.0440448174
0.849567	871802.0580961424
0.851651	866589.7880809793
0.853742	904073.7006928078
0.855843	944549.53599503
0.857952	967522.1412143032
0.86007	987151.0518803337
0.862196	994405.5603101976
0.864331	1016806.707738157
0.866474	1042589.5810307099
0.868626	1065457.6353780671
0.870786	1092660.0793856028
0.872955	1116572.7991540553
0.875132	1130560.9567719116
0.877317	1151144.165069455
0.879511	1156005.7838649075
0.881713	1167131.3877445052
0.883923	1179867.092392741
0.886142	1190488.9572463254
0.888369	1196249.044928867
0.890604	1202116.2916387948
0.892847	1140128.40579693
0.895099	1145032.6417289912
0.897358	1218676.4836260022
0.899626	1312571.2971831358
0.901901	1361508.6591078606
0.904185	1417509.3686183996
0.906476	1429295.1141088982
0.908776	1454959.4930201033
0.911083	1510154.6314816554
0.913398	1496486.5485172085
0.915721	1490146.7223769918
0.918051	1456630.623338858
0.92039	1584755.8923230222
0.922736	1596478.5443593927
0.925089	1445250.1577013924
0.927451	1124664.121919832
0.929819	806524.2362506936
0.932195	1023983.9946986976
0.934579	966488.865108491
0.93697	1092238.112943198
0.939369	1338406.2200080901
0.941774	1361425.8782017864
0.944187	1075161.8218177864
0.946607	976333.4554440558
0.949035	1246955.7225591
0.951469	1199407.6899363983
0.953911	1264649.0892824535
0.956359	1611089.8849576153
0.958814	1247153.394599443
0.961277	1096389.7108731477
0.963746	1156601.0042448773
0.966222	1211827.998115515
0.968705	1208892.1265320026
0.971194	1682428.1818629259
0.97369	1890382.2791276213
0.976193	1788033.7481945588
0.978702	1956953.9312192434
0.981217	1996151.2332699245
0.983739	2083153.6080228705
0.986268	2127815.0745888986
0.988802	2267772.9199619275
0.991343	2403849.5991855776
0.99389	2438986.854052476
0.996444	2543546.974150293
0.999003	2606929.9816377815
1.00157	2635065.1391191077
1.00414	2691779.4728874182
1.00672	2779618.2948975745
1.0093	2848187.4295951314
1.01189	2917460.3265823633
1.01448	3012741.423288801
1.01708	3067942.029870386
1.01969	3117455.5495436867
1.0223	3150915.6979986443
1.02492	3120227.684400977
1.02754	3188678.9908196083
1.03017	3136799.0963047566
1.0328	3347040.4694306687
1.03544	3423080.0670232843
1.03808	3477929.0577465403
1.04073	3533839.4634666606
1.04339	3585229.2071833606
1.04604	3632397.122317186
1.04871	3650772.799585995
1.05138	3689004.143795553
1.05405	3766233.4679293497
1.05673	3833837.351187415
1.05941	3888312.080634835
1.0621	3934746.755177947
1.06479	3983422.350434306
1.06749	4029185.4773780727
1.07019	4036011.8111688946
1.07289	4100613.3245495143
1.0756	4175524.4081785358
1.07832	4208432.242483667
1.08104	4270504.132930464
1.08376	4333769.270309419
1.08649	4346917.70849736
1.08922	4279233.255951325
1.09195	4200755.648346273
1.09469	4136875.36649859
1.09743	4166131.449404122
1.10018	3150276.8868532637
1.10293	2282501.957724944
1.10568	1802149.383064102
1.10844	2882493.2695025494
1.1112	2457309.49402925
1.11396	1829313.0744886063
1.11673	1827671.2503673513
1.1195	1775444.1575224875
1.12228	1251299.7984322044
1.12505	1976607.2360521934
1.12783	1971603.3350903706
1.13062	2094166.464370413
1.13341	1047275.0296735242
1.1362	1945831.0182670928
1.13899	2833911.9134165295
1.14178	2449160.3506368427
1.14458	2962931.742101376
1.14738	3439510.946202303
1.15019	2069653.0931846178
1.153	740767.7316373063
1.1558	1011074.4800033956
1.15862	1128897.8425082501
1.16143	1245731.8239927264
1.16425	1995250.3080959234
1.16707	2857561.430872048
1.16989	2353659.593533684
1.17271	2742148.649332337
1.17554	3664392.726141889
1.17837	4335810.869339904
1.1812	4587187.018454419
1.18403	5232127.927793543
1.18686	5197019.062631269
1.1897	5208990.991540781
1.19253	5822458.918341022
1.19537	6119806.798348395
1.19822	6280648.061199457
1.20106	6480285.837942809
1.2039	6388885.911815313
1.20675	6602751.921644957
1.2096	6697480.566118219
1.21245	6694655.463900938
1.2153	6959884.601264539
1.21815	7108402.008788914
1.221	7215477.607417214
1.22385	7363151.086376347
1.22671	7518596.274579319
1.22957	7603163.84520625
1.23242	7616703.047545707
1.23528	7730243.729172549
1.23814	7867408.133030275
1.241	7954533.884104783
1.24387	8040235.716218448
1.24673	8108715.480963201
1.24959	8151141.019903984
1.25245	8156236.159124075
1.25532	8338502.935917966
1.25818	8449752.35166897
1.26105	8427340.276407115
1.26392	8454667.958999673
1.26678	8529356.404704263
1.26965	8540400.750648534
1.27252	8510037.861528521
1.27538	8695118.523272002
1.27825	8704121.047010917
1.28112	8548210.106418528
1.28399	8726012.835708573
1.28686	8598983.040649157
1.28973	8260785.608007247
1.2926	8081949.092466426
1.29546	8362147.39904724
1.29833	8549502.732382152
1.3012	8028803.818338958
1.30407	7973738.574809904
1.30694	7850414.319559675
1.30981	8122632.646637172
1.31267	7706122.3021759745
1.31554	8344929.51268367
1.31841	9003648.338700684
1.32128	8087908.7666933555
1.32414	6843341.783250951
1.32701	6567980.149716969
1.32987	5090677.8193868175
1.33274	2637630.314045738
1.3356	1609172.8596030094
1.33847	493637.8706805032
1.34133	135903.4151729358
1.34419	356131.8036844892
1.34705	492323.43630439014
1.34991	209495.48486546968
1.35277	77937.46941042392
1.35563	138386.0140071244
1.35849	142943.31889680467
1.36135	48742.25742154042
1.3642	130629.03632974409
1.36706	138893.93380887277
1.36991	102422.64077915567
1.37277	391547.42899524653
1.37562	897047.2813573652
1.37847	1065320.3700844895
1.38132	365346.54828726815
1.38417	30836.241654098303
1.38701	71773.042266773
1.38986	55494.895435707134
1.39271	72978.76330865422
1.39555	122702.8086786835
1.39839	103867.99127434
1.40123	236880.85408270016
1.40407	450062.8204764639
1.40691	636005.5971544656
1.40974	291983.5513556113
1.41258	72454.4938942556
1.41541	219226.75379241898
1.41824	278342.78231956036
1.42107	132025.85966206525
1.4239	87796.77441559228
1.42673	225095.95301173857
1.42955	399791.09127496905
1.43237	287727.20060436934
1.43519	594515.4433607853
1.43801	373660.40148272767
1.44083	464094.9455200265
1.44365	788563.0101319746
1.44646	925928.8600467683
1.44927	1979708.6440806831
1.45208	2614073.4356464706
1.45489	1947952.3688358595
1.45769	2497776.6095623057
1.4605	2906625.6750463294
1.4633	3089460.929141029
1.4661	3295780.9878914547
1.4689	2161223.2375339083
1.47169	2298927.429521256
1.47449	2109852.2661399515
1.47728	1999533.969762901
1.48007	2104189.792127917
1.48286	3402851.825291018
1.48564	4466695.407019205
1.48842	4537522.762060697
1.4912	4664081.603274155
1.49398	4368415.478210014
1.49676	3624356.777800861
1.49953	4583464.954003711
1.5023	5814803.196777452
1.50507	5798113.564130398
1.50784	5338451.934582727
1.51061	5685827.8449497055
1.51337	6249216.303913886
1.51613	7086480.18651564
1.51888	7953056.566706815
1.52164	9260147.773295831
1.52439	10132356.923861915
1.52714	9605379.88960737
1.52989	9377464.667256363
1.53263	10041665.98323016
1.53538	10748086.233326381
1.53812	10989235.16556087
1.54086	11075248.077012578
1.54359	11212252.99144436
1.54632	11891575.54305017
1.54905	11896253.834513864
1.55178	12476757.761036769
1.5545	12474453.171418194
1.55723	12059712.547783718
1.55995	12329241.854966994
1.56266	12816872.309000306
1.56538	13609469.834123248
1.56809	14013651.25674
1.5708	13911180.761284959
1.57351	13347655.338562945
1.57621	12866316.08465645
1.57891	11778095.737754302
1.58161	12627478.670753963
1.5843	14399292.775078127
1.587	14772409.579599611
1.58969	14653446.350983268
1.59238	14398532.743061708
1.59506	13919237.1780266
1.59774	13426111.522979721
1.60042	13090867.758691952
1.6031	13017602.083785826
1.60577	13155759.739413409
1.60844	13169232.833606983
1.61111	12851625.954345422
1.61378	12238140.44591523
1.61644	11766573.624820527
1.6191	11129192.62622153
1.62176	10255753.201519122
1.62441	9507107.609547975
1.62707	8872718.139124682
1.62971	7684149.558228754
1.63236	7155598.780823902
1.635	9358108.450221397
1.63764	12503801.171468837
1.64028	13516785.187525341
1.64292	13201653.841184083
1.64555	11641998.62448748
1.64818	9033704.813582618
1.65081	8870656.274302289
1.65343	10912670.743885938
1.65605	11626511.713013925
1.65867	11888895.033616154
1.66128	11433380.11433098
1.6639	9320452.696092572
1.66651	5367321.741746973
1.66911	4374168.889980697
1.67172	7581626.79414384
1.67432	10090756.589659052
1.67692	9804806.536319945
1.67951	8480558.913108228
1.68211	8605631.464506805
1.6847	8776028.828619463
1.68728	7825992.368307839
1.68987	7418938.286295463
1.69245	6745300.47816834
1.69503	4956388.930217136
1.6976	3965560.7998105558
1.70018	4868719.869362175
1.70275	4861188.692786966
1.70531	5306681.463802883
1.70788	6522921.906075313
1.71044	6485288.85406964
1.713	7273899.171052812
1.71556	7973924.020952351
1.71811	8483903.076559596
1.72066	9416087.164281888
1.72321	9190700.495085943
1.72575	8690882.132910514
1.7283	8386222.426720421
1.73084	7860932.678881822
1.73337	7196834.690146175
1.73591	6776814.281340078
1.73844	6798795.584442413
1.74097	7022600.995127741
1.74349	6601736.325961872
1.74602	5924934.976424387
1.74854	5615649.513225334
1.75105	5020501.421382701
1.75357	4140324.5021056505
1.75608	4991088.230812665
1.75859	6818409.163919536
1.7611	7354188.424339717
1.7636	6909989.587689113
1.7661	5303220.426347707
1.7686	4101255.4617307195
1.7711	2997978.15157461
1.77359	1975081.655053505
1.77608	1139205.5511808437
1.77857	784574.1159217592
1.78105	970710.5011284398
1.78354	1180711.238033268
1.78602	910668.1790691136
1.78849	646909.3967900153
1.79097	874250.3618924764
1.79344	1317544.4560515007
1.79591	2020679.5777797417
1.79837	2832591.771366303
1.80084	1726117.263365449
1.8033	585294.7341492983
1.80576	238755.85192467057
1.80821	161900.2292927943
1.81067	526532.3977873867
1.81312	825068.0627839544
1.81557	431502.5813030519
1.81801	221601.54860559647
1.82046	581339.2179976725
1.8229	880991.9339129615
1.82533	566436.9824716629
1.82777	170840.06973820808
1.8302	93465.40604910119
1.83263	196229.52466052127
1.83506	374657.17126515904
1.83749	660296.6771384741
1.83991	789667.70456276
1.84233	598613.2884546671
1.84475	544857.5362341871
1.84716	692455.1892059424
1.84957	1007754.5395600575
1.85198	1047748.5202868995
1.85439	526237.5817891489
1.8568	330517.13441394625
1.8592	429875.78680569713
1.8616	319939.5643052845
1.864	144500.68945818127
1.86639	101134.6884608118
1.86878	163776.72064370042
1.87118	335450.9910775318
1.87356	568606.8547176033
1.87595	780141.1864224953
1.87833	1486451.0117842313
1.88071	2582475.094873233
1.88309	2513520.527250193
1.88547	1816397.995076152
1.88784	1555474.2010088796
1.89021	1399487.3180717137
1.89258	2467359.805713213
1.89494	3379844.5881206365
1.89731	2111514.368760783
1.89967	682288.6925557137
1.90203	147383.8515789624
1.90439	110407.64370563523
1.90674	198917.72717085932
1.90909	218276.20574176454
1.91144	136764.71022759273
1.91379	60410.36019017243
1.91613	58774.28708739633
1.91848	118979.72402617963
1.92082	191879.36909154622
1.92315	190704.02918781468
1.92549	135324.76001681492
1.92782	157012.36391455424
1.93015	247072.32553975872
1.93248	333284.8965326154
1.93481	356639.78995241004
1.93713	315468.9687919102
1.93945	340304.48761126655
1.94177	472237.7919059142
1.94409	576826.3449409265
1.94641	636345.9733360631
1.94872	853200.292630716
1.95103	1083132.0750394599
1.95334	700161.7912439011
1.95564	448749.2228949648
1.95795	524669.8227230959
1.96025	548625.2660736898
1.96255	570610.0688521693
1.96484	727555.7338298516
1.96714	1136937.9729417935
1.96943	1704642.8097799572
1.97172	2047602.5171837178
1.97401	1839214.9541926906
1.97629	1936687.883000159
1.97858	2492756.15073824
1.98086	2891142.0758074014
1.98314	3354907.6269742795
1.98541	3639016.0822659694
1.98769	3326565.4369263025
1.98996	2553128.086697028
1.99223	2479317.820881272
1.9945	3104307.5875065573
1.99677	2931440.787480325
1.99903	2842781.23895504
2.00129	3541900.4235043363
2.00355	4598619.456414608
2.00581	5294760.76974189
2.00806	5671997.688204123
2.01031	6928521.806204688
2.01256	7404609.539830426
2.01481	6526322.009961005
2.01706	5551872.64804994
2.0193	5505179.122785719
2.02154	6476801.02788706
2.02378	7431357.3594865445
2.02602	7683412.701780599
2.02825	8322423.696236474
2.03049	9049131.587663323
2.03272	9624030.135459047
2.03494	10011117.624232573
2.03717	10402015.409203319
2.03939	11111228.582318515
2.04162	12176242.54168089
2.04384	13100126.23454391
2.04605	14025979.394238565
2.04827	14790840.56319478
2.05048	14679956.565672643
2.05269	13423118.405690001
2.0549	13035169.814824093
2.05711	13518618.871558595
2.05931	14362041.637395807
2.06151	15044382.286609462
2.06371	15560271.18330093
2.06591	15899489.695570264
2.06811	16131403.836330751
2.0703	16229251.043213468
2.07249	16143945.942981502
2.07468	15797245.592313252
2.07686	15698517.103578141
2.07905	15867093.204738086
2.08123	16042898.202779422
2.08341	16104527.438976739
2.08559	16087669.673797976
2.08776	16159413.21643014
2.08994	16086688.79222616
2.09211	15858723.250462327
2.09428	15581118.891131492
2.09645	15561584.66939214
2.09861	15491019.284282418
2.10077	15338668.449112454
2.10293	15115437.09853343
2.10509	14840277.093644217
2.10725	14548058.988775263
2.1094	14653855.751963524
2.11155	14746780.666267574
2.1137	14618646.23851639
2.11585	14072921.53411732
2.11799	13665187.22743392
2.12013	13450215.815085433
2.12227	13411620.144183075
2.12441	13513879.699219178
2.12655	13602391.718317173
2.12868	13569005.415932065
2.13081	13550930.17327981
2.13294	13531721.287360666
2.13507	13188183.675873496
2.13719	12577869.783619564
2.13931	12068131.380484523
2.14143	11630609.88682942
2.14355	10915498.832314033
2.14567	10522066.357085252
2.14778	10237266.107487822
2.14989	9929191.004258126
2.152	9350337.81286286
2.1541	9531060.580174234
2.15621	9791527.725480122
2.15831	9836385.02667624
2.16041	9074949.314466318
2.16251	8676514.08448892
2.1646	8435584.906952595
2.1667	8331379.851772166
2.16879	8517251.662897374
2.17087	8737112.815020815
2.17296	8893635.120818654
2.17504	8932262.409485873
2.17713	8745843.118143763
2.1792	8387159.842624742
2.18128	7920932.068502607
2.18336	7403804.717825188
2.18543	6894206.850345906
2.1875	6383887.879928019
2.18957	5820530.562853382
2.19163	4986552.169790413
2.1937	3870937.1310346043
2.19576	2784441.639270914
2.19782	1877416.1138943862
2.19987	1470712.2353982085
2.20193	1277574.8607753045
2.20398	1259641.671637354
2.20603	1356062.300772725
2.20808	1525594.1240394122
2.21012	1717535.1589442657
2.21217	1911155.3935618184
2.21421	1979363.1806411108
2.21625	1926333.9691803413
2.21828	1769660.494075772
2.22032	1676187.7950337345
2.22235	1619681.5012571756
2.22438	1549356.8145484028
2.22641	1358136.5414605935
2.22843	1139691.7868162948
2.23046	948430.6646289147
2.23248	829977.3628030393
2.2345	789997.847824371
2.23651	760383.3213449463
2.23853	731425.8287800326
2.24054	638723.4233794407
2.24255	530552.8186005367
2.24456	416845.37704483065
2.24657	424735.56910035183
2.24857	502891.88930683257
2.25057	619856.448298021
2.25257	670478.6457242954
2.25457	713732.4885916165
2.25656	752669.0840742975
2.25856	791468.6610356775
2.26055	743238.0731638053
2.26254	652983.4144342503
2.26453	555350.3207456099
2.26651	500267.8644522887
2.2685	481139.493883865
2.27048	532233.7902093673
2.27246	607249.9712398561
2.27443	677812.1382556848
2.27641	691002.8380525155
2.27838	658788.4218438279
2.28036	609071.9907178306
2.28233	576238.252428084
2.28429	550020.2061746789
2.28626	524657.9953900111
2.28823	484329.6081478635
2.29019	463588.88259316736
2.29215	458115.58305745554
2.29411	486297.3141696281
2.29607	509940.1349072236
2.29802	529705.0788221428
2.29998	549345.8025610069
2.30193	622760.0274559951
2.30388	757744.2054141562
2.30583	1054939.7449818254
2.30778	1357990.7196850334
2.30972	1644796.6432372662
2.31167	1636306.706539302
2.31361	1459675.206092835
2.31555	989955.101144368
2.31749	640814.1742963429
2.31943	381376.34623696824
2.32137	374901.50753758615
2.32331	382077.962600531
2.32524	400031.86691510375
2.32718	391118.84568054584
2.32911	384857.60273974325
2.33104	382964.5899457651
2.33297	375099.3539410773
2.3349	364743.75631128706
2.33683	350619.23873674666
2.33876	336702.6193681381
2.34068	322104.3545013633
2.34261	294444.26127974753
2.34453	269107.22391277255
2.34646	246121.46054363274
2.34838	261885.3874829857
2.3503	298414.79623426584
2.35223	376397.40595615003
2.35415	452042.3788241259
2.35607	525321.2493911022
2.35799	577273.1968990366
2.35991	628502.7160998906
2.36183	678860.3390680501
2.36375	650005.9637556408
2.36566	582473.5038051861
2.36758	430734.21878620866
2.3695	310730.2809471027
2.37142	211069.51437716637
2.37334	226275.85749869945
2.37526	251399.03809984744
2.37718	292047.9503669152
2.3791	335503.8006653491
2.38101	382131.6789574071
2.38293	447122.1681828232
2.38485	504976.63060122705
2.38677	555544.8340693003
2.3887	539019.2639282321
2.39062	513912.2683570622
2.39254	492829.4873484285
2.39446	500144.4812627573
2.39639	525796.086924673
2.39831	558628.1294931452
2.40024	575107.6475472606
2.40216	560296.0670885375
2.40409	578192.8182593662
2.40602	617703.3295732605
2.40795	754667.630318094
2.40989	875649.9766257874
2.41182	975585.7543004105
2.41376	1021569.2041417924
2.4157	1069783.1052857637
2.41764	1182256.3391589157
2.41958	1260141.8564691117
2.42152	1309904.6509664487
2.42347	1179496.4719814272
2.42542	1081851.433195007
2.42737	1105560.1865950313
