#wavelength	surface flux
0.8	47902.542526992984
0.8002000000000001	48295.59985617918
0.8004000500000003	48826.87302445084
0.8006001500125003	49359.67413450979
0.8008003000500035	49892.60844484629
0.8010005001250161	50425.67598876063
0.8012007502500472	50958.87679956017
0.8014010504376099	51350.15006779756
0.8016014007002193	51693.93511214322
0.8018018010503944	52037.806102749964
0.8020022515006572	52381.76306110452
0.8022027520635323	52725.80600869836
0.8024033027515483	53078.365307178705
0.8026039035772362	53439.274150275036
0.8028045545531306	53800.27322058216
0.8030052556917691	54161.362540657035
0.803206007005692	54522.54213306161
0.8034068085074435	54915.00260736597
0.8036076602095705	55394.99298733185
0.8038085621246229	55875.10336489233
0.8040095142651542	56355.33377004751
0.8042105166437206	56835.68423280381
0.8044115692728815	57314.380939358365
0.8046126721651998	57716.90117221879
0.8048138253332411	58119.52203513712
0.8050150287895745	58522.243553271546
0.805216282546772	58925.0657517854
0.8054175866174087	59327.98865584867
0.8056189410140631	59716.10415481649
0.8058203457493168	60100.096713302824
0.8060218008357541	60484.185269928304
0.8062233062859632	60868.369848693124
0.8064248621125346	61252.65047360238
0.806626468328063	61699.69805202277
0.8068281249451449	62200.684099578735
0.8070298319763813	62701.795393647204
0.8072315894343755	63203.031965538816
0.8074333973317341	63704.393846573585
0.8076352556810671	64074.44598694155
0.8078371644949874	64128.20445281718
0.8080391237861113	64181.97635830929
0.8082411335670578	64235.76170677774
0.8084431938504498	64289.560501583364
0.8086453046489125	64332.32951789613
0.8088474659750746	64169.5041024284
0.8090496778415686	64006.63798060659
0.809251940261029	63843.73114225444
0.8094542532460944	63680.78357719257
0.8096566168094059	63517.79527523961
0.8098590309636085	63435.989433904026
0.8100614957213493	63373.17409607919
0.8102640110952797	63310.343054419885
0.8104665770980536	63247.496305000146
0.8106691937423283	63184.633843893025
0.8108718610407639	63203.873808006814
0.8110745790060241	63285.910014327994
0.8112773476507757	63367.966729700835
0.8114801669876885	63450.04395925249
0.8116830370294355	63532.14170811149
0.8118859577886929	63511.606047415386
0.8120889292781401	63277.848543066524
0.8122919515104597	63044.0325993416
0.8124950244983374	62810.15820163073
0.8126981482544621	62576.225335320465
0.8129013227915257	62369.06073374337
0.8131045481222237	62469.01470643853
0.8133078242592543	62568.993667626884
0.8135111512153191	62668.9976235555
0.813714529003123	62769.02658047311
0.8139179576353739	62869.08054462997
0.8141214371247829	64808.83161963989
0.8143249674840641	67105.81099504973
0.814528548725935	69403.36461530204
0.8147321808631167	71701.49262396252
0.8149358639083326	74000.19516462446
0.8151395978743097	75402.45827199942
0.8153433827737784	76199.01157769952
0.8155472186194719	76995.76402172579
0.8157511054241268	77792.71565386289
0.815955043200483	78589.86652390857
0.8161590319612831	79215.4122648701
0.8163630717192736	79526.30374057434
0.8165671624872033	79837.27293914717
0.8167713042778252	80148.31988001993
0.8169754971038948	80459.44458262807
0.8171797409781707	80685.07030798384
0.8173840359134155	80227.56667332396
0.8175883819223938	79769.94866275594
0.8177927790178745	79312.21624768502
0.8179972272126291	78854.36939951021
0.8182017265194322	78396.40808962382
0.8184062769510622	79658.33325660453
0.8186108785203001	81185.25659643707
0.8188155312399301	82712.56166710252
0.8190202351227402	84240.24856403733
0.819224990181521	85768.31738269542
0.8194297964290664	86485.46293576142
0.8196346538781738	86713.77495510831
0.8198395625416434	86942.14405245996
0.8200445224322789	87170.57024208603
0.820249533562887	87399.05353825945
0.8204545959462778	87735.22824177462
0.8206597095952644	88244.72146737161
0.8208648745226633	88754.34206627539
0.8210700907412941	89264.09007032882
0.8212753582639793	89773.96551138275
0.8214806771035456	89955.39219235312
0.8216860472728215	88112.4343403992
0.8218914687846397	86269.0157489822
0.822096941651836	84425.13630291639
0.822302465887249	82580.79588699013
0.8225080415037209	80735.99438595891
0.8227136685140968	81442.74427645783
0.8229193469312254	82439.37762041409
0.8231250767679583	83436.26012270666
0.8233308580371503	84433.39184562427
0.8235366907516598	85430.77285147335
0.8237425749243477	86762.800796595
0.8239485105680789	88272.39835204965
0.824154497695721	89782.37330689222
0.824360536320145	91292.72575547377
0.8245666264542252	92803.45579216741
0.8247727681108388	93968.95423575006
0.8249789613028664	94639.76652318021
0.8251852060431922	95310.74651368281
0.825391502344703	95981.89424918272
0.8255978502202894	96653.20977161713
0.8258042496828445	97308.46748008147
0.8260107007452654	97885.0880257988
0.8262172034204517	98461.852726652
0.8264237577213068	99038.76161868055
0.8266303636607373	99615.81473793236
0.8268370212516525	100193.0121204637
0.8270437305069654	99488.95348356587
0.8272504914395923	98684.58572510516
0.8274573040624523	97880.01687470466
0.8276641683884679	97075.24688209225
0.8278710844305652	96270.27569698072
0.8280780522016729	96488.05606697271
0.8282850717147234	97173.48071163552
0.8284921429826521	97859.07671245879
0.8286992660183978	98544.8441122828
0.8289064408349024	99230.78295395628
0.8291136674451112	99422.2436527737
0.8293209458619727	98990.02382297572
0.8295282760984382	98557.69593822086
0.829735658167463	98125.2599714943
0.8299430920820048	97692.71589577664
0.8301505778550254	97252.54936079463
0.8303581154994891	96782.28091963075
0.8305657050283641	96311.8949113561
0.8307733464546212	95841.39130657975
0.8309810397912352	95370.77007590144
0.8311887850511829	94900.0311899164
0.8313965822474458	96973.94689439441
0.8316044313930077	99166.4974202958
0.8318123325008561	101359.59608383071
0.8320202855839813	103553.24302203044
0.8322282906553774	105747.43837196489
0.8324363477280413	106373.04214926758
0.8326444568149735	106367.07205032432
0.8328526179291771	106361.10045885634
0.8330608310836596	106355.12737449049
0.8332690962914304	106349.15279685354
0.8334774135655034	106208.98724048452
0.833685782918895	105918.89258119916
0.8338942043646247	105628.72539824915
0.834102677915716	105338.48567350321
0.834311203585195	105048.1733888263
0.8345197813860912	105255.92160342376
0.8347284113314379	107140.48427685317
0.8349370934342709	109025.51809094986
0.8351458277076294	110911.0231634978
0.8353546141645565	112796.99961231701
0.8355634528180977	114683.44755524764
0.8357723436813022	112036.3939554624
0.8359812867672226	109332.69557643465
0.8361902820889144	106628.32127281351
0.8363993296594368	103923.27087561566
0.8366084294918518	101217.54421581759
0.8368175815992247	101697.33315428952
0.8370267859946247	103274.59930096984
0.8372360426911234	104852.25976418634
0.8374453517017962	106430.31464251848
0.8376547130397217	108008.76403457
0.8378641267179816	108983.95050054607
0.8380735927496613	109360.39556372786
0.8382831111478488	109736.93473817523
0.8384926819256358	110113.568047416
0.8387023050961173	110490.2955149844
0.8389119806723914	110811.21304185843
0.8391217086675596	110974.87832998145
0.8393314890947265	111138.58453442638
0.8395413219670003	111302.33166542245
0.8397512072974922	111466.11973320137
0.8399611450993165	111668.38786368196
0.8401711353855914	113779.57930872202
0.8403811781694378	115891.29855162278
0.8405912734639802	118003.54572433478
0.8408014212823464	120116.32095884095
0.8410116216376671	122229.62438715548
0.8412218745430766	123973.06901190868
0.8414321800117124	125609.18113590246
0.8416425380567154	127245.70228792803
0.8418529486912297	128882.63257024199
0.8420634119284025	130519.97208512515
0.8422739277813847	131457.29080426836
0.8424844962633302	131777.73772871407
0.842695117387396	132098.26476489048
0.8429057911667428	132418.87193282595
0.8431165176145345	132739.55925255356
0.8433272967439382	133000.3555065067
0.8435381285681244	133114.93048097286
0.8437490131002665	133229.53409918267
0.8439599503535415	133344.16636829692
0.84417094034113	133458.82729547855
0.8443819830762154	133600.01017038102
0.8445930785719846	134274.93778158468
0.8448042268416277	134950.03412469075
0.8450154278983382	135625.29924188252
0.8452266817553128	136300.73317535353
0.8454379884257517	136976.335967308
0.8456493479228583	137815.49104137774
0.845860760259839	138694.20058607525
0.846072225449904	139573.12980815893
0.8462837435062666	140452.27876254832
0.8464953144421433	141331.64750417683
0.8467069382707537	141905.87533945194
0.8469186150053215	142242.2274063744
0.847130344659073	142578.6635613137
0.8473421272452377	142915.18382529143
0.8475539627770492	143251.78821933546
0.8477658512677435	143683.82313530907
0.8479777927305605	144318.42152306213
0.8481897871787432	144953.178560412
0.848401834625538	145588.09428702155
0.8486139350841944	146223.16874256235
0.8488260885679657	146829.16697874616
0.8490382950901076	147078.9525895812
0.8492505546638802	147328.80064681906
0.8494628673025462	147578.71116607115
0.8496752330193721	147828.6841629534
0.8498876518276269	148078.71965308455
0.8501001237405839	147214.98458804435
0.8503126487715191	146128.69294758423
0.850525226933712	145042.1297342146
0.8507378582404455	143955.29488004165
0.8509505427050057	142868.18831715453
0.8511632803406821	142262.28155215102
0.8513760711607672	141985.9431734824
0.8515889151785576	141709.5357102187
0.8518018124073523	141433.0591450894
0.8520147628604541	141156.51346081903
0.8522277665511693	141580.16982429012
0.8524408234928071	143298.99901027905
0.8526539336986805	145018.25790356498
0.8528670971821053	146737.94661157433
0.8530803139564007	148458.06524175862
0.8532935840348901	150171.04704897248
0.8535069074308987	151820.5511644976
0.8537202841577566	153470.467656053
0.8539337142287962	155120.79662673143
0.8541471976573534	156771.53817965154
0.8543607344567677	158422.69241796015
0.8545743246403821	159385.6059339266
0.8547879682215422	160239.3941298241
0.8550016652135977	161093.39577277045
0.8552154156299011	161947.6109161276
0.8554292194838088	162802.0396132712
0.8556430767886797	163427.81131086897
0.855856987557877	163914.77526382238
0.8560709518047664	164401.8609577637
0.8562849695427177	164889.06842312872
0.8564990407851035	165376.3976903602
0.8567131655452999	165846.4931657182
0.8569273438366862	166288.26839550273
0.8571415756726455	166730.15406909477
0.8573558610665638	167172.15021410538
0.8575702000318304	167614.25685815176
0.8577845925818384	168072.90615967242
0.857999038729984	168634.31126622536
0.8582135384896665	169195.85672405479
0.858428091874289	169757.5425682487
0.8586426988972576	170319.3688339035
0.8588573595719821	170881.33555612495
0.8590720739118751	171261.91138494154
0.8592868419303532	171621.179265
0.8595016636408359	171980.53696202848
0.8597165390567462	172339.9844984811
0.8599314681915105	172699.5218968179
0.8601464510585584	173035.75174640166
0.860361487671323	173359.64645928654
0.8605765780432408	173683.6221458495
0.8607917221877518	174007.67882633442
0.8610069201182988	174331.81652098935
0.8612221718483286	174531.04029529178
0.8614374773912907	174550.11673264691
0.8616528367606385	174569.1979391114
0.8618682499698288	174588.2839158775
0.8620837170323213	174607.37466413778
0.8622992379615795	174731.68275314846
0.8625148127710699	175376.67860963743
0.8627304414742627	176021.83571509056
0.8629461240846313	176667.15410982017
0.8631618606156526	177312.6338341485
0.8633776510808066	177958.2749284078
0.8635934954935769	178472.58480011692
0.8638093938674504	178976.24456035893
0.8640253462159173	179480.030235541
0.8642413525524714	179983.94185714182
0.8644574128906095	180487.97945664797
0.8646735272438323	180910.82417156684
0.8648896956256433	181295.95905872068
0.8651059180495498	181681.19022959634
0.8653221945290621	182066.51770826432
0.8655385250776946	182451.94151880255
0.8657549097089641	183055.21430940944
0.8659713484363913	183937.40914463394
0.8661878412735006	184819.82452856767
0.866404388233819	185702.46051634723
0.8666209893308775	186585.31716312337
0.8668376445782103	187386.54276061032
0.8670543539893549	187853.89006658483
0.8672711175778525	188321.35420938616
0.8674879353572469	188788.93521822267
0.8677048073410862	189256.63312231158
0.8679217335429217	189724.44795087678
0.8681387139763074	190050.98037883535
0.8683557486548015	190370.57008022533
0.8685728375919655	190690.23967904103
0.8687899808013633	191009.98919525577
0.8690071782965637	191329.81864884996
0.869224430091138	192121.0796297904
0.8694417361986609	193104.3307839454
0.8696590966327107	194087.8277508887
0.869876511406869	195071.57059207384
0.8700939805347206	196055.55936896877
0.8703115040298544	197001.52979763073
0.870529081905862	197903.98950261401
0.8707467141763385	198806.67482252323
0.8709644008548827	199709.5858137624
0.8711821419550964	200612.72253274883
0.8713999374905854	201421.22656419023
0.871617787474958	201902.54322351408
0.8718356919218269	202383.98021200317
0.8720536508448075	202865.5375597394
0.8722716642575187	203347.2152968123
0.8724897321735832	203829.01345331967
0.8727078546066265	204200.62793539895
0.8729260315702784	204570.6572335334
0.873144263078171	204940.77903899192
0.8733625491439405	205310.99337490188
0.8735808897812266	205681.30026439598
0.8737992850036719	205747.57840755032
0.874017734824923	205706.1583482093
0.8742362392586293	205664.72793385352
0.874454798318444	205623.2871618941
0.8746734120180236	205581.8360297417
0.8748920803710283	205651.8636280562
0.875110803391121	205833.9446485554
0.8753295810919689	206016.07118930985
0.875548413487242	206198.24326169948
0.8757673005906139	206380.4608771072
0.8759862424157616	206744.98100344604
0.8762052389763657	207636.9613647287
0.8764242902861098	208529.16472110106
0.8766433963586814	209421.59112831275
0.8768625572077712	210314.24064212653
0.8770817728470732	211198.9954934963
0.8773010432902849	211450.1522546298
0.8775203685511077	211701.3718049539
0.8777397486432454	211952.65416016532
0.8779591835804065	212203.9993359658
0.8781786733763015	212455.40734805996
0.8783982180446457	212348.6022587602
0.878617817599157	212135.19006874313
0.8788374720535569	211921.72452567867
0.8790571814215703	211708.20561622852
0.8792769457169257	211494.63332705095
0.879496764953355	210538.44462477232
0.8797166391445934	208914.40394789705
0.8799365683043796	207289.95726085245
0.8801565524464557	205665.1044621361
0.8803765915845676	204039.84545021856
0.8805966857324639	203193.7527977805
0.880816834903897	204305.50147353348
0.881037039112623	205417.52808645583
0.8812572983724012	206529.8327060313
0.8814776126969944	207642.41540176218
0.8816979821001687	208645.45052649212
0.8819184065956938	207063.42055372742
0.8821388861973429	205480.99507346796
0.8823594209188923	203898.17398683992
0.882580010774122	202314.95719494094
0.8828006557768155	200731.34459884313
0.8830213559407598	200288.74111806226
0.8832421112797452	200133.101934634
0.8834629218075651	199977.42384140997
0.8836837875380171	199821.7068286626
0.8839047084849018	199665.950886662
0.884125684662023	200310.64106732962
0.8843467160831886	201596.9789637508
0.8845678027622095	202883.63844464606
0.8847889447129001	204170.61959041178
0.8850101419490785	205457.92248146373
0.8852313944845657	206279.85279503424
0.885452702333187	206082.64066030088
0.8856740655087704	205885.3792225338
0.8858954840251476	205688.0684694074
0.8861169578961539	205490.7083885928
0.886338487135628	205116.90848826076
0.886560071757412	202395.7152670508
0.8867817117753515	199673.84174753563
0.8870034072032955	196951.28775963932
0.8872251580550963	194228.05313324925
0.8874469643446101	191504.13769820088
0.8876688260856963	192465.86811570474
0.8878907432922178	194190.77154661066
0.8881127159780409	195916.10620337317
0.8883347441570356	197641.87219380197
0.8885568278430749	199368.06962572655
0.8887789670500358	201069.80608927165
0.8890011617917983	202754.30989089998
0.8892234120822464	204439.23481847945
0.8894457179352669	206124.5809772895
0.8896680793647509	207810.34847264056
0.8898904963845921	208364.7849000736
0.8901129690086883	206759.94635693025
0.8903354972509405	205154.70660415152
0.8905580811252535	203549.06554143332
0.8907807206455347	201943.02306845164
0.8910034158256963	200274.20865271072
0.8912261666796527	198047.57473495448
0.8914489732213227	195820.38415871817
0.8916718354646282	193592.6367848356
0.8918947534234944	191364.33247411175
0.8921177271118502	189135.47108731157
0.8923407565436284	185913.04626559903
0.8925638417327644	182527.82952216297
0.8927869826931977	179141.7664745399
0.8930101794388711	175754.85691115516
0.8932334319837308	172367.10062038014
0.8934567403417267	168470.35334171564
0.8936801045268123	164256.88016608416
0.8939035245529441	160042.3536221616
0.8941270004340824	155826.77344660144
0.894350532184191	151610.13937599843
0.8945741198172371	151848.36257552344
0.8947977633471915	159476.24291756295
0.8950214627880284	167106.0302296877
0.8952452181537254	174737.7249886359
0.8954690294582639	182371.32767127844
0.8956928967156286	188974.47377567142
0.8959168199398075	188879.58971107882
0.8961407991447926	188784.68192547007
0.8963648343445789	188689.75041291493
0.896588925553165	188594.7951674817
0.8968130727845534	188499.8161832371
0.8970372760527496	188083.57620004323
0.8972615353717629	187627.03890722807
0.8974858507556059	187170.38748008962
0.8977102222182949	186713.62189009454
0.8979346497738496	186256.7421087017
0.8981591334362931	191879.06301515028
0.8983836732196523	200827.42387864823
0.8986082691379572	209778.02183235614
0.8988329212052417	218730.85743555252
0.8990576294355432	227685.9312476574
0.8992823938429022	233777.19939146657
0.8995072144413631	235608.54649332826
0.8997320912449734	237440.3514319648
0.8999570242677847	239272.61432183554
0.9001820135238516	241105.3352774289
0.9004070590272328	242592.07888909994
0.9006321607919896	242263.0609779596
0.9008573188321878	241933.96081234113
0.9010825331618959	241604.77837168143
0.9013078037951865	241275.5136354115
0.9015331307461353	240946.1665829577
0.9017585140288219	240917.54761547517
0.9019839536573292	240914.83107457447
0.9022094496457435	240912.11385453856
0.9024350020081551	240909.39595519763
0.9026606107586572	240906.67737638188
0.902886275911347	244389.65808008882
0.9031119974803249	249553.85953789865
0.9033377754796951	254719.35204607304
0.903563609923565	259886.13592737215
0.903789500826046	265054.21150464506
0.9040154482012526	268296.4122756386
0.904241452063303	269042.9472448127
0.9044675124263188	269789.66884772887
0.9046936293044254	270536.5771310457
0.9049198027117517	271283.6721414337
0.9051460326624297	271868.5861404672
0.9053723191705955	271762.24656642915
0.9055986622503881	271655.88040749764
0.9058250619159507	271549.48765702645
0.9060515181814298	271443.06830836757
0.9062780310609752	271336.62235487154
0.9065046005687405	264376.7017091817
0.906731226718883	257032.70747724283
0.9069579095255627	249686.87724675558
0.907184649002944	242339.21055871013
0.907411445165195	234989.7069539852
0.9076382980264862	238697.41971789452
0.907865207600993	246998.8639477664
0.9080921739028933	255302.38353869334
0.9083191969463691	263607.97900951665
0.9085462767456058	271915.6508792117
0.9087734133147922	276482.48586138146
0.9090006066681211	276727.3507126641
0.909227856819788	276972.27678015927
0.9094551637839932	277217.2640791716
0.9096825275749393	277462.31262500864
0.9099099482068329	278143.1242390681
0.9101374256938848	280372.59782976744
0.9103649600503083	282602.62878886337
0.9105925512903209	284833.21725569863
0.9108201994281437	287064.36336965294
0.9110479044780008	289296.06727013324
0.9112756664541204	291326.4895421231
0.911503485370734	293352.7993478622
0.9117313612420768	295379.61573105276
0.9119592940823873	297406.9388183385
0.912187283905908	299434.76873639674
0.9124153307268845	294372.58364887995
0.9126434345595664	286735.6879946358
0.9128715954182063	279096.88311648526
0.9130998133170609	271456.16853711137
0.9133280882703902	263813.5437790931
0.913556420292458	261830.86186414494
0.9137848093975312	265686.837392023
0.9140132555998806	269543.7769137825
