#wavelength	surface flux
0.8	385567.7785696679
0.8002000000000001	390917.50321491965
0.8004000500000003	397375.80640244304
0.8006001500125003	403846.9083911715
0.8008003000500035	410319.62815539754
0.8010005001250161	416793.9660995677
0.8012007502500472	423269.92262821447
0.8014010504376099	428678.79623100255
0.8016014007002193	433731.0395607041
0.8018018010503944	438784.54595123796
0.8020022515006572	443839.3157183717
0.8022027520635323	448895.34917794296
0.8024033027515483	454203.1270956261
0.8026039035772362	459757.6930365803
0.8028045545531306	465313.64761902
0.8030052556917691	470870.99119010806
0.803206007005692	476429.7240970839
0.8034068085074435	482317.2229959809
0.8036076602095705	489123.877583918
0.8038085621246229	495932.2338354967
0.8040095142651542	502742.2921761425
0.8042105166437206	509554.0530313712
0.8044115692728815	516345.37186398654
0.8046126721651998	522185.8946585717
0.8048138253332411	528027.8775838509
0.8050150287895745	533871.3210048667
0.805216282546772	539716.2252867363
0.8054175866174087	545562.5907946732
0.8056189410140631	551527.160079717
0.8058203457493168	557526.2661173723
0.8060218008357541	563526.8719315294
0.8062233062859632	569528.977897143
0.8064248621125346	575532.5843892439
0.806626468328063	582503.8765804232
0.8068281249451449	590306.7474522172
0.8070298319763813	598111.5690417385
0.8072315894343755	605918.3418366514
0.8074333973317341	613727.066324766
0.8076352556810671	619859.7478501177
0.8078371644949874	621954.7480403301
0.8080391237861113	624050.2719805907
0.8082411335670578	626146.3198018349
0.8084431938504498	628242.8916350367
0.8086453046489125	630249.7790451866
0.8088474659750746	630577.6462945017
0.8090496778415686	630905.5955106296
0.809251940261029	631233.6267140612
0.8094542532460944	631561.739925294
0.8096566168094059	631889.9351648293
0.8098590309636085	633352.399567407
0.8100614957213493	635080.6953411286
0.8102640110952797	636809.4231887938
0.8104665770980536	638538.5832184217
0.8106691937423283	640268.1755380576
0.8108718610407639	643249.1974065985
0.8110745790060241	647187.5363915744
0.8112773476507757	651126.8599613002
0.8114801669876885	655067.1683619171
0.8116830370294355	659008.4618396321
0.8118859577886929	661946.5505899967
0.8120889292781401	662799.6272161327
0.8122919515104597	663652.9171114251
0.8124950244983374	664506.4203291914
0.8126981482544621	665360.136922762
0.8129013227915257	666443.0064382477
0.8131045481222237	670147.5388646303
0.8133078242592543	673852.9974241199
0.8135111512153191	677559.3823482483
0.813714529003123	681266.6938686081
0.8139179576353739	684974.9322168487
0.8141214371247829	710990.4998441519
0.8143249674840641	741338.1579433759
0.814528548725935	771693.4029571064
0.8147321808631167	802056.2367821314
0.8149358639083326	832426.6613156033
0.8151395978743097	852171.4841249273
0.8153433827737784	864737.0109200886
0.8155472186194719	877305.6790969442
0.8157511054241268	889877.4894408416
0.815955043200483	902452.4427373336
0.8161590319612831	913108.7886647093
0.8163630717192736	920246.4240260052
0.8165671624872033	927385.8437961335
0.8167713042778252	934527.0484212114
0.8169754971038948	941670.0383474492
0.8171797409781707	947636.0822313752
0.8173840359134155	944193.4366842194
0.8175883819223938	940749.9304756809
0.8177927790178745	937305.563390588
0.8179972272126291	933860.3352137232
0.8182017265194322	930414.2457298175
0.8184062769510622	945414.8347912725
0.8186108785203001	963257.9773791301
0.8188155312399301	981105.5807526105
0.8190202351227402	998957.6460269542
0.819224990181521	1016814.1743176052
0.8194297964290664	1031594.2345575878
0.8196346538781738	1044520.9634044564
0.8198395625416434	1057450.9239335316
0.8200445224322789	1070384.1169527445
0.820249533562887	1083320.5432702084
0.8204545959462778	1095751.630587703
0.8206597095952644	1107367.2909916993
0.8208648745226633	1118985.8553108056
0.8210700907412941	1130607.32427099
0.8212753582639793	1142231.6985984023
0.8214806771035456	1148777.0947759587
0.8216860472728215	1124013.528873217
0.8218914687846397	1099243.7720789986
0.822096941651836	1074467.8228455689
0.822302465887249	1049685.679624845
0.8225080415037209	1024897.3408683027
0.8227136685140968	1039837.585997239
0.8229193469312254	1059292.2942804534
0.8231250767679583	1078751.866240745
0.8233308580371503	1098216.303094016
0.8235366907516598	1117685.6060565147
0.8237425749243477	1141911.3883527843
0.8239485105680789	1168661.6649894742
0.824154497695721	1195418.6291953062
0.824360536320145	1222182.2826421948
0.8245666264542252	1248952.6270024437
0.8247727681108388	1271994.3913399002
0.8249789613028664	1289692.3027165567
0.8251852060431922	1307394.6385710726
0.825391502344703	1325101.4000095443
0.8255978502202894	1342812.5881383915
0.8258042496828445	1359204.004067844
0.8260107007452654	1369168.4473133595
0.8262172034204517	1379135.381669676
0.8264237577213068	1389104.8077595844
0.8266303636607373	1399076.7262060195
0.8268370212516525	1409051.1376320615
0.8270437305069654	1400938.4061900908
0.8272504914395923	1391410.0590422624
0.8274573040624523	1381879.3298076445
0.8276641683884679	1372346.2178907264
0.8278710844305652	1362810.7226958177
0.8280780522016729	1369550.8179743595
0.8282850717147234	1383733.2302067003
0.8284921429826521	1397919.1880420847
0.8286992660183978	1412108.692366939
0.8289064408349024	1426301.7440678647
0.8291136674451112	1433172.2273607536
0.8293209458619727	1430806.5622593274
0.8295282760984382	1428440.305741629
0.829735658167463	1426073.4576597987
0.8299430920820048	1423706.017865951
0.8301505778550254	1422152.6163208287
0.8303581154994891	1423850.2537435459
0.8305657050283641	1425548.3155756202
0.8307733464546212	1427246.8019231511
0.8309810397912352	1428945.712892272
0.8311887850511829	1430645.0485891316
0.8313965822474458	1468898.6367690945
0.8316044313930077	1508858.4448478557
0.8318123325008561	1548828.242878674
0.8320202855839813	1588808.0333589804
0.8322282906553774	1628797.8187869103
0.8324363477280413	1641858.8024732862
0.8326444568149735	1644077.5858889571
0.8328526179291771	1646296.924000479
0.8330608310836596	1648516.8169465326
0.8332690962914304	1650737.2648658194
0.8334774135655034	1650759.536165763
0.833685782918895	1648325.7574849024
0.8338942043646247	1645891.3703593733
0.834102677915716	1643456.3746370608
0.834311203585195	1641020.77016582
0.8345197813860912	1648107.2965240153
0.8347284113314379	1687250.0269757726
0.8349370934342709	1726402.5431101206
0.8351458277076294	1765564.8473734546
0.8353546141645565	1804736.94221292
0.8355634528180977	1843918.8300760784
0.8357723436813022	1797958.7375029456
0.8359812867672226	1750935.7474419535
0.8361902820889144	1703901.0016334697
0.8363993296594368	1656854.49713852
0.8366084294918518	1609796.2310174303
0.8368175815992247	1623955.4123578556
0.8370267859946247	1659206.1030106533
0.8372360426911234	1694465.6063361033
0.8374453517017962	1729733.924537381
0.8376547130397217	1765011.0598182045
0.8378641267179816	1786203.421638333
0.8380735927496613	1793416.5739048372
0.8382831111478488	1800631.5294594038
0.8384926819256358	1807848.288752855
0.8387023050961173	1815066.852236136
0.8389119806723914	1822157.7393110406
0.8391217086675596	1828885.997125888
0.8393314890947265	1835615.937005184
0.8395413219670003	1842347.5593694504
0.8397512072974922	1849080.8646393127
0.8399611450993165	1856689.6418812308
0.8401711353855914	1907692.3531902828
0.8403811781694378	1958707.8151771487
0.8405912734639802	2009736.0310295238
0.8408014212823464	2060777.003935886
0.8410116216376671	2111830.7370854686
0.8412218745430766	2157803.5435048905
0.8414321800117124	2202305.7758470476
0.8416425380567154	2246819.1337473113
0.8418529486912297	2291343.619987061
0.8420634119284025	2335879.237348333
0.8422739277813847	2363533.5257910206
0.8424844962633302	2376311.8125682445
0.842695117387396	2389093.2939171465
0.8429057911667428	2401877.970636386
0.8431165176145345	2414665.843524812
0.8433272967439382	2424307.1900002253
0.8435381285681244	2426267.8980666604
0.8437490131002665	2428229.096310111
0.8439599503535415	2430190.784853122
0.84417094034113	2432152.9638182702
0.8443819830762154	2435112.6055024886
0.8445930785719846	2458157.076777485
0.8448042268416277	2481207.3091702876
0.8450154278983382	2504263.304121186
0.8452266817553128	2527325.0630708197
0.8454379884257517	2550392.587460194
0.8456493479228583	2577460.362132887
0.845860760259839	2605496.8233599723
0.846072225449904	2633540.2937023644
0.8462837435062666	2661590.774912348
0.8464953144421433	2689648.26874265
0.8467069382707537	2707746.1600892353
0.8469186150053215	2718079.9041611105
0.847130344659073	2728416.231669007
0.8473421272452377	2738755.14325877
0.8475539627770492	2749096.6395764407
0.8477658512677435	2761453.646735981
0.8479777927305605	2778087.9253119384
0.8481897871787432	2794726.3624575357
0.848401834625538	2811368.9592124284
0.8486139350841944	2828015.7166164997
0.8488260885679657	2842568.814014398
0.8490382950901076	2831553.847948079
0.8492505546638802	2820536.128140237
0.8494628673025462	2809515.653902448
0.8496752330193721	2798492.424546083
0.8498876518276269	2787466.4393823934
0.8501001237405839	2673759.4905006005
0.8503126487715191	2539527.7413993003
0.850525226933712	2405262.4343607994
0.8507378582404455	2270963.5609955397
0.8509505427050057	2136631.1129118614
0.8511632803406821	2054275.4117641482
0.8513760711607672	2007516.673810026
0.8515889151785576	1960746.2461713424
0.8518018124073523	1913964.1259257884
0.8520147628604541	1867170.3101502007
0.8522277665511693	1873698.9118284
0.8524408234928071	1978864.1461603416
0.8526539336986805	2084055.6718008942
0.8528670971821053	2189273.4953228636
0.8530803139564007	2294517.6233005896
0.8532935840348901	2404967.1377210105
0.8535069074308987	2559184.202874088
0.8537202841577566	2713439.8222935842
0.8539337142287962	2867734.005617952
0.8541471976573534	3022066.7624880546
0.8543607344567677	3176438.102547403
0.8545743246403821	3245603.7989010913
0.8547879682215422	3301249.0276232394
0.8550016652135977	3356908.167652561
0.8552154156299011	3412581.2224668926
0.8554292194838088	3468268.1955449684
0.8556430767886797	3507234.2278323257
0.855856987557877	3536049.03509107
0.8560709518047664	3564871.0460516103
0.8562849695427177	3593700.262514902
0.8564990407851035	3622536.6862823176
0.8567131655452999	3649301.1330381124
0.8569273438366862	3672665.455063602
0.8571415756726455	3696035.6181696025
0.8573558610665638	3719411.6238163877
0.8575702000318304	3742793.4734645593
0.8577845925818384	3767548.6703425734
0.857999038729984	3800851.975851041
0.8582135384896665	3834163.607185878
0.858428091874289	3867483.56642855
0.8586426988972576	3900811.8556610243
0.8588573595719821	3934148.476965818
0.8590720739118751	3950388.5491644815
0.8592868419303532	3964615.9645354603
0.8595016636408359	3978846.936760282
0.8597165390567462	3993081.466728155
0.8599314681915105	4007319.5553285237
0.8601464510585584	4013499.337138368
0.860361487671323	4015401.4815320433
0.8605765780432408	4017304.101461817
0.8607917221877518	4019207.197046574
0.8610069201182988	4021110.7684052275
0.8612221718483286	3992444.3506360417
0.8614374773912907	3919699.3038308155
0.8616528367606385	3846936.0707639074
0.8618682499698288	3774154.6468886863
0.8620837170323213	3701355.027657509
0.8622992379615795	3643373.2004789803
0.8625148127710699	3658794.5180969564
0.8627304414742627	3674219.6910443385
0.8629461240846313	3689648.7202849598
0.8631618606156526	3705081.6067828927
0.8633776510808066	3720518.3515024474
0.8635934954935769	3793360.335848665
0.8638093938674504	3870925.8256638637
0.8640253462159173	3948510.706851513
0.8642413525524714	4026114.9842594583
0.8644574128906095	4103738.6627367386
0.8646735272438323	4118749.2763558547
0.8648896956256433	4104637.808253323
0.8651059180495498	4090522.8122837655
0.8653221945290621	4076404.2875652285
0.8655385250776946	4062282.233215492
0.8657549097089641	4082113.6637619655
0.8659713484363913	4145422.496504092
0.8661878412735006	4208747.156454434
0.866404388233819	4272087.647569754
0.8666209893308775	4335443.973807824
0.8668376445782103	4389621.462777012
0.8670543539893549	4406284.354342411
0.8672711175778525	4422951.411630713
0.8674879353572469	4439622.6356833195
0.8677048073410862	4456298.027541945
0.8679217335429217	4472977.588248544
0.8681387139763074	4502614.9961041985
0.8683557486548015	4532903.318995641
0.8685728375919655	4563199.213967844
0.8687899808013633	4593502.682913723
0.8690071782965637	4623813.7277268795
0.869224430091138	4650680.077878743
0.8694417361986609	4676148.419333591
0.8696590966327107	4701623.127873796
0.869876511406869	4727104.205091137
0.8700939805347206	4752591.652577772
0.8703115040298544	4780947.532290751
0.870529081905862	4812582.663933491
0.8707467141763385	4844225.704359133
0.8709644008548827	4875876.655544878
0.8711821419550964	4907535.519468402
0.8713999374905854	4937958.812255822
0.871617787474958	4964098.009749495
0.8718356919218269	4990243.742042565
0.8720536508448075	5016396.01076871
0.8722716642575187	5042554.817562021
0.8724897321735832	5068720.164057042
0.8727078546066265	5095458.079194235
0.8729260315702784	5122211.289942358
0.873144263078171	5148971.18899314
0.8733625491439405	5175737.778018687
0.8735808897812266	5202511.058691502
0.8737992850036719	5205681.05186548
0.874017734824923	5200489.570545183
0.8742362392586293	5195296.7913545575
0.874454798318444	5190102.713969135
0.8746734120180236	5184907.338064366
0.8748920803710283	5189811.637321756
0.875110803391121	5204867.679041359
0.8753295810919689	5219927.4847714
0.875548413487242	5234991.055452874
0.8757673005906139	5250058.392027019
0.8759862424157616	5279387.488476644
0.8762052389763657	5349980.092938899
0.8764242902861098	5420590.34555222
0.8766433963586814	5491218.250728713
0.8768625572077712	5561863.812881523
0.8770817728470732	5631743.133309999
0.8773010432902849	5640434.746332024
0.8775203685511077	5649128.532257318
0.8777397486432454	5657824.491629082
0.8779591835804065	5666522.624990699
0.8781786733763015	5675222.932885646
0.8783982180446457	5645355.887383379
0.878617817599157	5604007.661318379
0.8788374720535569	5562649.098196885
0.8790571814215703	5521280.195434619
0.8792769457169257	5479900.950446662
0.879496764953355	5435102.42289609
0.8797166391445934	5387227.836772125
0.8799365683043796	5339341.282001625
0.8801565524464557	5291442.755592434
0.8803765915845676	5243532.254551595
0.8805966857324639	5230207.790277812
0.880816834903897	5303779.834981486
0.881037039112623	5377370.272696366
0.8812572983724012	5450979.108020666
0.8814776126969944	5524606.34555383
0.8816979821001687	5595292.163223528
0.8819184065956938	5596320.834274395
0.8821388861973429	5597349.762493026
0.8823594209188923	5598378.947943711
0.882580010774122	5599408.390690757
0.8828006557768155	5600438.090798491
0.8830213559407598	5634353.4742968315
0.8832421112797452	5676548.355082043
0.8834629218075651	5718753.784587426
0.8836837875380171	5760969.765450198
0.8839047084849018	5803196.300308193
0.884125684662023	5805589.72276019
0.8843467160831886	5776054.131454612
0.8845678027622095	5746511.156251208
0.8847889447129001	5716960.795303997
0.8850101419490785	5687403.046766554
0.8852313944845657	5699953.917026485
0.885452702333187	5804694.701472786
0.8856740655087704	5909461.671115184
0.8858954840251476	6014254.832499963
0.8861169578961539	6119074.192175041
0.886338487135628	6205487.445490538
0.886560071757412	6046636.0382428495
0.8867817117753515	5887744.9181433525
0.8870034072032955	5728814.075263759
0.8872251580550963	5569843.499673632
0.8874469643446101	5410833.18143951
0.8876688260856963	5432310.534434165
0.8878907432922178	5491155.720718235
0.8881127159780409	5550015.618298837
0.8883347441570356	5608890.230853906
0.8885568278430749	5667779.562062053
0.8887789670500358	5707696.468761512
0.8890011617917983	5734154.373131731
0.8892234120822464	5760618.891978053
0.8894457179352669	5787090.026954067
0.8896680793647509	5813567.779713845
0.8898904963845921	5789047.734880117
0.8901129690086883	5667203.789754786
0.8903354972509405	5545329.3836432025
0.8905580811252535	5423424.508929997
0.8907807206455347	5301489.157998278
0.8910034158256963	5174688.90532131
0.8912261666796527	5004651.934423829
0.8914489732213227	4834572.454283576
0.8916718354646282	4664450.454273121
0.8918947534234944	4494285.923762829
0.8921177271118502	4324078.852120014
0.8923407565436284	4101630.9401137
0.8925638417327644	3870612.4559213966
0.8927869826931977	3639536.2171079684
0.8930101794388711	3408402.2092348514
0.8932334319837308	3177210.417859804
0.8934567403417267	3025059.1511176247
0.8936801045268123	2922020.142980213
0.8939035245529441	2818955.3750908365
0.8941270004340824	2715864.841009448
0.894350532184191	2612748.5342945647
0.8945741198172371	2681056.3655773504
0.8947977633471915	3033710.5101017742
0.8950214627880284	3386452.8181623146
0.8952452181537254	3739283.31179966
0.8954690294582639	4092202.013060627
0.8956928967156286	4412683.03314059
0.8959168199398075	4522162.59866979
0.8961407991447926	4631669.534090399
0.8963648343445789	4741203.84624486
0.896588925553165	4850765.541977298
0.8968130727845534	4960354.628133683
0.8970372760527496	4945741.004063482
0.8972615353717629	4915580.03837439
0.8974858507556059	4885411.532443872
0.8977102222182949	4855235.484386879
0.8979346497738496	4825051.892317856
0.8981591334362931	5059003.122136464
0.8983836732196523	5437466.089780983
0.8986082691379572	5816023.673167163
0.8988329212052417	6194675.8959491905
0.8990576294355432	6573422.78178724
0.8992823938429022	6825888.797936761
0.8995072144413631	6890513.538082045
0.8997320912449734	6955154.434412342
0.8999570242677847	7019811.490966707
0.9001820135238516	7084484.711785214
0.9004070590272328	7145284.72502692
0.9006321607919896	7185710.502986139
0.9008573188321878	7226146.387389889
0.9010825331618959	7266592.38076472
0.9013078037951865	7307048.485637901
0.9015331307461353	7347514.70453728
0.9017585140288219	7412821.207057567
0.9019839536573292	7480282.722852614
0.9022094496457435	7547761.104026562
0.9024350020081551	7615256.354795879
0.9026606107586572	7682768.479377866
0.902886275911347	7854216.246641645
0.9031119974803249	8075802.953824032
0.9033377754796951	8297445.057683219
0.903563609923565	8519142.57206827
0.903789500826046	8740895.510832068
0.9040154482012526	8843029.171185512
0.904241452063303	8790160.218902707
0.9044675124263188	8737278.049381843
0.9046936293044254	8684382.659318607
0.9049198027117517	8631474.04540783
0.9051460326624297	8607129.336602984
0.9053723191705955	8704466.6188502
0.9055986622503881	8801828.235417884
0.9058250619159507	8899214.192389715
0.9060515181814298	8996624.49585085
0.9062780310609752	9094059.151887784
0.9065046005687405	8846028.28857082
0.906731226718883	8578661.558690144
0.9069579095255627	8311227.987127345
0.907184649002944	8043727.557171637
0.907411445165195	7776160.252108167
0.9076382980264862	7929353.593701062
0.907865207600993	8257354.130951835
0.9080921739028933	8585436.668336824
0.9083191969463691	8913601.226356106
0.9085462767456058	9241847.825515054
0.9087734133147922	9415233.14389511
0.9090006066681211	9409700.327540785
0.909227856819788	9404166.12798238
0.9094551637839932	9398630.544874078
0.9096825275749393	9393093.57787
0.9099099482068329	9412299.688073488
0.9101374256938848	9519452.844855022
0.9103649600503083	9626632.7899257
0.9105925512903209	9733839.529982626
0.9108201994281437	9841073.071724677
0.9110479044780008	9948333.421852043
0.9112756664541204	10050637.767164528
0.911503485370734	10152853.632694205
0.9117313612420768	10255095.052190263
0.9119592940823873	10357362.032041164
0.912187283905908	10459654.578637062
0.9124153307268845	10168156.748271434
0.9126434345595664	9733653.872722726
0.9128715954182063	9299042.371455539
0.9130998133170609	8864322.21731282
0.9133280882703902	8429493.38313159
0.913556420292458	8282632.2804633565
0.9137848093975312	8432831.947336191
0.9140132555998806	8583069.164125727
0.9142417589137806	8733343.940219468
0.9144703193535092	8883656.28500733
0.9146989369333476	8991656.145119801
0.9149276116675811	8971953.895149343
