#wavelength	surface flux
0.8	427872.0895914985
0.8002000000000001	432893.7592944447
0.8004000500000003	439191.7836227052
0.8006001500125003	445504.26221450634
0.8008003000500035	451818.3189259559
0.8010005001250161	458133.9541515863
0.8012007502500472	464451.1682860139
0.8014010504376099	469454.74668019335
0.8016014007002193	474019.0191105917
0.8018018010503944	478584.4326090976
0.8020022515006572	483150.98746098025
0.8022027520635323	487718.6839515719
0.8024033027515483	492493.05496427027
0.8026039035772362	497470.0335055356
0.8028045545531306	502448.25629143656
0.8030052556917691	507427.7236330363
0.803206007005692	512408.4358414671
0.8034068085074435	517770.16460860125
0.8036076602095705	524197.7886944861
0.8038085621246229	530627.0196863873
0.8040095142651542	537057.8579860405
0.8042105166437206	543490.3039952664
0.8044115692728815	549896.3064374725
0.8046126721651998	555097.3582636098
0.8048138253332411	560299.7103526996
0.8050150287895745	565503.3630298165
0.805216282546772	570708.3166201013
0.8054175866174087	575914.571448781
0.8056189410140631	581125.1845088163
0.8058203457493168	586337.9654573182
0.8060218008357541	591552.0496010504
0.8062233062859632	596767.4372658213
0.8064248621125346	601984.1287775047
0.806626468328063	608332.8712724489
0.8068281249451449	615654.3756719324
0.8070298319763813	622977.7104475247
0.8072315894343755	630302.8760568054
0.8074333973317341	637629.8729574911
0.8076352556810671	642988.0403198334
0.8078371644949874	643603.8364408077
0.8080391237861113	644219.7865108124
0.8082411335670578	644835.890568334
0.8084431938504498	645452.1486518708
0.8086453046489125	645983.1864202261
0.8088474659750746	644924.8389535075
0.8090496778415686	643866.2268999207
0.809251940261029	642807.3501933214
0.8094542532460944	641748.2087675444
0.8096566168094059	640688.8025564122
0.8098590309636085	641175.9738317677
0.8100614957213493	642025.3179795651
0.8102640110952797	642874.8744633996
0.8104665770980536	643724.6433363555
0.8106691937423283	644574.6246515298
0.8108718610407639	646602.9818541353
0.8110745790060241	649532.7258544916
0.8112773476507757	652463.2022908507
0.8114801669876885	655394.411346318
0.8116830370294355	658326.3532040475
0.8118859577886929	660301.6180550116
0.8120889292781401	660288.7943028476
0.8122919515104597	660275.9673447455
0.8124950244983374	660263.1371799038
0.8126981482544621	660250.303807521
0.8129013227915257	660472.219743585
0.8131045481222237	663382.1433659369
0.8133078242592543	666292.7944691947
0.8135111512153191	669204.1732352276
0.813714529003123	672116.2798459523
0.8139179576353739	675029.1144833303
0.8141214371247829	700545.9152674782
0.8143249674840641	730452.2432704035
0.814528548725935	760366.0478553114
0.8147321808631167	790287.3308914062
0.8149358639083326	820216.0942482506
0.8151395978743097	838853.2378027816
0.8153433827737784	849860.8932672235
0.8155472186194719	860871.3006455274
0.8157511054241268	871884.4606256739
0.815955043200483	882900.3738958229
0.8161590319612831	891925.9968335815
0.8163630717192736	897301.8654198068
0.8165671624872033	902679.0779731729
0.8167713042778252	908057.6348296824
0.8169754971038948	913437.5363254088
0.8171797409781707	917875.1388590051
0.8173840359134155	914780.4489848827
0.8175883819223938	911684.9854382954
0.8177927790178745	908588.7480258197
0.8179972272126291	905491.7365539899
0.8182017265194322	902393.9508292954
0.8184062769510622	916422.3684979464
0.8186108785203001	933089.8816685708
0.8188155312399301	949761.5617174653
0.8190202351227402	966437.4096863907
0.819224990181521	983117.4266172977
0.8194297964290664	995860.4764320098
0.8196346538781738	1006231.1986006489
0.8198395625416434	1016604.5134498258
0.8200445224322789	1026980.4216277195
0.820249533562887	1037358.9237826547
0.8204545959462778	1047636.5572348444
0.8206597095952644	1057750.2386616606
0.8208648745226633	1067866.4485088412
0.8210700907412941	1077985.187408482
0.8212753582639793	1088106.4559928374
0.8214806771035456	1093165.3053875088
0.8216860472728215	1067019.1596750615
0.8218914687846397	1040866.4774261846
0.822096941651836	1014707.2570067319
0.822302465887249	988541.4967821896
0.8225080415037209	962369.1951175772
0.8227136685140968	975957.5208711758
0.8229193469312254	994063.6486870579
0.8231250767679583	1012174.3030349002
0.8233308580371503	1030289.4850463194
0.8235366907516598	1048409.195853255
0.8237425749243477	1070247.2988012081
0.8239485105680789	1094059.2735355103
0.824154497695721	1117877.2012634808
0.824360536320145	1141701.083473388
0.8245666264542252	1165530.9216538465
0.8247727681108388	1186377.5336102971
0.8249789613028664	1202948.2835823796
0.8251852060431922	1219523.1762419697
0.825391502344703	1236102.212624717
0.8255978502202894	1252685.393766575
0.8258042496828445	1267797.8257020982
0.8260107007452654	1275751.104302423
0.8262172034204517	1283706.3712223899
0.8264237577213068	1291663.6269590887
0.8266303636607373	1299622.8720097253
0.8268370212516525	1307584.1068716205
0.8270437305069654	1298090.0698980547
0.8272504914395923	1287229.487835985
0.8274573040624523	1276366.1906283973
0.8276641683884679	1265500.1775965171
0.8278710844305652	1254631.4480613659
0.8280780522016729	1259276.2512225062
0.8282850717147234	1271014.6646704176
0.8284921429826521	1282756.012721679
0.8286992660183978	1294500.2961099623
0.8289064408349024	1306247.5155690846
0.8291136674451112	1311068.51954891
0.8293209458619727	1307153.4149647187
0.8295282760984382	1303237.3316043867
0.829735658167463	1299320.2692232102
0.8299430920820048	1295402.2275764432
0.8301505778550254	1292291.0460720616
0.8303581154994891	1292403.4113926282
0.8305657050283641	1292515.804804525
0.8307733464546212	1292628.2263147747
0.8309810397912352	1292740.6759304022
0.8311887850511829	1292853.1536584334
0.8313965822474458	1327644.2461006304
0.8316044313930077	1364053.6529608024
0.8318123325008561	1400472.1621727236
0.8320202855839813	1436899.7760119298
0.8322282906553774	1473336.496754599
0.8324363477280413	1484227.711369818
0.8326444568149735	1484833.4508190495
0.8328526179291771	1485439.3417031425
0.8330608310836596	1486045.3840599577
0.8332690962914304	1486651.577927361
0.8334774135655034	1485106.7438513762
0.833685782918895	1481158.5854313115
0.8338942043646247	1477209.4399716442
0.834102677915716	1473259.3072256092
0.834311203585195	1469308.186946391
0.8345197813860912	1474372.4586422315
0.8347284113314379	1509787.973837901
0.8349370934342709	1545212.3429123492
0.8351458277076294	1580645.5680790232
0.8353546141645565	1616087.651552048
0.8355634528180977	1651538.5955459257
0.8357723436813022	1605765.1617810181
0.8359812867672226	1558977.2611208318
0.8361902820889144	1512177.663485504
0.8363993296594368	1465366.3659507537
0.8366084294918518	1418543.3655916036
0.8368175815992247	1429580.7506115083
0.8370267859946247	1460552.6375756203
0.8372360426911234	1491532.2675114637
0.8374453517017962	1522519.642354788
0.8376547130397217	1553514.7640418191
0.8378641267179816	1571325.061659026
0.8380735927496613	1576049.3501625638
0.8382831111478488	1580774.8197382248
0.8384926819256358	1585501.470681277
0.8387023050961173	1590229.3032870693
0.8389119806723914	1594792.782097639
0.8391217086675596	1598891.5300774223
0.8393314890947265	1602991.3027441972
0.8395413219670003	1607092.1003541392
0.8397512072974922	1611193.9231634864
0.8399611450993165	1616110.4537776262
0.8401711353855914	1661435.3881863516
0.8403811781694378	1706771.653828667
0.8405912734639802	1752119.2535374044
0.8408014212823464	1797478.19014609
0.8410116216376671	1842848.4664889222
0.8412218745430766	1883587.4466606148
0.8414321800117124	1922985.782857167
0.8416425380567154	1962393.9686377875
0.8418529486912297	2001812.0064648623
0.8420634119284025	2041239.8988013607
0.8422739277813847	2061226.3033771785
0.8424844962633302	2064080.3150589457
0.842695117387396	2066935.0402436296
0.8429057911667428	2069790.47910961
0.8431165176145345	2072646.631835308
0.8433272967439382	2075323.352867559
0.8435381285681244	2077561.3176861885
0.8437490131002665	2079799.8419960223
0.8439599503535415	2082038.925936932
0.84417094034113	2084278.5696488284
0.8443819830762154	2087431.721192317
0.8445930785719846	2108977.0749309626
0.8448042268416277	2130527.815008031
0.8450154278983382	2152083.9427701165
0.8452266817553128	2173645.4595641405
0.8454379884257517	2195212.3667373657
0.8456493479228583	2217782.484503488
0.845860760259839	2240598.531574227
0.846072225449904	2263420.282656733
0.8462837435062666	2286247.7391770147
0.8464953144421433	2309080.9025614397
0.8467069382707537	2322512.936218446
0.8469186150053215	2328615.986549433
0.847130344659073	2334720.562643004
0.8473421272452377	2340826.664880593
0.8475539627770492	2346934.293643747
0.8477658512677435	2355901.0271068937
0.8479777927305605	2370937.692404604
0.8481897871787432	2385978.1168686347
0.848401834625538	2401022.3014387903
0.8486139350841944	2416070.247055079
0.8488260885679657	2429588.9163902802
0.8490382950901076	2424423.7731429394
0.8492505546638802	2419257.3386097844
0.8494628673025462	2414089.6124679972
0.8496752330193721	2408920.5943946675
0.8498876518276269	2403750.2840668266
0.8501001237405839	2324000.814709633
0.8503126487715191	2229344.356042274
0.850525226933712	2134664.2332603
0.8507378582404455	2039960.4404476318
0.8509505427050057	1945232.9716867055
0.8511632803406821	1887542.3671313887
0.8513760711607672	1855217.0275770607
0.8515889151785576	1822883.6066877937
0.8518018124073523	1790542.1024433314
0.8520147628604541	1758192.5128228273
0.8522277665511693	1765420.9022214308
0.8524408234928071	1845860.7435096984
0.8526539336986805	1926320.69475831
0.8528670971821053	2006800.7609947384
0.8530803139564007	2087300.9472476314
0.8532935840348901	2170831.9890673906
0.8535069074308987	2279811.071376377
0.8537202841577566	2388817.3984560315
0.8539337142287962	2497850.9771174686
0.8541471976573534	2606911.814173503
0.8543607344567677	2715999.916438821
0.8545743246403821	2766576.206095762
0.8547879682215422	2807868.4641169203
0.8550016652135977	2849171.0452025784
0.8552154156299011	2890483.95193351
0.8554292194838088	2931807.186891155
0.8556430767886797	2960198.8776025055
0.855856987557877	2980739.7015183233
0.8560709518047664	3001285.6606401065
0.8562849695427177	3021836.756251678
0.8564990407851035	3042392.989637158
0.8567131655452999	3062014.183829917
0.8569273438366862	3080099.769880427
0.8571415756726455	3098189.8773274524
0.8573558610665638	3116284.5073013464
0.8575702000318304	3134383.660932714
0.8577845925818384	3153477.9296639594
0.857999038729984	3178764.5639843484
0.8582135384896665	3204057.5199633115
0.858428091874289	3229356.799181271
0.8586426988972576	3254662.4032190284
0.8588573595719821	3279974.3336578035
0.8590720739118751	3293075.192090126
0.8592868419303532	3304738.8577728868
0.8595016636408359	3316405.439372068
0.8597165390567462	3328074.937616645
0.8599314681915105	3339747.353235786
0.8601464510585584	3349225.918526937
0.860361487671323	3357540.824110655
0.8605765780432408	3365857.8084207675
0.8607917221877518	3374176.8719769637
0.8610069201182988	3382498.015299047
0.8612221718483286	3371035.2952687405
0.8614374773912907	3331045.594170058
0.8616528367606385	3291045.8956461125
0.8618682499698288	3251036.1971975104
0.8620837170323213	3211016.4963243026
0.8622992379615795	3180268.5877203206
0.8625148127710699	3195445.0504255416
0.8627304414742627	3210625.30724644
0.8629461240846313	3225809.359131546
0.8631618606156526	3240997.207029625
0.8633776510808066	3256188.8518896755
0.8635934954935769	3302909.3348975913
0.8638093938674504	3352225.6625917694
0.8640253462159173	3401554.3193678698
0.8642413525524714	3450895.308308163
0.8644574128906095	3500248.632495681
0.8646735272438323	3506659.895799864
0.8648896956256433	3493097.776075284
0.8651059180495498	3479532.265820772
0.8653221945290621	3465963.3641887093
0.8655385250776946	3452391.0703312196
0.8657549097089641	3467192.307223463
0.8659713484363913	3518325.9448864
0.8661878412735006	3569472.365958777
0.866404388233819	3620631.5736364145
0.8666209893308775	3671803.5711159483
0.8668376445782103	3714055.3644646173
0.8670543539893549	3719857.624722249
0.8672711175778525	3725661.335544949
0.8674879353572469	3731466.4972953484
0.8677048073410862	3737273.1103361878
0.8679217335429217	3743081.1750302906
0.8681387139763074	3750549.922584944
0.8683557486548015	3758102.9636875736
0.8685728375919655	3765657.8930504886
0.8687899808013633	3773214.711145727
0.8690071782965637	3780773.4184454996
0.869224430091138	3807550.9087620047
0.8694417361986609	3842154.423058162
0.8696590966327107	3876766.588232886
0.869876511406869	3911387.4064489054
0.8700939805347206	3946016.8798694625
0.8703115040298544	3981231.892481408
0.870529081905862	4017115.251655943
0.8707467141763385	4053007.58167026
0.8709644008548827	4088908.884767079
0.8711821419550964	4124819.1631896496
0.8713999374905854	4157017.217293384
0.871617787474958	4176380.162081181
0.8718356919218269	4195747.947605192
0.8720536508448075	4215120.575075585
0.8722716642575187	4234498.045702836
0.8724897321735832	4253880.360697751
0.8727078546066265	4266226.122188558
0.8729260315702784	4278467.84734118
0.873144263078171	4290712.632925077
0.8733625491439405	4302960.479705371
0.8735808897812266	4315211.388447366
0.8737992850036719	4301994.750756494
0.874017734824923	4279753.537949098
0.8742362392586293	4257506.76483851
0.874454798318444	4235254.430034646
0.8746734120180236	4212996.532147082
0.8748920803710283	4203163.828324654
0.875110803391121	4205820.394172286
0.8753295810919689	4208477.62416138
0.875548413487242	4211135.518457972
0.8757673005906139	4213794.077228138
0.8759862424157616	4229830.197054998
0.8762052389763657	4284577.006986457
0.8764242902861098	4339337.503620361
0.8766433963586814	4394111.690378439
0.8768625572077712	4448899.570683222
0.8770817728470732	4503013.26841714
0.8773010432902849	4503432.595701198
0.8775203685511077	4503852.027817078
0.8777397486432454	4504271.564790986
0.8779591835804065	4504691.206649138
0.8781786733763015	4505110.953417754
0.8783982180446457	4480486.648064479
0.878617817599157	4448406.018021093
0.8788374720535569	4416317.367820212
0.8790571814215703	4384220.695456787
0.8792769457169257	4352115.998925271
0.879496764953355	4301566.868660354
0.8797166391445934	4234429.559792106
0.8799365683043796	4167275.466596636
0.8801565524464557	4100104.584877868
0.8803765915845676	4032916.910438608
0.8805966857324639	4018358.574012274
0.880816834903897	4136027.9062849157
0.881037039112623	4253726.6558906725
0.8812572983724012	4371454.830183819
0.8814776126969944	4489212.436520591
0.8816979821001687	4602627.288540835
0.8819184065956938	4613148.318227576
0.8821388861973429	4623671.97817175
0.8823594209188923	4634198.269030901
0.882580010774122	4644727.191462761
0.8828006557768155	4655258.746125234
0.8830213559407598	4676424.837607261
0.8832421112797452	4700270.2523722295
0.8834629218075651	4724121.628490875
0.8836837875380171	4747978.967453557
0.8839047084849018	4771842.270750984
0.884125684662023	4758330.117773224
0.8843467160831886	4714858.151100266
0.8845678027622095	4671375.316435639
0.8847889447129001	4627881.611062339
0.8850101419490785	4584377.032262702
0.8852313944845657	4579455.114808076
0.885452702333187	4659008.48691588
0.8856740655087704	4738581.747366698
0.8858954840251476	4818174.90113261
0.8861169578961539	4897787.953186925
0.886338487135628	4964045.119039548
0.886560071757412	4852321.777156853
0.8867817117753515	4740570.504438692
0.8870034072032955	4628791.293902299
0.8872251580550963	4516984.138563405
0.8874469643446101	4405149.031435606
0.8876688260856963	4419996.261735972
0.8878907432922178	4461071.523530793
0.8881127159780409	4502157.054141037
0.8883347441570356	4543252.8561339835
0.8885568278430749	4584358.9320773855
0.8887789670500358	4613632.388153653
0.8890011617917983	4634512.124021635
0.8892234120822464	4655397.079823595
0.8894457179352669	4676287.256864488
0.8896680793647509	4697182.656449657
0.8898904963845921	4676831.767022235
0.8901129690086883	4577766.817471585
0.8903354972509405	4478677.101683572
0.8905580811252535	4379562.613466534
0.8907807206455347	4280423.346627575
0.8910034158256963	4176464.010791407
0.8912261666796527	4029623.403667955
0.8914489732213227	3882746.086392681
0.8916718354646282	3735832.0497879437
0.8918947534234944	3588881.284674198
0.8921177271118502	3441893.7818692643
0.8923407565436284	3271237.440370448
0.8925638417327644	3096683.3980240757
0.8927869826931977	2922085.717167059
0.8930101794388711	2747444.386889839
0.8932334319837308	2572759.396280078
0.8934567403417267	2460621.8941952423
0.8936801045268123	2387349.3956124764
0.8939035245529441	2314058.5789051144
0.8941270004340824	2240749.439493547
0.894350532184191	2167421.972797146
0.8945741198172371	2226965.3859124472
0.8947977633471915	2506904.590930035
0.8950214627880284	2786913.7807488656
0.8952452181537254	3066992.9728649845
0.8954690294582639	3347142.184779301
0.8956928967156286	3597467.3983106236
0.8959168199398075	3653853.550646558
0.8961407991447926	3710253.799520591
0.8963648343445789	3766668.148456841
0.896588925553165	3823096.6009802925
0.8968130727845534	3879539.1606168826
0.8970372760527496	3852633.9277705434
0.8972615353717629	3815291.715780608
0.8974858507556059	3777940.168237671
0.8977102222182949	3740579.282807858
0.8979346497738496	3703209.057156667
0.8981591334362931	3885353.2693584566
0.8983836732196523	4187595.411336833
0.8986082691379572	4489913.113850505
0.8988329212052417	4792306.395789806
0.8990576294355432	5094775.276049852
0.8992823938429022	5291331.446533775
0.8995072144413631	5330345.582870315
0.8997320912449734	5369369.472740925
0.8999570242677847	5408403.118583993
0.9001820135238516	5447446.5228385255
0.9004070590272328	5484408.846319065
0.9006321607919896	5510419.505263469
0.9008573188321878	5536436.6668726355
0.9010825331618959	5562460.332772193
0.9013078037951865	5588490.504588228
0.9015331307461353	5614527.183947204
0.9017585140288219	5675974.935659
0.9019839536573292	5740487.536104197
0.9022094496457435	5805016.264699458
0.9024350020081551	5869561.1254769415
0.9026606107586572	5934122.122469598
0.902886275911347	6071454.590339773
0.9031119974803249	6243894.524929248
0.9033377754796951	6416377.569502371
0.903563609923565	6588903.734836562
0.903789500826046	6761473.031712201
0.9040154482012526	6847505.87038634
0.904241452063303	6821403.904461175
0.9044675124263188	6795295.413044536
0.9046936293044254	6769180.394505045
0.9049198027117517	6743058.847210908
0.9051460326624297	6738824.961756945
0.9053723191705955	6827820.581710703
0.9055986622503881	6916838.450569366
0.9058250619159507	7005878.573895248
0.9060515181814298	7094940.957252016
0.9062780310609752	7184025.606204563
0.9065046005687405	6968887.40044939
0.906731226718883	6736722.474076414
0.9069579095255627	6504499.506472149
0.907184649002944	6272218.483125965
0.907411445165195	6039879.389523709
0.9076382980264862	6150755.208966679
0.907865207600993	6404219.3875869885
0.9080921739028933	6657746.932251879
0.9083191969463691	6911337.858802895
0.9085462767456058	7164992.183085673
0.9087734133147922	7305027.446485507
0.9090006066681211	7313793.0515745105
0.909227856819788	7322560.848064775
0.9094551637839932	7331330.836504173
0.9096825275749393	7340103.017440679
0.9099099482068329	7365391.198918182
0.9101374256938848	7449376.060624252
0.9103649600503083	7533381.918545709
0.9105925512903209	7617408.77793163
0.9108201994281437	7701456.644032485
0.9110479044780008	7785525.52209977
0.9112756664541204	7873773.13006852
0.911503485370734	7962137.969249548
0.9117313612420768	8050524.899640373
0.9119592940823873	8138933.926763768
0.912187283905908	8227365.056143973
0.9124153307268845	7980836.2694895
0.9126434345595664	7612666.956217636
0.9128715954182063	7244405.600617801
0.9130998133170609	6876052.1796788825
0.9133280882703902	6507606.670384752
0.913556420292458	6377906.320626142
0.9137848093975312	6494489.94979983
0.9140132555998806	6611102.724880796
0.9142417589137806	6727744.653155539
0.9144703193535092	6844415.741912426
0.9146989369333476	6921068.145788951
