#wavelength	surface flux
0.7	217439.16181350662
0.7001166666666666	217834.90695233745
0.7002333527777778	218142.03461121183
0.700350058336574	218449.2134580292
0.7004667833462966	218756.44350132064
0.7005835278101878	219063.72474962013
0.7007002917314895	219371.05721146052
0.7008170751134447	219678.4408953778
0.7009338779592968	219985.87580990896
0.7010507002722901	220207.324162596
0.7011675420556689	220324.10713957137
0.701284403312678	220440.90958037606
0.7014012840465635	220557.73148825436
0.7015181842605713	220674.57286645065
0.701635103957948	220791.43371820985
0.701752043141941	220908.31404677767
0.701869001815798	221025.21385540042
0.7019859799827672	221236.81629029245
0.7021029776460976	221514.3481283694
0.7022199948090387	221791.926221753
0.7023370314748403	222069.5505781521
0.7024540876467528	222347.22120527716
0.702571163328027	222624.93811083966
0.7026882585219152	222902.70130255382
0.7028053732316688	223180.51078813284
0.7029225074605406	223693.2387492399
0.7030396612117841	224296.7470828819
0.7031568344886527	224900.35600124625
0.7032740272944008	225504.0655210966
0.7033912396322832	226107.87565920062
0.7035084715055552	226711.786432327
0.7036257229174727	227315.79785724916
0.7037429938712924	227919.9099507427
0.7038602843702709	228439.23897408613
0.7039775944176659	228944.25764616855
0.7040949240167356	229449.36048802987
0.7042122731707383	229954.5475136979
0.7043296418829335	230459.81873720384
0.7044470301565806	230965.17417258024
0.70456443799494	231470.61383386218
0.7046818654012724	231976.13773508795
0.7047993123788394	232378.62185375852
0.7049167789309024	232781.05471370643
0.7050342650607243	233183.55464579826
0.7051517707715678	233586.12166121192
0.7052692960666963	233988.75577112797
0.705386840949374	234391.45698672882
0.7055044054228656	234794.22531919958
0.7056219894904361	235172.17890819226
0.7057395931553511	235392.07384465082
0.705857216420877	235612.00543026565
0.7059748592902804	235831.97367114463
0.7060925217668288	236051.9785733973
0.70621020385379	236272.02014313362
0.7063279055544321	236492.09838646464
0.7064456268720246	236712.21330950322
0.7065633678098366	236960.91626138423
0.7066811283711383	237288.2915859996
0.7067989085592001	237615.72147316908
0.7069167083772933	237943.2059319862
0.7070345278286895	238270.74497154666
0.707152366916661	238598.33860094714
0.7072702256444803	238925.98682928545
0.7073881040154211	239253.6896656623
0.7075060020327569	239640.12941552696
0.7076239196997625	240112.09537966386
0.7077418570197124	240584.14000479435
0.7078598139958823	241056.263304029
0.7079777906315483	241528.46529048064
0.7080957869299869	242000.74597726297
0.7082138028944751	242473.10537749287
0.7083318385282908	242945.54350428982
0.7084498938347124	243207.9980673242
0.708567968817018	243292.4012596867
0.7086860634784875	243376.81851924802
0.7088041778224007	243461.2498483527
0.7089223118520377	243545.69524934542
0.7090404655706796	243630.15472457156
0.709158638981608	243714.62827637704
0.709276832088105	243799.11590710786
0.7093950448934531	244176.70290053423
0.7095132774009353	244694.1283576468
0.7096315296138355	245211.6400523358
0.7097498015354378	245729.23799897375
0.7098680931690269	246246.92221193563
0.7099864045178884	246764.69270560035
0.7101047355853081	247282.54949434721
0.7102230863745722	247800.49259255853
0.7103414568889679	248285.40017005193
0.7104598471317828	248762.86250203883
0.7105782571063047	249240.4044110807
0.7106966868158224	249718.02591044075
0.710815136263625	250195.7270133839
0.7109336054530023	250673.50773317786
0.7110520943872445	251151.3680830916
0.7111706030696424	251629.30807639728
0.7112891315034873	251957.24499271228
0.7114076796920712	252278.07568572467
0.7115262476386865	252598.95985051926
0.7116448353466263	252919.89749600773
0.711763442819184	253240.88863110397
0.711882070059654	253561.93326472302
0.7120007170713306	253883.03140578078
0.7121193838575091	254206.04833782854
0.7122380704214853	254548.57344299776
0.7123567767665555	254891.15563568415
0.7124755028960166	255233.79492540282
0.7125942488131658	255576.4913216695
0.7127130145213015	255919.2448340032
0.7128318000237216	256262.05547192122
0.7129506053237256	256604.92324494605
0.7130694304246129	256942.66741580958
0.7131882753296837	257262.35416150987
0.7133071400422386	257582.09418833448
0.7134260245655789	257901.88750516338
0.7135449289030065	258221.7341208785
0.7136638530578235	258541.63404436273
0.7137827970333332	258861.58728450135
0.7139017608328388	259181.59385017992
0.7140207444596443	259497.31397379952
0.7141397479170543	259805.34498690415
0.7142587712083737	260113.42733851055
0.7143778143369084	260421.56103717576
0.7144968773059646	260729.74609145752
0.7146159601188489	261037.98250991487
0.7147350627788687	261346.27030110866
0.7148541852893318	261654.60947360087
0.7149733276535467	261852.2764210172
0.7150924898748222	261938.32509443673
0.715211671956468	262024.3881093019
0.7153308739017941	262110.46546800292
0.715450095714111	262196.55717293033
0.71556933739673	262282.6632264753
0.7156885989529628	262368.78363102913
0.7158078803861218	262454.9183889839
0.7159271816995193	262109.91272200807
0.7160465028964692	261511.7885968858
0.7161658439802853	260913.5647844094
0.7162852049542819	260315.24126796433
0.7164045858217744	259716.81803093283
0.716523986586078	259118.2950566954
0.7166434072505089	258519.67232862924
0.716762847818384	257920.9498301082
0.7168823082930204	257818.9097499968
0.7170017886777359	257863.00387395656
0.7171212889758488	257907.10534693697
0.7172408091906781	257951.2141701629
0.7173603493255433	257995.33034485934
0.7174799093837642	258039.4538722516
0.7175994893686615	258083.58475356505
0.7177190892835562	258127.7229900254
0.7178387091317702	259580.21116986292
0.7179583489166254	261174.3149051819
0.7180780086414448	262768.684324458
0.7181976883095517	264363.3194719706
0.7183173879242699	265958.22039200796
0.718437107488924	267553.38712886564
0.7185568470068389	269148.81972684676
0.7186766064813399	270690.8216851459
0.7187963859157535	270890.54867874744
0.7189161853134061	271090.30896018114
0.719036004677625	271290.1025349952
0.7191558440117378	271489.9294087382
0.7192757033190732	271689.78958696045
0.7193955826029597	271889.68307521223
0.7195154818667269	272089.60987904546
0.7196354011137046	272248.2516889097
0.7197553403472235	272216.68303066096
0.7198752995706147	272185.1091109691
0.7199952787872098	272153.52992895734
0.720115278000341	272121.9454837485
0.7202352972133411	272090.35577446554
0.7203553364295432	272058.760800231
0.7204753956522815	272027.16056016745
0.7205954748848902	272210.87892881385
0.7207155741307044	272869.3365861342
0.7208356933930594	273527.9039863962
0.7209558326752915	274186.5811478918
0.7210759919807375	274845.3680889152
0.7211961713127342	275504.2648277612
0.7213163706746197	276163.27138273144
0.7214365900697322	276822.3877721268
0.7215568295014103	277115.7394413306
0.721677088972994	276972.59000066726
0.7217973684878227	276829.41670176404
0.7219176680492374	276686.2195406442
0.7220379876605789	276542.99851333094
0.722158327325189	276399.7536158464
0.7222786870464099	276256.4848442123
0.7223990668275843	276113.19219444954
0.7225194666720555	276209.57653042383
0.7226398865831676	276475.85893638147
0.7227603265642646	276742.18572273944
0.722880786618692	277008.5568968957
0.7230012667497951	277274.9724662475
0.7231217669609201	277541.4324381942
0.7232422872554135	277807.93682013603
0.7233628276366229	278074.48561947525
0.7234833881078956	278695.5521109517
0.7236039686725803	279451.30193336046
0.7237245693340255	280207.17771407176
0.7238451900955812	280963.17947408126
0.7239658309605971	281719.3072343832
0.7240864919324239	282475.56101597956
0.7242071730144127	283231.94083987287
0.724327874209915	283988.4467270686
0.7244485955222832	283187.78135449573
0.7245693369548704	282129.496578666
0.7246900985110294	281071.0354220417
0.7248108801941148	280012.39785522193
0.7249316820074803	278953.5838488112
0.7250525039544815	277894.5933733977
0.7251733460384739	276835.4263995714
0.7252942082628137	275779.6390972514
0.7254150906308574	276784.25036002643
0.7255359931459625	277789.029058012
0.7256569158114868	278793.9752191142
0.7257778586307888	279799.08887124376
0.7258988216072273	280804.37004231504
0.7260198047441617	281809.8187602471
0.7261408080449525	282815.4350529671
0.72626183151296	283742.66601209436
0.7263828751515454	284148.0221777593
0.7265039389640706	284553.44590278517
0.726625022953898	284958.9371984321
0.7267461271243904	285364.49607596186
0.7268672514789111	285770.1225466376
0.7269883960208241	286175.81662172475
0.7271095607534942	286581.57831249136
0.7272307456802866	286956.75782943395
0.7273519508045666	287249.2073663706
0.7274731761297006	287541.7056448966
0.7275944216590555	287834.25267313566
0.7277156873959987	288126.8484592129
0.7278369733438982	288419.493011255
0.727958279506122	288712.18633738824
0.7280796058860397	289004.9284457429
0.7282009524870207	289013.5269612657
0.7283223193124353	288601.77472751995
0.7284437063656539	288189.95386840275
0.7285651136500483	287778.064372475
0.7286865411689898	287366.10622829886
0.7288079889258514	286954.07942443097
0.7289294569240056	286541.98394943005
0.7290509451668262	286129.81979184947
0.7291724536576875	285909.28200049634
0.7292939823999636	285847.54744580307
0.7294155313970303	285785.80260201724
0.7295371006522632	285724.0474674241
0.7296586901690385	285662.28204030864
0.7297802999507332	285600.5063189553
0.7299019300007252	285538.72030164825
0.7300235803223919	285476.92398667184
0.7301452509191123	285901.8472015533
0.7302669417942654	286551.50085620803
0.7303886529512311	287201.2627864721
0.7305103843933897	287851.1330103913
0.7306321361241218	288501.1115460141
0.7307539081468093	289151.1984113939
0.7308757004648336	289801.39362458326
0.7309975130815778	290451.6972036422
0.7311193460004248	291445.4758949454
0.7312411992247582	292517.15405988845
0.7313630727579622	293589.0108378588
0.7314849666034219	294661.04625862645
0.7316068807645224	295733.26035196363
0.7317288152446498	296805.6531476502
0.7318507700471907	297878.2246754699
0.7319727451755319	298950.97496521054
0.732094740633061	298948.6540347832
0.7322167564231665	298897.9246214672
0.7323387925492371	298847.18675324897
0.7324608490146619	298796.4404287194
0.732582925822831	298745.68564646906
0.7327050229771347	298694.92240508844
0.7328271404809642	298644.1507031675
0.7329492783377112	298577.05732467875
0.7330714365507675	298349.57659991476
0.7331936151235259	298122.05796169664
0.7333158140593796	297894.5014037058
0.7334380333617229	297666.9069196216
0.7335602730339499	297439.27450312325
0.7336825330794556	297211.6041478888
0.7338048135016354	296983.89584759553
0.7339271143038857	297017.775063323
0.734049435489603	297928.2846390808
0.7341717770621846	298838.9459664347
0.7342941390250283	299749.7590706761
0.7344165213815324	300660.7239771012
0.734538924135096	301571.840711012
0.7346613472891185	302483.1092977106
0.734783790847	303394.5297625073
0.7349062548121412	303810.397190081
0.7350287391879431	303350.15520136483
0.7351512439778078	302889.8365056496
0.7352737691851374	302429.4410901523
0.735396314813335	301968.96894208534
0.7355188808658037	301508.4200486611
0.7356414673459482	301047.79439708707
0.7357640742571725	300587.09197457146
0.7358867016028818	300430.209558556
0.7360093493864824	300573.4264813486
0.7361320176113801	300716.6672736281
0.736254706280982	300859.931939373
0.7363774153986956	301003.22048256244
0.7365001449679286	301146.5329071754
0.7366228949920899	301289.86921719264
0.7367456654745885	301433.2294165948
0.7368684564188344	301695.47713026695
0.7369912678282374	302024.9477654396
0.7371140997062088	302354.47331238486
0.7372369520561599	302684.0537802549
0.7373598248815024	303013.68917820224
0.7374827181856494	303343.3795153831
0.7376056319720137	303673.12480095355
0.7377285662440091	304002.9250440716
0.7378515210050496	304158.7793018316
0.7379744962585505	304262.3079421922
0.738097492007927	304365.8538373261
0.7382205082565949	304469.4169901092
0.738343545007971	304572.9974034177
0.7384666022654723	304676.5950801285
0.7385896800325165	304780.21002311865
0.7387127783125219	304883.8422352661
0.7388358971089073	305092.406223007
0.7389590364250921	305311.5281565241
0.7390821962644963	305530.68661036366
0.7392053766305403	305749.8815906119
0.7393285775266454	305969.11310335697
0.7394517989562333	306188.38115468767
0.7395750409227259	306407.6857506933
0.7396983034295463	306612.4734529608
0.739821586480118	306493.5430827004
0.7399448900778645	306374.59289071185
0.7400682142262109	306255.62287369097
0.740191558928582	306136.633028334
0.7403149241884034	306017.6233513363
0.7404383100091014	305898.59383939236
0.7405617163941028	305779.5444891965
0.7406851433468352	305584.53834014584
0.7408085908707264	305042.1063725863
0.7409320589692048	304499.58399969904
0.7410555476456997	303956.97120641585
0.7411790569036406	303414.26797766756
0.7413025867464579	302871.47429838096
0.7414261371775823	302328.590153481
0.7415497082004452	301785.6155278907
0.7416732998184786	301262.8732384592
0.741796912035115	300783.6403010675
0.7419205448537874	300304.32749151974
0.7420441982779297	299824.93479650375
0.742167872310976	299345.46220270474
0.7422915669563612	298865.90969680686
0.7424152822175206	298386.27726549143
0.7425390180978901	297906.56489543774
0.7426627746009065	297688.37273653835
0.7427865517300065	297789.05354397144
0.7429103494886282	297889.7511315392
0.7430341678802096	297990.46550203813
0.7431580069081896	298091.1966582655
0.7432818665760077	298191.94460301904
0.7434057468871037	298292.7093390966
0.7435296478449182	298393.49086929683
0.7436535694528923	298281.84958293324
0.7437775117144678	298024.7682580768
0.7439014746330868	297767.6440863332
0.7440254582121922	297510.47706056084
0.7441494624552276	297253.2671736174
0.7442734873656368	296996.0144183595
0.7443975329468645	296738.7187876422
0.7445215992023557	296481.38027431985
0.7446456861355559	296017.03688017227
0.7447697937499119	295476.3767931937
0.7448939220488703	294935.62659620075
0.7450180710358784	294394.78627417545
0.7451422407143843	293853.8558120964
0.7452664310878367	293312.8351949398
0.7453906421596846	292771.724407681
0.7455148739333779	292230.5234352908
0.7456391264123667	291591.5418625167
0.7457633996001021	290936.8336380116
0.7458876935000356	290282.01629546785
0.7460120081156189	289627.0898167016
0.7461363434503048	288972.05418352195
0.7462606995075466	288316.90937773616
0.7463850762907978	287661.65538115037
0.7465094738035127	287006.08492818096
0.7466338920491467	286296.19045059977
0.746758331031155	285586.1776572716
0.7468827907529935	284876.04652847874
0.7470072712181189	284165.7970444977
0.7471317724299886	283455.4291856025
0.7472562943920602	282744.9429320647
0.7473808371077922	282034.3382641507
0.7475054005806435	281307.4277288218
0.7476299848140736	280480.6878008936
0.7477545898115426	279653.81008297723
0.7478792155765113	278826.79455210763
0.7480038621124406	277999.64118531696
0.7481285294227926	277172.3499596319
0.7482532175110298	276344.9208520751
0.7483779263806148	275517.3538396682
0.7485026560350116	274646.8695541996
0.7486274064776842	273660.45949227485
0.748752177712097	272673.88502867485
0.7488769697417158	271687.1461359955
0.749001782570006	270700.24278683524
0.7491266162004343	269713.1749537837
0.7492514706364677	268725.9426094262
0.7493763458815739	267738.5457263437
0.7495012419392209	266659.96888791217
0.7496261588128773	265450.36681842804
0.7497510965060128	264240.5631485981
0.7498760550220971	263030.5578448237
0.7500010343646007	261820.35087349848
0.7501260345369949	260609.94220101074
0.750251055542751	259399.33179374563
0.7503760973853414	258188.51961807857
0.7505011600682389	256866.14717544237
0.750626243594917	255450.5725654998
0.7507513479688495	254034.76202645773
0.7508764731935109	252618.71551899196
0.7510016192723765	251202.43300377464
0.7511267862089218	249785.91444147273
0.7512519740066232	248369.15979274327
0.7513771826689577	246952.16901823823
0.7515024121994025	245411.08167332728
0.7516276626014359	243811.98679900967
0.751752933878536	242212.62540888248
0.7518782260341824	240612.99745852308
0.7520035390718548	239013.10290350454
0.7521288729950334	237412.94169939435
0.7522542278071992	235812.51380175
0.7523796035118337	234211.81916612195
0.7525050001124189	232425.2568291336
0.7526304176124378	230598.03268274234
0.7527558560153731	228770.50399899573
0.752881315324709	226942.67072713337
0.7530067955439299	225114.5328163917
0.7531322966765205	223286.09021600068
0.7532578187259665	221457.34287517573
0.7533833616957542	219628.29074312735
0.75350892558937	217605.51548547889
0.7536345104103016	215573.3080181288
0.7537601161620366	213540.76184953522
0.7538857428480638	211507.87692324488
0.7540113904718717	209474.6531828028
0.7541370590369503	207441.0905717378
0.7542627485467898	205407.18903356962
0.7543884590048808	203355.479353371
0.7545141904147151	201129.2232941019
0.7546399427797842	198902.59619215986
0.7547657161035808	196675.59798570047
0.754891510389598	194448.22861287347
0.7550173256413296	192220.48801181675
0.7551431618622698	189992.3761206604
0.7552690190559135	187763.89287752268
0.7553948972257561	185480.9628596639
0.7555207963752938	183016.14172550995
0.755646716508023	180550.90978783506
0.755772657627441	178085.26697816967
0.7558986197370455	175619.21322803566
0.756024602840335	173152.74846894393
0.7561506069408084	170685.87263239236
0.7562766320419653	168218.58564986582
0.7564026781473054	165651.80939108485
0.75652874526033	162910.25438078836
0.7566548333845401	160168.2424446554
0.7567809425234375	157425.77350653405
0.7569070726805247	154682.84749025793
0.7570332238593047	151939.46431964613
0.7571593960632813	149195.62391850326
0.7572855892959586	146451.32621062672
0.7574118035608413	143707.64058752247
0.7575380388614347	140964.54397865882
0.7576642952012449	138220.99018702598
0.7577905725837782	135476.97913643185
0.7579168710125422	132732.5107506577
0.7580431904910444	129987.58495348493
0.7581695310227928	127242.20166868276
0.7582958926112967	124496.3608199963
0.7584222752600652	121684.98562812406
0.7585486789726085	118835.75779142008
0.7586751037524372	115986.0550834089
0.7588015496030628	113135.87742494082
0.7589280165279966	110285.22473686864
0.7590545045307512	107434.09694001511
0.7591810136148396	104582.4939551955
0.7593075437837755	101730.41570320755
0.7594340950410726	98901.18498945766
0.7595606673902461	96078.24955903643
0.7596872608348112	93254.84363937397
0.7598138753782836	90430.96715206133
0.75994051102418	87606.62001866483
0.7600671677760173	84781.80216074832
0.7601938456373134	81956.51349985332
0.7603205446115863	79130.75395751643
0.7604472647023548	76384.12793345707
0.7605740059131385	73644.9568140165
0.7607007682474575	70905.32916605337
0.7608275517088319	68165.24491348832
0.7609543563007835	65424.703980208425
0.7610811820268336	62683.70629010798
0.7612080288905045	59942.25176706443
0.7613348968953197	57207.13551570692
0.7614617860448022	54610.98551719132
0.7615886963424764	52014.40282700577
0.7617156277918667	49417.38737304103
0.7618425803964988	46819.93908316515
0.7619695541598982	44222.05788524165
0.7620965490855914	41623.74370712042
0.7622235651771058	39024.99647663317
0.7623506024379685	36526.29879093261
0.7624776608717082	34467.611163823
0.7626047404818536	32408.580422108775
0.7627318412719337	30349.2065086078
0.762858963245479	28289.489366119946
0.7629861064060198	26229.428937441495
0.7631132707570876	24169.025165356128
0.7632404563022137	22108.277992643925
0.7633676630449308	20230.442138966177
0.7634948909887717	18742.38188851003
0.7636221401372697	17254.073628014077
0.7637494104939593	15765.517316139973
0.7638767020623748	14276.71291154937
0.7640040148460518	12787.660372889639
0.7641313488485262	11298.359658806854
0.7642587040733344	9808.8107279367
0.7643860805240132	8610.934331819428
0.7645134782041005	7761.207304871119
0.7646408971171346	6911.338656751299
0.764768337266654	6061.328363857104
0.7648957986561985	5211.176402580484
0.7650232812893079	4360.882749310433
