#wavelength	surface flux
0.676892	114077.6041890774
0.678297	116362.4176864217
0.679702	118587.6751648795
0.681109	120865.57676960519
0.682517	123393.42608338673
0.683926	125894.62245465923
0.685337	128370.05084527432
0.686749	130886.56682177383
0.688164	133425.06068273378
0.689581	135989.16775241893
0.691	138431.53593304663
0.692422	141022.93412466842
0.693847	143947.60951206431
0.695274	146853.91017159165
0.696705	149698.5217418119
0.698139	152556.46457741695
0.699576	155471.39659949293
0.701017	158427.34851583187
0.702461	161403.44035224366
0.70391	164500.1351516906
0.705362	167655.72635667276
0.706819	170811.16744888577
0.70828	174024.46766725424
0.709745	177294.0289735928
0.711216	180652.4865774348
0.71269	184041.78993419593
0.71417	187476.85522166235
0.715655	190885.51878415715
0.717145	194287.27910931376
0.71864	198025.50688918974
0.72014	201733.4636760623
0.721647	205463.166417436
0.723158	209268.6950159385
0.724676	213111.19838334896
0.726199	217028.47795890874
0.727728	221095.32180340035
0.729264	225059.49230171015
0.730805	229231.99074838386
0.732353	233600.8608169087
0.733907	237898.25177291804
0.735468	242280.1986017311
0.737035	246719.05616556702
0.738609	251346.42706082566
0.74019	255997.18187588255
0.741777	260584.61385617088
0.743372	265344.53176626225
0.744973	270209.26500148204
0.746582	275074.408036806
0.748197	280015.2485952223
0.74982	284987.3781198136
0.751451	289942.1439217704
0.753088	294827.6118192351
0.754734	299613.4648566536
0.756386	304115.5637932791
0.758047	308003.9434865721
0.759715	310568.430954018
0.76139	309689.6555553716
0.763074	294402.5635599414
0.764765	216454.8355627369
0.766464	105255.8337064211
0.768172	130769.51516893906
0.769887	85272.8708911906
0.77161	245605.2061060053
0.773341	342833.8639045072
0.775081	363177.7412794955
0.776829	375119.2943860228
0.778585	383747.4354502448
0.780349	391359.9608757332
0.782121	400970.5787677412
0.783902	409453.7033620631
0.785691	417499.0655245032
0.787489	425539.938363741
0.789295	433557.5341958977
0.79111	441567.4507988685
0.792933	445378.898764373
0.794764	425885.40593276685
0.796604	457928.20973599266
0.798453	475183.66825399455
0.80031	483934.5655062282
0.802176	492772.3107100815
0.804051	501725.5712252606
0.805934	510786.42903855164
0.807826	519925.7535106586
0.809727	528788.4778276972
0.811636	537941.300903309
0.813554	547624.0378156163
0.81548	558233.6021152849
0.817416	568437.4746977157
0.81936	578684.8507228976
0.821313	588976.6338058102
0.823274	599147.6605003502
0.825244	610407.5169448572
0.827223	621303.4142318862
0.829211	632081.6043203202
0.831208	643252.9716150499
0.833213	654999.0824573227
0.835227	666536.4067868545
0.837249	677870.272905119
0.83928	689927.0606747005
0.841321	702774.2490251868
0.843369	715521.0725560951
0.845427	728176.5640960735
0.847493	741148.6070597246
0.849567	754197.7817937434
0.851651	767405.8976717158
0.853742	781011.183280322
0.855843	794854.3458567506
0.857952	808805.2230208868
0.86007	822776.1668905836
0.862196	834562.3991848623
0.864331	849634.9314835811
0.866474	865107.0123624846
0.868626	880324.2290041975
0.870786	895480.854002981
0.872955	911023.4912818746
0.875132	926515.8722144337
0.877317	942623.5385657261
0.879511	957736.7075683951
0.881713	974503.4784790744
0.883923	991735.9941167395
0.886142	1008258.5938341637
0.888369	1025048.9250972887
0.890604	1041279.2785027424
0.892847	1056589.9359828013
0.895099	1075105.857347238
0.897358	1094276.2524702908
0.899626	1113495.8333703105
0.901901	1132591.6941400252
0.904185	1152167.213975355
0.906476	1171093.3886526327
0.908776	1190415.0125380077
0.911083	1210579.567189733
0.913398	1229477.7846830592
0.915721	1248542.098381954
0.918051	1267460.8066906447
0.92039	1290587.020333318
0.922736	1311030.53571154
0.925089	1326394.9762315904
0.927451	1333948.5994433183
0.929819	1337679.0635564034
0.932195	1372108.9941397596
0.934579	1394083.4002417421
0.93697	1421197.3749630314
0.939369	1451436.9755074196
0.941774	1475002.050384823
0.944187	1486999.9359382277
0.946607	1506364.225710914
0.949035	1539500.2249189855
0.951469	1559528.1599000795
0.953911	1586516.1497426706
0.956359	1621361.895732195
0.958814	1631163.302479624
0.961277	1648544.664798226
0.963746	1675165.0930914092
0.966222	1702648.000009096
0.968705	1725588.0228825307
0.971194	1769924.963466672
0.97369	1805155.7855922692
0.976193	1828144.3188454753
0.978702	1859521.1535598487
0.981217	1887787.068356595
0.983739	1917012.7952688225
0.986268	1946043.3707806626
0.988802	1977132.6749582698
0.991343	2008132.6645433237
0.99389	2037632.3997955662
0.996444	2069666.106028097
0.999003	2099739.0500541753
1.00157	2129224.7876719474
1.00414	2160201.195855181
1.00672	2192866.49343039
1.0093	2225312.093422142
1.01189	2257772.241321074
1.01448	2291293.6452730345
1.01708	2324325.342917435
1.01969	2357412.3319258704
1.0223	2389251.757183429
1.02492	2419733.2518711854
1.02754	2454152.1705897436
1.03017	2484779.2546334993
1.0328	2524508.2124497965
1.03544	2559932.5556814736
1.03808	2594729.261899469
1.04073	2629949.754252779
1.04339	2665418.5270468933
1.04604	2700937.2655562316
1.04871	2736008.819144054
1.05138	2771757.308686435
1.05405	2809089.317985384
1.05673	2846455.6006685724
1.05941	2883479.7517675646
1.0621	2920646.3014554335
1.06479	2958236.6741885147
1.06749	2996208.629587822
1.07019	3033240.1581995855
1.07289	3072074.0519513087
1.0756	3111357.7994577936
1.07832	3149948.782608944
1.08104	3189708.986657372
1.08376	3229376.479375397
1.08649	3268273.2090275777
1.08922	3304840.257994625
1.09195	3340287.8892843868
1.09469	3377622.971219892
1.09743	3418042.850062771
1.10018	3419030.2830202775
1.10293	3418729.9946241714
1.10568	3424907.342623847
1.10844	3520729.356436819
1.1112	3541145.0518782083
1.11396	3549656.8189468407
1.11673	3584069.845629087
1.1195	3639437.586789343
1.12228	3650928.3517102012
1.12505	3753206.0042089075
1.12783	3796337.7393559865
1.13062	3829285.419119123
1.13341	3737261.162033927
1.1362	3855573.755831503
1.13899	3993135.2059115167
1.14178	4022848.27810429
1.14458	4084985.8048092388
1.14738	4151885.2200445835
1.15019	4123339.9118356938
1.153	4044981.207507469
1.1558	4137043.846777549
1.15862	4184935.067301495
1.16143	4235880.999725408
1.16425	4339123.667652828
1.16707	4439671.501524355
1.16989	4449033.475659403
1.17271	4505071.162047534
1.17554	4596409.651558076
1.17837	4669293.232615752
1.1812	4722496.226913123
1.18403	4791859.894767991
1.18686	4834805.581488823
1.1897	4879514.978302914
1.19253	4946134.936856767
1.19537	5001734.211490837
1.19822	5052258.332527729
1.20106	5106317.664206382
1.2039	5149053.605048811
1.20675	5202496.182229465
1.2096	5252749.068849093
1.21245	5301088.305432025
1.2153	5358695.332723614
1.21815	5411645.930357204
1.221	5463451.043983416
1.22385	5515985.43636393
1.22671	5568973.97455078
1.22957	5620503.351337768
1.23242	5670238.263659351
1.23528	5722662.966488749
1.23814	5775452.8061988475
1.241	5827248.213182125
1.24387	5879472.781275357
1.24673	5931333.457580549
1.24959	5982386.84280871
1.25245	6031614.246357147
1.25532	6087177.168007513
1.25818	6140258.533805911
1.26105	6189976.072017964
1.26392	6240736.18196085
1.26678	6293131.94271085
1.26965	6344389.369683838
1.27252	6394115.236220539
1.27538	6449593.164860518
1.27825	6501051.721258346
1.28112	6548753.343045643
1.28399	6604172.748169053
1.28686	6653326.684428942
1.28973	6696133.152778429
1.2926	6743529.333150818
1.29546	6802505.519102616
1.29833	6858442.780559247
1.3012	6897612.228579944
1.30407	6946849.321633236
1.30694	6995640.010484386
1.30981	7058909.461910627
1.31267	7105483.310063105
1.31554	7169996.7389080515
1.31841	7229323.055696398
1.32128	7259329.082636683
1.32414	7274444.717294059
1.32701	7306124.768296949
1.32987	7277255.320996651
1.33274	7068710.18027242
1.3356	6845385.365906655
1.33847	6149424.869760491
1.34133	5623459.384793117
1.34419	6267508.543337173
1.34705	6689890.776624367
1.34991	6474553.626812761
1.35277	5768414.427764682
1.35563	5599358.535450473
1.35849	6203230.372703144
1.36135	5585152.781437359
1.3642	6134593.669299133
1.36706	6562888.453629364
1.36991	6571443.515075035
1.37277	7154518.099153415
1.37562	7560808.514115692
1.37847	7654682.218416846
1.38132	6734621.1381669
1.38417	5729612.50998467
1.38701	6314619.431176591
1.38986	6216829.042534332
1.39271	6063458.457544111
1.39555	6320055.428354546
1.39839	6113014.275624389
1.40123	6545219.454506437
1.40407	7444867.221536476
1.40691	7801652.4722941695
1.40974	7188788.067893471
1.41258	6010699.185293565
1.41541	6817825.744508143
1.41824	7481293.351081548
1.42107	7159388.680859225
1.4239	6549046.943350874
1.42673	7284591.804280164
1.42955	7851223.752343628
1.43237	6976855.634156409
1.43519	7260686.217365574
1.43801	7314439.762016578
1.44083	7578812.965101527
1.44365	8285711.377646604
1.44646	8382783.415940033
1.44927	8807640.574748864
1.45208	9016488.062576134
1.45489	8886427.313413026
1.45769	9086756.440381926
1.4605	9216512.357979663
1.4633	9265654.088124536
1.4661	9369155.754945876
1.4689	9235543.914889844
1.47169	9323494.113161448
1.47449	9376822.651720677
1.47728	9482408.493909396
1.48007	9509469.545454701
1.48286	9709674.08247729
1.48564	9885731.985204369
1.48842	9908486.53252094
1.4912	9965151.443487566
1.49398	9994394.153661579
1.49676	9988613.76504688
1.49953	10153678.481470631
1.5023	10298391.567639736
1.50507	10341386.270276586
1.50784	10345904.228149056
1.51061	10401609.149686329
1.51337	10481861.479874663
1.51613	10572033.48409494
1.51888	10671935.472482009
1.52164	10794201.535949498
1.52439	10872147.1000491
1.52714	10884034.5869353
1.52989	10918085.222513365
1.53263	10995007.589967957
1.53538	11079110.813670788
1.53812	11126981.908351721
1.54086	11164686.838036722
1.54359	11216215.167987961
1.54632	11291431.320930233
1.54905	11342486.653255852
1.55178	11408977.330619657
1.5545	11447019.211136062
1.55723	11466084.780947724
1.55995	11506539.387128137
1.56266	11571101.178194826
1.56538	11651882.576771645
1.56809	11714105.898194509
1.5708	11758115.698489772
1.57351	11788060.66719224
1.57621	11816434.441403275
1.57891	11823795.106597599
1.58161	11900122.421494484
1.5843	12003138.740784563
1.587	12055516.074428137
1.58969	12095192.330411114
1.59238	12138976.074643452
1.59506	12176606.012439454
1.59774	12210433.396849263
1.60042	12253201.373229604
1.6031	12309030.854064196
1.60577	12361632.110713286
1.60844	12406747.450511524
1.61111	12444842.929902395
1.61378	12484244.512556698
1.61644	12534181.38878443
1.6191	12572988.397069244
1.62176	12615083.637606628
1.62441	12677105.212187758
1.62707	12725034.36459071
1.62971	12761995.894973503
1.63236	12797879.905562056
1.635	12850237.143374944
1.63764	12904045.824268166
1.64028	12947084.432679988
1.64292	12989279.893674199
1.64555	13032287.013119152
1.64818	13068150.41562868
1.65081	13102264.722427452
1.65343	13143611.114375856
1.65605	13185776.262328524
1.65867	13219900.15812044
1.66128	13249189.548667861
1.6639	13283928.700375583
1.66651	13306998.518753916
1.66911	13327089.874393225
1.67172	13391507.105385736
1.67432	13463276.648270447
1.67692	13506139.093124848
1.67951	13543723.825444935
1.68211	13584137.437231556
1.6847	13623754.963649977
1.68728	13659405.828345796
1.68987	13681357.627731718
1.69245	13688642.751558095
1.69503	13694808.359625755
1.6976	13725568.222606428
1.70018	13794035.88559438
1.70275	13842550.49101513
1.70531	13866104.981660813
1.70788	13889140.180436533
1.71044	13911932.644007616
1.713	13934085.455690587
1.71556	13964964.232123204
1.71811	14021408.257048562
1.72066	14062716.980284002
1.72321	14082759.963495137
1.72575	14110851.574093381
1.7283	14124089.62455611
1.73084	14114708.376439339
1.73337	14100508.596175477
1.73591	14089972.583403857
1.73844	14091643.257773228
1.74097	14107271.118099056
1.74349	14065936.068083359
1.74602	14006009.927017977
1.74854	13990671.72364323
1.75105	13905669.582320806
1.75357	13760449.947605124
1.75608	13904335.65169541
1.75859	14223821.917601125
1.7611	14382473.236509081
1.7636	14380185.311791187
1.7661	14201163.630103886
1.7686	13980678.834710687
1.7711	13750340.865537414
1.77359	13373337.435608592
1.77608	12755419.088230968
1.77857	12404704.285555108
1.78105	12676844.648659473
1.78354	12895780.423279744
1.78602	12455650.27969148
1.78849	12249102.615183279
1.79097	12640937.329453683
1.79344	12921705.765547236
1.79591	12788471.299416538
1.79837	12395540.059393702
1.80084	11370447.454136897
1.8033	10944310.552740112
1.80576	9942680.703240873
1.80821	9436187.650467467
1.81067	10353655.251474414
1.81312	11703861.421698652
1.81557	11097013.290466512
1.81801	10233802.000273077
1.82046	11065131.142144289
1.8229	12270026.750755934
1.82533	11504011.620832745
1.82777	10136503.063900942
1.8302	10379259.323452042
1.83263	11425320.478031391
1.83506	12057675.522402704
1.83749	12489500.853635797
1.83991	12997643.957866134
1.84233	12992856.45922136
1.84475	12928957.990848688
1.84716	12963165.042477442
1.84957	12792840.610359624
1.85198	11844506.875184478
1.85439	10425480.51749876
1.8568	10497725.575473234
1.8592	11318590.048438251
1.8616	10871794.461866817
1.864	10187802.282782316
1.86639	10816204.355242612
1.86878	11956190.839643799
1.87118	12766245.142381765
1.87356	13338650.024406407
1.87595	13511258.861868244
1.87833	13710537.867958458
1.88071	14246283.983711887
1.88309	14171416.173266957
1.88547	13769866.819421627
1.88784	13759389.215235827
1.89021	13711887.948627202
1.89258	14294234.55546451
1.89494	14669506.469430732
1.89731	14025097.039600566
1.89967	12938609.423257874
1.90203	11785502.98265213
1.90439	11345297.828138238
1.90674	12070465.238918751
1.90909	12539460.731067844
1.91144	11747346.287144579
1.91379	10673072.18367022
1.91613	10568148.31520155
1.91848	11387689.980452815
1.92082	12272712.693160567
1.92315	12127491.9096441
1.92549	11438323.35236079
1.92782	11848416.13462687
1.93015	12690126.214788463
1.93248	13157184.181912068
1.93481	13173484.045168659
1.93713	12772715.227736555
1.93945	12456788.469712932
1.94177	12639767.798351867
1.94409	12886906.643513473
1.94641	12720170.141585166
1.94872	12621801.519385884
1.95103	12828487.294852426
1.95334	12135378.777392898
1.95564	11954070.24381348
1.95795	12558992.944636565
1.96025	12864249.756666956
1.96255	12945314.939879345
1.96484	13146295.356600527
1.96714	13644998.987334551
1.96943	14250732.465508448
1.97172	14527876.652759073
1.97401	14329631.590613876
1.97629	14423051.61550622
1.97858	14845178.053902198
1.98086	15104940.975528913
1.98314	15320048.165292917
1.98541	15424288.041604491
1.98769	15248917.642359128
1.98996	14854170.792069653
1.99223	14772556.148387687
1.9945	15036506.676650573
1.99677	14962043.036101284
1.99903	14914618.815077983
2.00129	15226531.913681539
2.00355	15673380.213434422
2.00581	15894079.608072666
2.00806	15900897.909208614
2.01031	16152879.657021826
2.01256	16323162.488937583
2.01481	16228530.248888612
2.01706	16068940.589971527
2.0193	16064246.115282686
2.02154	16277984.481987257
2.02378	16525705.666179838
2.02602	16611484.68157635
2.02825	16670856.197835032
2.03049	16738668.922176147
2.03272	16818404.650395688
2.03494	16894779.740239184
2.03717	16944724.94626382
2.03939	16972372.91744411
2.04162	17041293.172621273
2.04384	17103894.59595817
2.04605	17169158.10261069
2.04827	17233061.726788096
2.05048	17258572.79184179
2.05269	17213868.201267783
2.0549	17213713.088140294
2.05711	17254018.1982525
2.05931	17310231.908736523
2.06151	17358821.19244385
2.06371	17400147.345890667
2.06591	17433695.460654967
2.06811	17462378.098039597
2.0703	17482442.70048707
2.07249	17491656.501905292
2.07468	17490109.033404205
2.07686	17503271.13947856
2.07905	17527261.5390269
2.08123	17553730.82698417
2.08341	17578747.277719803
2.08559	17603013.624132723
2.08776	17622668.000046756
2.08994	17632501.40307632
2.09211	17637241.283807896
2.09428	17644294.266243972
2.09645	17666428.754437983
2.09861	17684474.952010166
2.10077	17696875.54676323
2.10293	17703243.46984393
2.10509	17704799.48586399
2.10725	17709661.723885804
2.1094	17744102.537600767
2.11155	17780472.697024845
2.1137	17806405.207056407
2.11585	17811633.073254105
2.11799	17818215.63845145
2.12013	17834430.722057533
2.12227	17855647.207665343
2.12441	17876876.444304235
2.12655	17889946.350051213
2.12868	17900956.258507114
2.13081	17913225.52638026
2.13294	17926846.6703443
2.13507	17936279.230567165
2.13719	17938952.96186328
2.13931	17942897.817239042
2.14143	17950296.86074748
2.14355	17962092.55998566
2.14567	17972779.958693407
2.14778	17981659.018095754
2.14989	17988460.475731518
2.152	17992515.534755636
2.1541	18001536.376051866
2.15621	18014430.47244905
2.15831	18029273.38673831
2.16041	18041203.845198225
2.16251	18052706.198003236
2.1646	18062384.008126445
2.1667	18069945.91067575
2.16879	18074898.169650525
2.17087	18075317.155707784
2.17296	18073858.05844239
2.17504	18072171.639227852
2.17713	18082621.109887958
2.1792	18099605.250006985
2.18128	18117985.824537147
2.18336	18132048.35814222
2.18543	18140244.735064693
2.1875	18148202.048544217
2.18957	18154787.932863202
2.19163	18153193.522851985
2.1937	18135273.50901265
2.19576	18112250.99899515
2.19782	18088748.145761773
2.19987	18092993.871427488
2.20193	18102474.802411113
2.20398	18114901.44965229
2.20603	18125565.25261191
2.20808	18141443.395442523
2.21012	18157740.529465258
2.21217	18171937.259568095
2.21421	18174568.802409895
2.21625	18173371.707349773
2.21828	18170255.01797252
2.22032	18178678.7222866
2.22235	18186785.753206875
2.22438	18191528.942581408
2.22641	18184651.688885912
2.22843	18177451.359846298
2.23046	18173288.58323677
2.23248	18175420.577312727
2.2345	18186048.150636617
2.23651	18195185.18362181
2.23853	18201178.723263435
2.24054	18176122.104508605
2.24255	18141099.69853958
2.24456	18099459.88598522
2.24657	18090335.14925261
2.24857	18104840.88286138
2.25057	18135476.82124499
2.25257	18166673.75366735
2.25457	18187534.1783822
2.25656	18201008.126354344
2.25856	18206351.984159995
2.26055	18187107.40292123
2.26254	18150754.289049465
2.26453	18090890.704785578
2.26651	18050320.846927416
2.2685	18029242.30525533
2.27048	18052723.572110128
2.27246	18093213.173283342
2.27443	18133895.730823066
2.27641	18147155.467979696
2.27838	18129120.34155653
2.28036	18099556.310721755
2.28233	18083936.557470202
2.28429	18092183.342425626
2.28626	18108448.96102296
2.28823	18096753.396200012
2.29019	18004267.062007558
2.29215	17846364.415899627
2.29411	17528585.491989315
2.29607	17155553.708765298
2.29802	16738804.014580304
2.29998	16339879.141952496
2.30193	15971363.53845736
2.30388	15635275.292847771
2.30583	15354638.629056482
2.30778	15176321.630161988
2.30972	15164394.737424938
2.31167	15315656.483212264
2.31361	15457003.03733021
2.31555	15458756.316623686
2.31749	15370275.984157285
2.31943	15247020.27141102
2.32137	15163627.64236376
2.32331	15128129.742435995
2.32524	15130756.627116738
2.32718	15184489.320327485
2.32911	15270176.573393738
2.33104	15401223.089950092
2.33297	15573469.292064114
2.3349	15757154.943272201
2.33683	15949008.683890324
2.33876	16146046.32633803
2.34068	16347676.208271287
2.34261	16594582.229254197
2.34453	16830547.897802766
2.34646	17056736.341020864
2.34838	17058100.61902828
2.3503	16981775.847819325
2.35223	16781269.437078882
2.35415	16599101.839399798
2.35607	16434695.953650268
2.35799	16409983.77664449
2.35991	16488107.438492397
2.36183	16690343.319646347
2.36375	16723810.635253305
2.36566	16657004.86847437
2.36758	16351089.49410543
2.3695	16290725.748575704
2.37142	16387766.89332756
2.37334	16601238.684412114
2.37526	16575536.207397994
2.37718	16150193.97599284
2.3791	15789353.42069031
2.38101	15519381.995288948
2.38293	15744364.854072262
2.38485	16133297.057789303
2.38677	16689630.171596466
2.3887	17089105.328935202
2.39062	17364165.599410538
2.39254	17334740.984630164
2.39446	17085266.121152777
2.39639	16692699.381388256
2.39831	16325294.773194073
2.40024	16038562.363667771
2.40216	15906896.020281745
2.40409	15917991.210636355
2.40602	15993201.49811079
2.40795	16133437.631024059
2.40989	16241867.081009662
2.41182	16309931.651417771
2.41376	16378415.688803462
2.4157	16460194.853686292
2.41764	16600258.05510788
