#wavelength	surface flux
0.428837	3.6620304475510426
0.43312537	7.310103077017298
0.43745662370000005	8.816668737343301
0.4418311899370001	10.614632039165071
0.44624950183637	12.762364436720546
0.4507119968547338	15.315357608048432
0.45521911682328114	18.344506342995086
0.4597713079915139	21.93739966907892
0.4643690210714291	26.19096753212191
0.4690127112821433	31.199575660177512
0.47370283839496474	37.13055465000272
0.47843986677891437	44.09895844179886
0.48322426544670355	52.28476908098796
0.48805650810117057	61.90361552540946
0.4929370731821824	73.16065455786628
0.49786644391400414	86.28490934304313
0.5028451083531442	101.6619636573003
0.5078735594366757	119.54997184622901
0.5129522950310424	140.26067722092762
0.5180818179813528	164.35455566945836
0.5232626361611664	192.44233481535016
0.5284952625227781	224.87136996728248
0.5337802151480058	262.0820920957309
0.5391180172994858	305.15378627310935
0.5445091974724807	354.4615011095831
0.5499542894472055	410.9827337002399
0.5554538323416777	475.00988219821994
0.5610083706650945	547.5744228655767
0.5666184543717453	626.7249049122788
0.5722846389154628	708.7650923747526
0.5780074853046174	768.1347944626872
0.5837875601576636	635.8300249602921
0.5896254357592402	74.19908398610286
0.5955216901168326	931.955652986196
0.6014769070180009	1352.6902426817746
0.607491676088181	1628.5440325011239
0.6135665928490629	1895.9313328006085
0.6197022587775535	2182.639268144861
0.625899281365329	2499.1238141384265
0.6321582741789823	2851.942383200753
0.6384798569207721	3245.5814167233693
0.6448646554899798	3687.0286944077698
0.6513133020448797	4180.799370082948
0.6578264350653285	4732.532720811477
0.6644046994159818	5352.006533503842
0.6710487464101416	6017.759573673928
0.677759233874243	6810.061388390899
0.6845368262129854	7664.585299176577
0.6913821944751153	8603.73723285707
0.6982960164198664	9666.399086666634
0.7052789765840651	10835.560425738378
0.7123317663499058	12121.546647041385
0.7194550840134049	13531.742690471603
0.7266496348535388	15071.419782118573
0.7339161312020743	16813.61079156574
0.741255292514095	18723.38134131153
0.748667845439236	20774.593670217095
0.7561545238936284	22761.3336170787
0.7637160691325647	18072.942160896735
0.7713532298238903	15541.96071141652
0.7790667621221293	30836.70179860921
0.7868574297433505	34762.54058286822
0.7947260040407841	36389.3453424565
0.8026732640811919	42525.66887184555
0.8106999967220039	46739.04925049805
0.8188069966892239	51518.02519134399
0.8269950666561161	56611.38823640521
0.8352650173226772	62084.524213903285
0.8436176674959041	68216.42853506656
0.852053844170863	74774.49735252271
0.8605743826125718	81848.62636997778
0.8691801264386976	89391.33980633398
0.8778719277030844	97489.92960832521
0.8866506469801153	106100.01060460684
0.8955171534499164	114873.02058432825
0.9044723249844157	125784.29689488228
0.9135170482342599	136500.24029166938
0.9226522187166025	147952.4782965703
0.9318787409037684	152999.35277122477
0.941197528312806	169921.25728201884
0.9506095035959342	181641.9936793784
0.9601155986318936	195332.49655982232
0.9697167546182125	212872.9882055036
0.9794139221643946	234035.38337845128
0.9892080613860387	254081.30521989416
0.9991001419998989	274807.5131356986
1.0090911434198981	296095.64131354593
1.019182054854097	318880.42702699767
1.0293738754026378	340662.9195645157
1.0396676141566643	367030.1890074947
1.050064290298231	393085.69369503885
1.0605649332012133	420807.4095749104
1.0711705825332256	449313.0178098933
1.0818822883585577	480388.66921154794
1.0927011112421434	510488.94945555576
1.1036281223545648	517172.4875412693
1.1146644035781104	534888.7089914904
1.1258110476138916	575294.7581762102
1.1370691580900303	605284.0085892987
1.1484398496709307	660189.9621100093
1.1599242481676402	659586.4883397653
1.1715234906493166	744948.2525619568
1.1832387255558097	820841.1198338332
1.1950711128113678	876544.7079897217
1.2070218239394814	929080.5793968252
1.2190920421788762	984367.9495488345
1.2312829626006652	1039300.6747064374
1.2435957922266716	1096621.1149979543
1.2560317501489384	1156979.432644634
1.2685920676504279	1215878.6054933085
1.281277988326932	1276816.6234144517
1.2940907682102014	1335434.2464643025
1.3070316758923035	1395677.6369959328
1.3201019926512265	1466416.7917071148
1.3333030125777388	1379792.3203458036
1.3466360427035162	1141977.0138268704
1.3601024031305513	811592.3518435732
1.373703427161857	1311517.1278239267
1.3874404614334754	866027.7996754083
1.4013148660478103	1089754.5820833165
1.4153280147082883	1118181.066478002
1.4294812948553712	1318956.4375661302
1.443776107803925	1606295.2823554263
1.4582138688819641	2008959.8034681375
1.4727960075707838	2062588.7676508252
1.4875239676464918	2300241.4683492444
1.5023992073229566	2422411.948559733
1.5174231993961862	2568920.151344849
1.532597431390148	2707816.2028278867
1.5479234057040496	2824190.0463631507
1.5634026397610903	2921462.8495464227
1.579036666158701	2985619.756972301
1.594827032820288	3144823.997615052
1.610775303148491	3241479.70134278
1.6268830561799759	3308768.9209545264
1.6431518867417756	3452930.449157721
1.6595834056091934	3542981.6975555634
1.6761792396652853	3635997.7427306133
1.6929410320619382	3676206.6387366652
1.7098704423825577	3777799.79036457
1.7269691468063835	3923327.7074392517
1.744238838274447	3918517.2710571485
1.7616812266571917	4029202.202111063
1.7792980389237634	3190606.9895115085
1.7970910193130012	3051249.526934484
1.815061929506131	2149132.647716142
1.8332125488011928	2244463.9055491807
1.8515446742892046	2608525.4048455674
1.8700601210320964	2624650.9338216307
1.8887607222424174	3740961.481367831
1.9076483294648416	2262014.5578500414
1.92672481275949	2497624.930730428
1.9459920608870853	3178256.809164587
1.9654519814959561	3597558.3605284267
1.9851065013109155	4702621.979794148
2.0049575663240247	5018765.689093723
2.025007141987265	5450361.2713769935
2.0452572134071376	5766750.744241884
2.065709785541209	5917895.63441326
2.086366883396621	6029603.862597759
2.107230552230587	6120098.442646643
2.1283028577528933	6219691.394802475
2.1495858863304225	6248604.945295836
2.1710817451937263	6317237.872015514
2.1927925626456637	6172044.754524969
2.2147204882721203	6021614.607699377
2.2368676931548412	5604420.608251003
2.25923637008639	5599867.116085638
2.281828733787254	5494603.4596583415
2.3046470211251266	4794317.8085970115
2.327693491336378	4056400.098508348
2.3509704262497415	4586829.679238777
2.374480130512239	4088436.337384294
2.3982249318173614	4874781.161213562
2.4222071811355352	5543917.368059104
2.4464292529468903	5346450.187835283
2.4708935454763594	4313575.1478141
2.4956024809311232	3002943.102465624
2.5205585057404343	1696588.1981801114
2.5457640907978387	2234959.9906931445
2.5712217317058172	1077793.5537330236
2.5969339490228753	1162044.0331547924
2.622903288513104	2220523.3804391692
2.6491323213982354	2500584.496471125
2.6756236446122177	620569.38041564
2.7023798810583397	1807205.6368289706
2.729403679868923	3197456.268684073
2.7566977166676123	2011030.8464732806
2.7842646938342885	1798505.1067219751
2.812107340772631	1945836.9459840578
2.8402284141803578	2842723.3160763313
2.8686306983221614	2292783.831557124
2.897317005305383	2858015.6969403303
2.926290175358437	4402767.68236413
2.9555530771120213	4875436.9277494075
2.9851086078831415	4868124.785193266
3.014959693961973	5620226.65924514
3.0451092909015927	5467106.0559357535
3.0755603838106085	5792335.361959077
3.1063159876487147	5065120.492061003
3.137379147525202	3999283.1833530446
3.168752939000454	3183717.9726731232
3.200440468390459	2713153.8193866136
3.232444873074363	2015756.3840308746
3.264769321805107	4658203.511503517
3.297417015023158	4647958.709876209
3.330391185173389	933576.9534528374
3.3636950970251234	3781060.7922941577
3.397332047995375	3190908.196430451
3.4313053684753285	2647001.023207615
3.465618422160081	2787780.54177728
3.5002746063816828	3582375.1258618906
3.5352773524454997	4515393.810052345
3.570630125969955	5077861.795389616
3.606336427229654	5529201.450155085
3.6423997915019504	5714231.353972031
3.67882378941697	5702612.431238369
3.7156120273111397	5397628.019415719
3.7527681475842516	5235889.777649574
3.7902958290600934	5037857.166726961
3.8281987873506953	4965582.845889531
3.8664807752242023	4762969.58807426
3.905145582976444	4683675.235217115
3.9441970388062084	4622351.767769084
3.983639009194271	4671384.084737265
4.023475399286213	4689520.413818005
4.063710153279075	4643528.357306909
4.1043472548118665	4798914.262877576
4.145390727359985	4955964.097735004
4.186844634633585	5045831.632634097
4.2287130809799205	5186183.535085869
4.27100021178972	5169395.029120436
4.313710213907617	4998008.649175835
4.356847316046694	4733415.424854001
4.40041578920716	4145866.551275862
4.444419947099232	3199296.4926266167
4.488864146570225	2521558.5992865073
4.533752788035927	2150443.160277559
4.579090315916286	2287497.4781175205
4.624881219075449	2489362.0870637014
4.671130031266204	3001840.1637413115
4.717841331578866	2542548.3745825277
4.765019744894654	2234513.0859536026
4.812669942343601	2501599.9498041845
4.8607966417670365	2850267.493602139
4.9094046081847065	2738954.9780513844
4.958498654266554	2598176.617584081
5.008083640809219	2942855.9033856858
5.058164477217312	3235913.6586824465
5.108746121989485	3159612.418513536
5.15983358320938	2959794.8200279926
5.211431919041474	2297524.141058948
5.263546238231889	2866512.140695207
5.316181700614208	3128743.519787832
5.36934351762035	2145450.7941792295
5.423036952796553	1712956.0298219782
5.4772673223245185	1918033.8714540654
5.532039995547764	2024818.4942935423
5.587360395503242	1647782.9985300854
5.643233999458275	1443282.4539611463
5.6996663394528575	1313671.8446892586
5.756663002847385	1320386.3664932374
5.814229632875859	1376624.8971048975
5.872371929204618	1162558.9936671911
5.931095648496664	1232017.7450681466
5.990406604981631	1616333.6223326982
6.050310671031448	1275821.8549655753
6.110813777741763	1699186.5329248782
6.17192191551918	1398729.8329542917
6.233641134674372	2273819.4635731145
6.295977546021115	2351683.5947830374
6.358937321481327	1863214.1358659365
6.42252669469614	877375.5061758414
6.486751961643101	809165.4928130374
6.551619481259532	931415.728460794
6.617135676072128	767920.6582736787
6.683307032832849	1099473.0474979419
6.750140103161177	1201810.1838900403
6.81764150419279	1158411.4740824257
6.885817919234718	987901.0235216842
6.954676098427065	1125732.1890151033
7.024222859411336	856608.3338061598
7.094465088005449	1092945.8259708392
7.165409738885503	861066.0919867433
7.237063836274358	876125.171583884
7.309434474637103	805410.8878620259
7.382528819383473	745000.9243845082
7.456354107577308	694087.5718839925
7.530917648653081	909308.4509176156
7.606226825139612	849168.855589707
7.682289093391009	579495.57718826
7.759111984324918	718321.2052712217
7.836703104168168	824601.8334751137
7.91507013520985	786815.4444976011
7.994220836561947	907937.8150536722
8.074163044927568	844490.7886872909
8.154904675376844	848829.3962583924
8.23645372213061	923050.8494811399
8.318818259351918	983466.31991217
8.402006441945437	1004316.5271905719
8.486026506364892	1066590.9634712713
8.57088677142854	1101923.4145207244
8.656595639142825	1116326.9829981958
8.743161595534254	1106582.3044528677
8.830593211489598	1107398.0265071974
8.918899143604493	1082794.1730842134
9.00808813504054	1055281.4880142144
9.098169016390944	1041152.3001466477
9.189150706554853	1014947.5593125179
9.281042213620402	989520.4652628546
9.373852635756606	951385.3987846305
9.467591162114172	929333.71814549
9.562267073735315	908193.9824669098
9.657889744472667	875995.5316080683
9.754468641917395	853800.5553603782
9.852013328336568	810161.2998989915
9.950533461619933	799299.9143337663
10.050038796236134	773095.7338667171
10.150539184198495	750449.5424339789
10.252044576040479	723102.6912549305
10.354565021800884	694236.9964687765
10.458110672018893	673684.1880763711
10.562691778739081	658781.7539750615
10.668318696526473	639932.4085447051
10.775001883491738	619908.1382225639
10.882751902326655	596672.1516347594
10.991579421349924	558567.7630246449
11.101495215563421	564733.9283088429
11.212510167719055	545171.818096993
11.324635269396246	526769.9720919009
11.43788162209021	514108.69593583944
11.552260438311112	487284.5222969263
11.667783042694223	466977.2021951866
11.784460873121166	458427.4920186465
11.902305481852377	451062.7157821107
12.0213285366709	438105.4029779917
12.14154182203761	426421.20094852796
12.262957240257986	399097.0269344882
12.385586812660566	367973.3585538775
12.509442680787172	366906.3313123808
12.634537107595044	370051.2266739259
12.760882478670995	356633.1807310053
12.888491303457704	347382.02314344025
13.01737621649228	318738.02281455736
13.147549978657205	319318.3533966276
13.279025478443776	285535.67132231995
13.411815733228213	270591.84003419976
13.545933890560496	289785.8920148166
13.681393229466101	273665.244634591
13.818207161760762	273966.47666345164
13.956389233378369	259246.31430211992
14.095953125712155	255809.56406872204
14.236912656969274	234663.36557350762
14.379281783538968	213047.62334373716
14.523074601374358	201764.1320716171
14.6683053473881	219981.92541887806
14.814988400861985	206833.40447637145
14.963138284870602	192270.717783338
15.11276966771931	196948.93724516014
15.263897364396504	194390.47469465862
15.41653633804047	177040.61028344953
15.570701701420873	152781.5798450211
15.726408718435081	140769.42473699426
15.883672805619431	172771.7454799052
16.042509533675627	149743.91101350295
16.202934629012383	142581.72336819023
16.36496397530251	135571.9393619729
16.528613615055534	132602.74454653205
16.69389975120609	115691.00905814818
16.86083874871815	117605.83475782732
17.02944713620533	121394.9342494808
17.199741607567383	101484.48791415564
17.37173902364306	92553.51163492692
17.54545641387949	102916.24225246711
17.720910978018285	92573.49951000465
17.898120087798468	87905.43480429568
18.077101288676452	90564.46217211738
18.257872301563214	89026.39463242058
18.44045102457885	82847.66360347386
18.62485553482464	73758.4620496797
18.811104090172883	91807.87022944132
18.999215131074614	66897.83369817848
19.189207282385357	69305.64376675333
19.381099355209216	57189.117807875926
19.574910348761303	58514.654837055146
19.77065945224892	63277.23351838088
19.968366046771408	67328.6999988698
20.16804970723912	60905.488728773664
20.369730204311512	52598.39272985382
20.573427506354626	47965.84515362631
20.779161781418175	53171.06579291452
20.98695339923236	43131.9201935984
21.19682293322468	44013.48701408049
21.408791162556927	49350.594377975336
21.622879074182496	38971.29707581774
21.839107864924323	37746.46228928667
22.057498943573567	37759.732342724164
22.278073933009303	39309.59314161139
22.500854672339393	32162.32506603543
22.72586321906279	46788.10370224814
22.953121851253417	29638.711654730352
23.18265306976595	43647.843920033854
23.41447960046361	35785.187053656766
23.648624396468247	26570.774023429505
23.88511064043293	24441.026552823692
24.12396174683726	37307.21951634558
24.365201364305634	34764.23278895397
24.608853377948687	32758.125752753487
24.854941911728176	28017.515389455526
25.103491330845458	19858.70205745566
25.354526244153913	19653.400167819687
25.608071506595454	26883.57021080605
25.864152221661406	25422.98731517185
26.122793743878024	23035.85396501671
26.384021681316803	23962.24048236493
26.64786189812997	15675.98101857492
26.91434051711127	20685.961976719722
27.18348392228238	21535.539590972454
27.455318761505207	24197.81048506955
27.72987194912026	20012.443198147226
28.007170668611465	14387.776760255156
28.28724237529758	12908.757585608726
28.57011479905055	12714.583960118036
28.855815947041062	17353.494137373033
29.144374106511474	13491.203754140352
29.435817847576587	13987.268203729105
29.730176026052348	13303.143544620758
30.027477786312875	14289.150953049126
30.327752564176006	10815.026680303676
30.631030089817763	11322.57001125017
30.93734039071594	10324.453684614326
31.246713794623105	11351.794513922561
31.559180932569333	12530.401751486314
31.874772741895026	10312.97637125335
32.19352046931398	12014.010702301006
32.51545567400712	11996.975472140086
32.84061023074719	7548.352694400711
33.169016333054664	7996.440992122813
33.500706496385206	8131.804964279471
33.83571356134906	10842.11973683834
34.17407069696255	8102.6798382414945
34.51581140393218	6821.015697868381
34.8609695179715	6982.854721303032
35.209579213151216	6401.669638144594
35.56167500528272	5739.319201263837
35.917291755335555	5423.056079766579
36.27646467288891	6868.000562221377
36.639229319617804	6139.2782565956295
37.005621612813975	7187.785840286353
37.37567782894212	5063.507596640748
37.74943460723154	5641.236564174931
38.12692895330385	6684.016970618755
38.5081982428369	6261.375564040245
38.893280225265265	4528.994370955848
39.28221302751791	3866.605808387602
39.6750351577931	5155.6761240460155
40.071785509371026	3724.957948044667
40.47250336446474	3735.63937214446
40.87722839810939	3668.849362164644
41.28600068209048	4744.374625197157
41.69886068891139	4693.252958548724
42.1158492958005	4265.994326963851
42.53700778875851	3895.365442495765
42.962377866646094	3020.6719207772016
43.392001645312554	2869.8325957564134
43.825921661765676	2677.995249646458
44.264180878383335	2711.111189401904
44.70682268716717	2634.1457842952063
45.15389091403884	2732.537611880869
45.60542982317923	3074.1621213858334
46.06148412141103	2641.1177830275533
46.52209896262513	2234.7816496103987
46.98731995225138	2160.1372235203153
47.4571931517739	2769.2729933546666
47.93176508329164	2005.7651440094435
48.411082734124555	2432.220979131675
48.8951935614658	1857.374248976286
49.38414549708046	1693.301167781133
49.877986952051266	1744.5566211363832
50.37676682157178	1681.235031382532
50.88053448978749	1620.1726532727719
51.38933983468537	1561.271461413686
51.903233233032225	1504.4715486181583
52.422265565362544	1449.6921872385656
52.946488221016175	1396.865918716772
53.47595310322633	1345.93636352239
54.010712634258596	1296.8160380567974
54.550819760601186	1249.460364901184
55.0963279582072	1203.7976452852304
55.647291237789275	1159.7711360290496
56.20376415016716	1117.3299399698012
56.765801791668835	1076.4077776329357
57.33345980958552	1036.9620967481706
57.906794407681375	998.9347272008754
58.48586235175819	962.2719565041511
59.070720975275776	926.9397427307539
59.661428185028534	892.8749674418068
60.25804246687882	860.0425865886773
60.860622891547614	828.3944201945399
61.46922912046309	797.8926380699419
62.083921411667724	768.4948142400103
62.7047606257844	740.1584030757698
63.331808232042235	712.8553503590349
63.965126314362664	686.5409144896634
64.60477757750628	661.1813505920458
65.25082535328136	636.7456781062735
65.90333360681416	613.195389323787
66.56236694288232	590.5078539509758
67.22799061231113	568.6450346983784
67.90027051843424	547.5803993573278
68.57927322361859	527.2860172708995
69.26506595585477	507.7315374496146
69.95771661541333	488.8950752473997
70.65729378156746	470.74568121574237
71.36386671938313	453.26084819143966
72.07750538657696	436.4159651103084
72.79828044044274	420.1870314572073
73.52626324484716	404.5538526616853
74.26152587729563	389.49266212274193
75.00414113606858	374.985577961839
75.75418254742928	361.01076816269165
76.51172437290357	347.5490458910835
77.27684161663261	334.58447166072887
78.04961003279894	322.0959455701136
78.83010613312693	310.0700592796285
79.6184071944582	298.48727338436396
80.41459126640278	287.33202236580865
81.2187371790668	276.5903936797747
82.03092455085748	266.2445093882208
82.85123379636605	256.2822339332158
83.6797461343297	246.68753368492392
84.51654359567301	237.44749072354415
85.36170903162974	228.55009586912135
86.21532612194603	219.98075388276337
87.0774793831655	211.72997668065
87.94825417699715	203.78448912316722
88.82773671876713	196.13395426983686
89.71601408595481	188.7678105207443
90.61317422681435	181.67456337444858
91.5193059690825	174.8464573457943
92.43449902877332	168.2710965291362
93.35884401906105	161.94144680012528
