#wavelength	surface flux
0.7	473271.1711728651
0.7001166666666666	473996.75389093143
0.7002333527777778	474677.92833196983
0.700350058336574	475359.21630208136
0.7004667833462966	476040.61782018706
0.7005835278101878	476722.13290521427
0.7007002917314895	477403.7615760879
0.7008170751134447	478085.50385174
0.7009338779592968	478767.35975110426
0.7010507002722901	479403.56045647414
0.7011675420556689	479984.1695639428
0.701284403312678	480564.8754395952
0.7014012840465635	481145.678099561
0.7015181842605713	481726.5775599701
0.701635103957948	482307.5738369554
0.701752043141941	482888.6669466535
0.701869001815798	483469.856905204
0.7019859799827672	484094.3192161442
0.7021029776460976	484748.93331225106
0.7022199948090387	485403.65651070816
0.7023370314748403	486058.48882969795
0.7024540876467528	486713.43028740754
0.702571163328027	487368.48090202565
0.7026882585219152	488023.6406917479
0.7028053732316688	488678.9096747675
0.7029225074605406	489485.8770989831
0.7030396612117841	490351.5145714168
0.7031568344886527	491217.29631676275
0.7032740272944008	492083.22235906566
0.7033912396322832	492949.2927223761
0.7035084715055552	493815.5074307462
0.7036257229174727	494681.86650823476
0.7037429938712924	495548.3699789036
0.7038602843702709	496376.5719596373
0.7039775944176659	497198.39126683533
0.7040949240167356	498020.3475439183
0.7042122731707383	498842.44081371365
0.7043296418829335	499664.67109905445
0.7044470301565806	500487.03842277604
0.70456443799494	501309.5428077176
0.7046818654012724	502132.18427672377
0.7047993123788394	502890.62960083317
0.7049167789309024	503649.12750723364
0.7050342650607243	504407.75182995305
0.7051517707715678	505166.50259005924
0.7052692960666963	505925.37980862503
0.705386840949374	506684.38350672694
0.7055044054228656	507443.51370544644
0.7056219894904361	508188.1205421896
0.7057395931553511	508839.7530288644
0.705857216420877	509491.4941209542
0.7059748592902804	510143.3438365589
0.7060925217668288	510795.30219378363
0.70621020385379	511447.3692107344
0.7063279055544321	512099.5449055205
0.7064456268720246	512751.82929625676
0.7065633678098366	513420.686914114
0.7066811283711383	514134.99957911484
0.7067989085592001	514849.43129622657
0.7069167083772933	515563.9820852907
0.7070345278286895	516278.65196615347
0.707152366916661	516993.4409586632
0.7072702256444803	517708.3490826708
0.7073881040154211	518423.37635803345
0.7075060020327569	519176.91584538773
0.7076239196997625	519986.4945264229
0.7077418570197124	520796.20813723735
0.7078598139958823	521606.0567003203
0.7079777906315483	522416.0402381644
0.7080957869299869	523226.1587732643
0.7082138028944751	524036.4123281197
0.7083318385282908	524846.8009252347
0.7084498938347124	525533.3436339289
0.708567968817018	526114.8871809733
0.7086860634784875	526696.5276519428
0.7088041778224007	527278.2650629913
0.7089223118520377	527860.0994302742
0.7090404655706796	528442.0307699514
0.709158638981608	529024.0590981859
0.709276832088105	529606.1844311417
0.7093950448934531	530368.5410834932
0.7095132774009353	531216.9327855363
0.7096315296138355	532065.4658861968
0.7097498015354378	532914.1404090405
0.7098680931690269	533762.9563776372
0.7099864045178884	534611.9138155632
0.7101047355853081	535461.0127463952
0.7102230863745722	536310.2531937151
0.7103414568889679	537141.426040958
0.7104598471317828	537968.59987136
0.7105782571063047	538795.9115640664
0.7106966868158224	539623.3611420549
0.710815136263625	540450.9486283062
0.7109336054530023	541278.6740458057
0.7110520943872445	542106.5374175413
0.7111706030696424	542934.5387665059
0.7112891315034873	543678.5748248438
0.7114076796920712	544418.7220789711
0.7115262476386865	545158.9926909741
0.7116448353466263	545899.386681412
0.711763442819184	546639.9040708486
0.711882070059654	547380.5448798508
0.7120007170713306	548121.3091289875
0.7121193838575091	548864.9674989434
0.7122380704214853	549637.6470877144
0.7123567767665555	550410.4554564159
0.7124755028960166	551183.3926265127
0.7125942488131658	551956.4586194705
0.7127130145213015	552729.6534567625
0.7128318000237216	553502.9771598586
0.7129506053237256	554276.4297502395
0.7130694304246129	555048.2581781624
0.7131882753296837	555814.0858895853
0.7133071400422386	556580.0412389605
0.7134260245655789	557346.1242475599
0.7135449289030065	558112.3349366611
0.7136638530578235	558878.6733275434
0.7137827970333332	559645.1394414919
0.7139017608328388	560411.7332997925
0.7140207444596443	561178.2990550529
0.7141397479170543	561944.7145170134
0.7142587712083737	562711.2577148831
0.7143778143369084	563477.928669953
0.7144968773059646	564244.7274035157
0.7146159601188489	565011.653936867
0.7147350627788687	565778.7082913073
0.7148541852893318	566545.8904881397
0.7149733276535467	567240.9444467955
0.7150924898748222	567863.2528096616
0.715211671956468	568485.6648905884
0.7153308739017941	569108.1807068624
0.715450095714111	569730.8002757722
0.71556933739673	570353.5236146102
0.7156885989529628	570976.3507406713
0.7158078803861218	571599.2816712543
0.7159271816995193	571959.0616536975
0.7160465028964692	572164.3874735648
0.7161658439802853	572369.747514402
0.7162852049542819	572575.1417819127
0.7164045858217744	572780.5702818013
0.716523986586078	572986.0330197732
0.7166434072505089	573191.5300015347
0.716762847818384	573397.0612327933
0.7168823082930204	573941.9885502324
0.7170017886777359	574586.8454953771
0.7171212889758488	575231.8099166788
0.7172408091906781	575876.881832051
0.7173603493255433	576522.0612594093
0.7174799093837642	577167.3482166718
0.7175994893686615	577812.7427217608
0.7177190892835562	578458.2447926003
0.7178387091317702	579931.0351621245
0.7179583489166254	581487.1057728239
0.7180780086414448	583043.4357286261
0.7181976883095517	584600.0250727542
0.7183173879242699	586156.8738484399
0.718437107488924	587713.9820989219
0.7185568470068389	589271.3498674462
0.7186766064813399	590796.3449393539
0.7187963859157535	591505.7158139434
0.7189161853134061	592215.2049170119
0.719036004677625	592924.8122682644
0.7191558440117378	593634.5378874083
0.7192757033190732	594344.3817941564
0.7193955826029597	595054.3440082214
0.7195154818667269	595764.4245493227
0.7196354011137046	596446.6974137999
0.7197553403472235	597000.5075869798
0.7198752995706147	597554.410061855
0.7199952787872098	598108.4048538096
0.720115278000341	598662.4919782297
0.7202352972133411	599216.6714505039
0.7203553364295432	599770.9432860225
0.7204753956522815	600325.3075001813
0.7205954748848902	601022.378030332
0.7207155741307044	602033.9751354953
0.7208356933930594	603045.7408401743
0.7209558326752915	604057.6751724709
0.7210759919807375	605069.7781604909
0.7211961713127342	606082.049832341
0.7213163706746197	607094.4902161381
0.7214365900697322	608107.099339998
0.7215568295014103	608887.5298838789
0.721677088972994	609390.8609712337
0.7217973684878227	609894.2759471023
0.7219176680492374	610397.7748254675
0.7220379876605789	610901.357620312
0.722158327325189	611405.0243456226
0.7222786870464099	611908.7750153871
0.7223990668275843	612412.6096435968
0.7225194666720555	613116.0213188162
0.7226398865831676	613960.9359655525
0.7227603265642646	614805.9914313944
0.722880786618692	615651.1877398158
0.7230012667497951	616496.5249142881
0.7231217669609201	617342.0029782895
0.7232422872554135	618187.6219553008
0.7233628276366229	619033.3818688098
0.7234833881078956	620047.0793539512
0.7236039686725803	621124.651686545
0.7237245693340255	622202.4036145258
0.7238451900955812	623280.33516783
0.7239658309605971	624358.4463763918
0.7240864919324239	625436.7372701564
0.7242071730144127	626515.2078790701
0.724327874209915	627593.8582330829
0.7244485955222832	627718.5616850023
0.7245693369548704	627685.5291356961
0.7246900985110294	627652.4910809651
0.7248108801941148	627619.4475198917
0.7249316820074803	627586.3984515581
0.7250525039544815	627553.3438750464
0.7251733460384739	627520.2837894385
0.7252942082628137	627489.4440110556
0.7254150906308574	628748.3080990643
0.7255359931459625	630007.3819977544
0.7256569158114868	631266.6657420949
0.7257778586307888	632526.1593670598
0.7258988216072273	633785.8629076288
0.7260198047441617	635045.7763987862
0.7261408080449525	636305.8998755278
0.72626183151296	637521.1209572481
0.7263828751515454	638436.7466906531
0.7265039389640706	639352.5250283468
0.726625022953898	640268.455995764
0.7267461271243904	641184.5396183429
0.7268672514789111	642100.7759215249
0.7269883960208241	643017.1649307566
0.7271095607534942	643933.7066714905
0.7272307456802866	644820.590731456
0.7273519508045666	645627.0974176942
0.7274731761297006	646433.7385217131
0.7275944216590555	647240.514065916
0.7277156873959987	648047.4240727097
0.7278369733438982	648854.468564506
0.727958279506122	649661.6475637155
0.7280796058860397	650468.9610927592
0.7282009524870207	651099.0747564599
0.7283223193124353	651466.9960875415
0.7284437063656539	651834.9787388442
0.7285651136500483	652203.0227205893
0.7286865411689898	652571.1280429973
0.7288079889258514	652939.2947162933
0.7289294569240056	653307.5227507007
0.7290509451668262	653675.8121564476
0.7291724536576875	654174.4857163562
0.7292939823999636	654781.2288345679
0.7294155313970303	655388.0730766339
0.7295371006522632	655995.0184594067
0.7296586901690385	656602.0649997428
0.7297802999507332	657209.212714502
0.7299019300007252	657816.4616205485
0.7300235803223919	658423.8117347446
0.7301452509191123	659336.8325313439
0.7302669417942654	660391.0470242403
0.7303886529512311	661445.4372195525
0.7305103843933897	662500.0031465642
0.7306321361241218	663554.7448345629
0.7307539081468093	664609.6623128448
0.7308757004648336	665664.7556107042
0.7309975130815778	666720.0247574478
0.7311193460004248	668000.5581739249
0.7312411992247582	669332.2621509954
0.7313630727579622	670664.1880787286
0.7314849666034219	671996.3359941177
0.7316068807645224	673328.7059341584
0.7317288152446498	674661.2979358565
0.7318507700471907	675994.1120362222
0.7319727451755319	677327.1482722709
0.732094740633061	677986.6766233234
0.7322167564231665	678615.9833552003
0.7323387925492371	679245.3949715325
0.7324608490146619	679874.9114898007
0.732582925822831	680504.5329274887
0.7327050229771347	681134.2593020822
0.7328271404809642	681764.0906310722
0.7329492783377112	682385.4925380327
0.7330714365507675	682923.095887768
0.7331936151235259	683460.7888380614
0.7333158140593796	683998.5714038458
0.7334380333617229	684536.4436000588
0.7335602730339499	685074.405441638
0.7336825330794556	685612.4569435242
0.7338048135016354	686150.5981206597
0.7339271143038857	686859.6803821416
0.734049435489603	688141.3501479247
0.7341717770621846	689423.2335253358
0.7342941390250283	690705.3305499757
0.7344165213815324	691987.6412574527
0.734538924135096	693270.1656833827
0.7346613472891185	694552.9038633821
0.734783790847	695835.8558330785
0.7349062548121412	696781.072315094
0.7350287391879431	697129.1071203429
0.7351512439778078	697477.1999313935
0.7352737691851374	697825.350757912
0.735396314813335	698173.5596095688
0.7355188808658037	698521.8264960335
0.7356414673459482	698870.1514269799
0.7357640742571725	699218.5344120814
0.7358867016028818	699780.8649380809
0.7360093493864824	700554.5243330689
0.7361320176113801	701328.3126712883
0.736254706280982	702102.2299742306
0.7363774153986956	702876.2762633914
0.7365001449679286	703650.4515602652
0.7366228949920899	704424.7558863559
0.7367456654745885	705199.1892631676
0.7368684564188344	706064.1877627551
0.7369912678282374	706980.4429786361
0.7371140997062088	707896.8509037201
0.7372369520561599	708813.4115634593
0.7373598248815024	709730.1249833063
0.7374827181856494	710646.9911887249
0.7376056319720137	711564.0102051777
0.7377285662440091	712481.1820581334
0.7378515210050496	713308.649081252
0.7379744962585505	714109.2185696809
0.738097492007927	714909.9214863577
0.7382205082565949	715710.7578535201
0.738343545007971	716511.7276934102
0.7384666022654723	717312.8310282745
0.7385896800325165	718114.06788036
0.7387127783125219	718915.4382719218
0.7388358971089073	719741.2382974717
0.7389590364250921	720569.612912711
0.7390821962644963	721398.1255903868
0.7392053766305403	722226.7763535078
0.7393285775266454	723055.5652250898
0.7394517989562333	723884.4922281512
0.7395750409227259	724713.5573857118
0.7396983034295463	725533.8061944235
0.739821586480118	726154.9916079883
0.7399448900778645	726776.2805524541
0.7400682142262109	727397.6730450792
0.740191558928582	728019.169103119
0.7403149241884034	728640.7687438348
0.7404383100091014	729262.4719844909
0.7405617163941028	729884.2788423533
0.7406851433468352	730451.6480158189
0.7408085908707264	730769.5983336564
0.7409320589692048	731087.6016432135
0.7410555476456997	731405.6579533224
0.7411790569036406	731723.7672728162
0.7413025867464579	732041.9296105298
0.7414261371775823	732360.1449752998
0.7415497082004452	732678.4133759638
0.7416732998184786	733014.105625565
0.741796912035115	733387.1176189447
0.7419205448537874	733760.1917809899
0.7420441982779297	734133.328122062
0.742167872310976	734506.5266525247
0.7422915669563612	734879.7873827425
0.7424152822175206	735253.1103230818
0.7425390180978901	735626.495483911
0.7426627746009065	736176.1536024193
0.7427865517300065	736940.7168247483
0.7429103494886282	737705.4074742818
0.7430341678802096	738470.2255722563
0.7431580069081896	739235.1711399137
0.7432818665760077	740000.2441985002
0.7434057468871037	740765.4447692625
0.7435296478449182	741530.7728734527
0.7436535694528923	742146.0858882116
0.7437775117144678	742658.7242099026
0.7439014746330868	743171.4479713131
0.7440254582121922	743684.2571866843
0.7441494624552276	744197.1518702583
0.7442734873656368	744710.1320362793
0.7443975329468645	745223.1976989952
0.7445215992023557	745736.3488726547
0.7446456861355559	746093.2882517744
0.7447697937499119	746392.7113382015
0.7448939220488703	746692.1843284764
0.7450180710358784	746991.7072309161
0.7451422407143843	747291.2800538396
0.7452664310878367	747590.9028055671
0.7453906421596846	747890.5754944197
0.7455148739333779	748190.2981287205
0.7456391264123667	748385.7617805747
0.7457633996001021	748564.5795875941
0.7458876935000356	748743.4271975817
0.7460120081156189	748922.3046155041
0.7461363434503048	749101.2118463294
0.7462606995075466	749280.1488950268
0.7463850762907978	749459.1157665652
0.7465094738035127	749637.9119878017
0.7466338920491467	749764.2940490701
0.746758331031155	749890.6971740157
0.7468827907529935	750017.1213661485
0.7470072712181189	750143.5666289801
0.7471317724299886	750270.0329660221
0.7472562943920602	750396.5203807869
0.7473808371077922	750523.0288767876
0.7475054005806435	750630.6836656561
0.7476299848140736	750622.0950812226
0.7477545898115426	750613.5050653584
0.7478792155765113	750604.9136178248
0.7480038621124406	750596.3207383833
0.7481285294227926	750587.7264267952
0.7482532175110298	750579.1306828219
0.7483779263806148	750570.5335062246
0.7485026560350116	750512.1784547889
0.7486274064776842	750319.1497307104
0.748752177712097	750126.0888351783
0.7488769697417158	749932.9957628299
0.749001782570006	749739.8705083029
0.7491266162004343	749546.7130662337
0.7492514706364677	749353.5234312573
0.7493763458815739	749160.3015980083
0.7495012419392209	748860.7977202529
0.7496261588128773	748408.4971171848
0.7497510965060128	747956.1211306826
0.7498760550220971	747503.6697481829
0.7500010343646007	747051.1429571193
0.7501260345369949	746598.5407449236
0.750251055542751	746145.8630990264
0.7503760973853414	745693.1100068546
0.7505011600682389	745082.7418155323
0.750626243594917	744340.7298988341
0.7507513479688495	743598.5943134844
0.7508764731935109	742856.3350388702
0.7510016192723765	742113.9520543766
0.7511267862089218	741371.4453393864
0.7512519740066232	740628.8148732767
0.7513771826689577	739886.0606354222
0.7515024121994025	738926.5799837338
0.7516276626014359	737865.9471040762
0.751752933878536	736805.1374522739
0.7518782260341824	735744.1509988626
0.7520035390718548	734682.9877143751
0.7521288729950334	733621.6475693409
0.7522542278071992	732560.1305342824
0.7523796035118337	731498.4365797176
0.7525050001124189	730088.0411043453
0.7526304176124378	728601.6142632349
0.7527558560153731	727114.9396843194
0.752881315324709	725628.0173263061
0.7530067955439299	724140.8471478992
0.7531322966765205	722653.4291077979
0.7532578187259665	721165.7631646894
0.7533833616957542	719677.8492772572
0.75350892558937	717724.8911747445
0.7536345104103016	715749.7515321022
0.7537601161620366	713774.2826995206
0.7538857428480638	711798.4846221315
0.7540113904718717	709822.3572450654
0.7541370590369503	707845.900513437
0.7542627485467898	705869.114372352
0.7543884590048808	703837.9047280836
0.7545141904147151	701266.9246641588
0.7546399427797842	698695.5161035607
0.7547657161035808	696123.6789748688
0.754891510389598	693551.4132066556
0.7550173256413296	690978.71872748
0.7551431618622698	688405.5954658919
0.7552690190559135	685832.0433504273
0.7553948972257561	683070.3985412872
0.7555207963752938	679678.3768397927
0.755646716508023	676285.78980135
0.755772657627441	672892.637331733
0.7558986197370455	669498.9193367038
0.756024602840335	666104.6357220098
0.7561506069408084	662709.7863933799
0.7562766320419653	659314.3712565256
0.7564026781473054	655505.6371273705
0.75652874526033	650969.9328903814
0.7566548333845401	646433.4727026838
0.7567809425234375	641896.2564382898
0.7569070726805247	637358.2839711877
0.7570332238593047	632819.5551753417
0.7571593960632813	628280.069924692
0.7572855892959586	623739.828093167
0.7574118035608413	618727.8302888137
0.7575380388614347	613254.203198461
0.7576642952012449	607779.6638369244
0.7577905725837782	602304.2120521687
0.7579168710125422	596827.8476921059
0.7580431904910444	591350.5706046476
0.7581695310227928	585872.3806376818
0.7582958926112967	580393.2776390478
0.7584222752600652	573971.6758018316
0.7585486789726085	567008.0986738345
0.7586751037524372	560043.3609496467
0.7588015496030628	553077.4624358246
0.7589280165279966	546110.4029389306
0.7590545045307512	539142.1822654539
0.7591810136148396	532172.800221865
0.7593075437837755	525202.2566145919
0.7594340950410726	516969.924330621
0.7595606673902461	508370.4660185351
0.7596872608348112	499769.57446338853
0.7598138753782836	491167.24942632555
0.75994051102418	482563.4906684151
0.7600671677760173	473958.2979507183
0.7601938456373134	465351.67103422864
0.7603205446115863	456743.60967992444
0.7604472647023548	446395.15492783336
0.7605740059131385	435872.12314414897
0.7607007682474575	425347.33752182365
0.7608275517088319	414820.7977685846
0.7609543563007835	404292.5035920301
0.7610811820268336	393762.4546997858
0.7612080288905045	383230.650799413
0.7613348968953197	372591.3093150806
0.7614617860448022	359779.7757263468
0.7615886963424764	346966.10688199755
0.7617156277918667	334150.30242618656
0.7618425803964988	321332.36200295575
0.7619695541598982	308512.28525632445
0.7620965490855914	295690.07183024485
0.7622235651771058	282865.72136857937
0.7623506024379685	270014.91526240524
0.7624776608717082	257055.3777986825
0.7626047404818536	244093.68041204847
0.7627318412719337	231129.82274253896
0.762858963245479	218163.80443007642
0.7629861064060198	205195.6251145606
0.7631132707570876	192225.28443581206
0.7632404563022137	179252.78203362873
0.7633676630449308	166728.47964437015
0.7634948909887717	155160.76124619582
0.7636221401372697	143591.1148949702
0.7637494104939593	132019.54026934181
0.7638767020623748	120446.03704795917
0.7640040148460518	108870.60490935978
0.7641313488485262	97293.24353207106
0.7642587040733344	85713.95259453965
0.7643860805240132	75903.4438512256
0.7645134782041005	68204.29033740237
0.7646408971171346	60503.853631323625
0.764768337266654	52802.13351913003
0.7648957986561985	45099.12978691524
0.7650232812893079	37394.842220746104
0.7651507851695227	29689.270606649203
0.7652783103003843	21982.414730617573
0.7654058566854343	17584.123518374203
0.7655334243282153	15440.84798972455
0.7656610132322699	13297.215248489581
0.765788623401142	11153.225235129059
0.7659162548383754	9008.877890100874
