#wavelength	surface flux
0.8	13827.872806180838
0.8002000000000001	13865.376071032253
0.8004000500000003	13907.403114960354
0.8006001500125003	13949.486265567228
0.8008003000500035	13991.579936961758
0.8010005001250161	14033.684131774155
0.8012007502500472	14075.798852635195
0.8014010504376099	14114.60870620829
0.8016014007002193	14152.317705884463
0.8018018010503944	14190.036132810557
0.8020022515006572	14227.763989343397
0.8022027520635323	14265.50127784034
0.8024033027515483	14303.458600868722
0.8026039035772362	14341.63179322527
0.8028045545531306	14379.814528879906
0.8030052556917691	14418.006810218474
0.803206007005692	14456.208639627344
0.8034068085074435	14495.432180399757
0.8036076602095705	14537.50276254576
0.8038085621246229	14579.583862337266
0.8040095142651542	14621.675482403747
0.8042105166437206	14663.777625375229
0.8044115692728815	14705.857723572977
0.8046126721651998	14746.547435400482
0.8048138253332411	14787.247319655911
0.8050150287895745	14827.957378882442
0.805216282546772	14868.677615623767
0.8054175866174087	14909.408032424257
0.8056189410140631	14949.777804899095
0.8058203457493168	14990.052701744675
0.8060218008357541	15030.337667314414
0.8062233062859632	15070.632704125566
0.8064248621125346	15110.937814695893
0.806626468328063	15153.158387454801
0.8068281249451449	15197.026011351762
0.8070298319763813	15240.90460215475
0.8072315894343755	15284.794162605405
0.8074333973317341	15328.69469544619
0.8076352556810671	15369.850062661113
0.8078371644949874	15404.381227686203
0.8080391237861113	15438.921025502557
0.8082411335670578	15473.469458268344
0.8084431938504498	15508.02652814236
0.8086453046489125	15542.347489690435
0.8088474659750746	15572.120269776462
0.8090496778415686	15601.90049305755
0.809251940261029	15631.688161394439
0.8094542532460944	15661.483276648434
0.8096566168094059	15691.285840681212
0.8098590309636085	15724.601353006372
0.8100614957213493	15758.745684558258
0.8102640110952797	15792.898552193039
0.8104665770980536	15827.05995804474
0.8106691937423283	15861.229904247917
0.8108718610407639	15896.970780792282
0.8110745790060241	15933.915268544191
0.8112773476507757	15970.86899241807
0.8114801669876885	16007.83195472291
0.8116830370294355	16044.804157768303
0.8118859577886929	16079.908131654167
0.8120889292781401	16111.12128965488
0.8122919515104597	16142.342250945092
0.8124950244983374	16173.571017475628
0.8126981482544621	16204.807591197792
0.8129013227915257	16236.719380225491
0.8131045481222237	16276.28104979277
0.8133078242592543	16315.852609777443
0.8135111512153191	16355.434062652103
0.813714529003123	16395.025410889986
0.8139179576353739	16434.626656964934
0.8141214371247829	16513.13183511825
0.8143249674840641	16599.19884651626
0.814528548725935	16685.287374667067
0.8147321808631167	16771.39742495003
0.8149358639083326	16857.529002745538
0.8151395978743097	16923.928953235772
0.8153433827737784	16976.999439911673
0.8155472186194719	17030.08319420922
0.8157511054241268	17083.18021944533
0.815955043200483	17136.29051893779
0.8161590319612831	17186.430363118776
0.8163630717192736	17231.115415448694
0.8165671624872033	17275.811639041647
0.8167713042778252	17320.519036690544
0.8169754971038948	17365.237611188873
0.8171797409781707	17408.616199135282
0.8173840359134155	17441.21885352149
0.8175883819223938	17473.82965857125
0.8177927790178745	17506.448616322294
0.8179972272126291	17539.075728812782
0.8182017265194322	17571.710998081362
0.8184062769510622	17635.73726454282
0.8186108785203001	17704.60889190761
0.8188155312399301	17773.497737179146
0.8190202351227402	17842.403804662077
0.819224990181521	17911.327098661837
0.8194297964290664	17964.510723411295
0.8196346538781738	18008.21020049713
0.8198395625416434	18051.92060245222
0.8200445224322789	18095.641932007817
0.820249533562887	18139.37419189579
0.8204545959462778	18185.880690210513
0.8206597095952644	18236.846280530128
0.8208648745226633	18287.824612247365
0.8210700907412941	18338.81568854752
0.8212753582639793	18389.819512616697
0.8214806771035456	18434.823857022817
0.8216860472728215	18442.79678692827
0.8218914687846397	18450.7717100662
0.822096941651836	18458.748626934917
0.822302465887249	18466.72753803285
0.8225080415037209	18474.70844385856
0.8227136685140968	18531.146547137254
0.8229193469312254	18593.099438103316
0.8231250767679583	18655.067817292136
0.8233308580371503	18717.051688575724
0.8235366907516598	18779.051055827174
0.8237425749243477	18846.40929049803
0.8239485105680789	18916.616443477065
0.824154497695721	18986.8411482443
0.824360536320145	19057.08340918774
0.8245666264542252	19127.34323069641
0.8247727681108388	19192.269400240315
0.8249789613028664	19249.547851529656
0.8251852060431922	19306.840622431868
0.825391502344703	19364.14771652678
0.8255978502202894	19421.469137395266
0.8258042496828445	19478.355020413215
0.8260107007452654	19533.070308279493
0.8262172034204517	19587.799274967685
0.8264237577213068	19642.541923897563
0.8266303636607373	19697.298258489696
0.8268370212516525	19752.06828216545
0.8270437305069654	19786.033479474125
0.8272504914395923	19818.380336134815
0.8274573040624523	19850.73527950968
0.8276641683884679	19883.09831162036
0.8278710844305652	19915.469434489107
0.8280780522016729	19964.904146054476
0.8282850717147234	20022.147251896964
0.8284921429826521	20079.40466851585
0.8286992660183978	20136.676399488937
0.8289064408349024	20193.96244839473
0.8291136674451112	20243.286325487537
0.8293209458619727	20282.564575163444
0.8295282760984382	20321.85264440172
0.829735658167463	20361.15053565735
0.8299430920820048	20400.458251385742
0.8301505778550254	20439.364879743516
0.8303581154994891	20476.641155457433
0.8305657050283641	20513.926750240313
0.8307733464546212	20551.22166642186
0.8309810397912352	20588.525906332517
0.8311887850511829	20625.839472303076
0.8313965822474458	20711.500104499773
0.8316044313930077	20799.425761961866
0.8318123325008561	20887.37340083841
0.8320202855839813	20975.343026624625
0.8322282906553774	21063.334644817296
0.8324363477280413	21124.69827653882
0.8326444568149735	21175.34805947616
0.8328526179291771	21226.010504859176
0.8330608310836596	21276.68561585361
0.8332690962914304	21327.373395625727
0.8334774135655034	21375.52480993568
0.833685782918895	21420.840903606888
0.8338942043646247	21466.168326301486
0.834102677915716	21511.507080851792
0.834311203585195	21556.857170090698
0.8345197813860912	21610.523404392527
0.8347284113314379	21692.157814067505
0.8349370934342709	21773.812632344852
0.8351458277076294	21855.48786432667
0.8353546141645565	21937.183515116623
0.8355634528180977	22018.899589819237
0.8357723436813022	22019.064275504876
0.8359812867672226	22018.22179825522
0.8361902820889144	22017.379110386253
0.8363993296594368	22016.53621184532
0.8366084294918518	22015.69310257975
0.8368175815992247	22075.395922928896
0.8370267859946247	22155.96638161284
0.8372360426911234	22236.556982911436
0.8374453517017962	22317.167731860347
0.8376547130397217	22397.798633496484
0.8378641267179816	22467.548216226605
0.8380735927496613	22526.498137685918
0.8382831111478488	22585.462796625565
0.8384926819256358	22644.442196729913
0.8387023050961173	22703.436341684337
0.8389119806723914	22761.48429351763
0.8391217086675596	22816.842353517637
0.8393314890947265	22872.214253032602
0.8395413219670003	22927.59999552245
0.8397512072974922	22982.99958444796
0.8399611450993165	23039.089389058285
0.8401711353855914	23128.781299414528
0.8403811781694378	23218.495632748334
0.8405912734639802	23308.232394665498
0.8408014212823464	23397.991590773185
0.8410116216376671	23487.773226679885
0.8412218745430766	23569.648988406265
0.8414321800117124	23649.238384015836
0.8416425380567154	23728.84767697435
0.8418529486912297	23808.476872256124
0.8420634119284025	23888.125974836646
0.8422739277813847	23954.003308068357
0.8424844962633302	24007.746103953545
0.842695117387396	24061.502335537636
0.8429057911667428	24115.272006179624
0.8431165176145345	24169.055119239296
0.8433272967439382	24225.672145333403
0.8435381285681244	24289.18322743782
0.8437490131002665	24352.710187312758
0.8439599503535415	24416.25302892762
0.84417094034113	24479.81175625293
0.8443819830762154	24543.56542818849
0.8445930785719846	24610.94211538248
0.8448042268416277	24678.33564674823
0.8450154278983382	24745.74602649681
0.8452266817553128	24813.173258840325
0.8454379884257517	24880.617347991934
0.8456493479228583	24949.29375504813
0.845860760259839	25018.280027831202
0.846072225449904	25087.28354718247
0.8462837435062666	25156.30431741359
0.8464953144421433	25225.342342837306
0.8467069382707537	25290.688627848773
0.8469186150053215	25353.160197905094
0.847130344659073	25415.647385853947
0.8473421272452377	25478.150195599726
0.8475539627770492	25540.668631048007
0.8477658512677435	25605.539098051897
0.8479777927305605	25675.386824544235
0.8481897871787432	25745.25201296818
0.848401834625538	25815.134667689268
0.8486139350841944	25885.034793073995
0.8488260885679657	25954.767832954512
0.8490382950901076	26022.26857868452
0.8492505546638802	26089.786199601
0.8494628673025462	26157.320699922682
0.8496752330193721	26224.872083869544
0.8498876518276269	26292.440355662304
0.8501001237405839	26356.678983060814
0.8503126487715191	26420.26564266367
0.850525226933712	26483.86819893139
0.8507378582404455	26547.48665583818
0.8509505427050057	26611.121017359234
0.8511632803406821	26678.14694103031
0.8513760711607672	26747.501325731766
0.8515889151785576	26816.873049029502
0.8518018124073523	26886.262115258003
0.8520147628604541	26955.668528753024
0.8522277665511693	27025.944834169135
0.8524408234928071	27097.815378926607
0.8526539336986805	27169.70389132029
0.8528670971821053	27241.610375842076
0.8530803139564007	27313.534836984905
0.8532935840348901	27385.450673817613
0.8535069074308987	27457.159793195395
0.8537202841577566	27528.886839853083
0.8539337142287962	27600.631818272443
0.8541471976573534	27672.394732936362
0.8543607344567677	27744.17558832896
0.8545743246403821	27817.08718423844
0.8547879682215422	27890.1937326596
0.8550016652135977	27963.31855771786
0.8552154156299011	28036.461663982387
0.8554292194838088	28109.623056023534
0.8556430767886797	28180.886740527305
0.855856987557877	28251.004897640818
0.8560709518047664	28321.140584293564
0.8562849695427177	28391.293804867997
0.8564990407851035	28461.464563747595
0.8567131655452999	28532.26112446197
0.8569273438366862	28604.07203722508
0.8571415756726455	28675.900902716392
0.8573558610665638	28747.747725424106
0.8575702000318304	28819.612509837418
0.8577845925818384	28891.597776603867
0.857999038729984	28964.24139337094
0.8582135384896665	29036.903171042184
0.858428091874289	29109.583114157853
0.8586426988972576	29182.28122725928
0.8588573595719821	29254.997514889008
0.8590720739118751	29327.86810631183
0.8592868419303532	29400.772964893895
0.8595016636408359	29473.696049690607
0.8597165390567462	29546.63736525849
0.8599314681915105	29619.59691615529
0.8601464510585584	29692.4397801205
0.860361487671323	29765.229236587908
0.8605765780432408	29838.03689041941
0.8607917221877518	29910.862746164432
0.8610069201182988	29983.706808373372
0.8612221718483286	30055.029291283183
0.8614374773912907	30124.14978869501
0.8616528367606385	30193.287566231167
0.8618682499698288	30262.442628211757
0.8620837170323213	30331.614978957827
0.8622992379615795	30402.3921602574
0.8625148127710699	30481.04315055554
0.8627304414742627	30559.713803601262
0.8629461240846313	30638.404124310255
0.8631618606156526	30717.114117599434
0.8633776510808066	30795.843788386923
0.8635934954935769	30870.07420672472
0.8638093938674504	30943.95275740289
0.8640253462159173	31017.84977771873
0.8642413525524714	31091.76527228965
0.8644574128906095	31165.69924573419
0.8646735272438323	31243.349675645157
0.8648896956256433	31322.739178062013
0.8651059180495498	31402.14852785448
0.8653221945290621	31481.577729984314
0.8655385250776946	31561.026789414795
0.8657549097089641	31642.31363332707
0.8659713484363913	31725.94813901347
0.8661878412735006	31809.603553326335
0.866404388233819	31893.279881492763
0.8666209893308775	31976.977128741193
0.8668376445782103	32059.036628230984
0.8670543539893549	32134.346759866887
0.8672711175778525	32209.67571903575
0.8674879353572469	32285.02351044432
0.8677048073410862	32360.39013880077
0.8679217335429217	32435.775608814358
0.8681387139763074	32506.53642558401
0.8683557486548015	32577.08425532754
0.8685728375919655	32647.649722028593
0.8687899808013633	32718.232830096167
0.8690071782965637	32788.83358394085
0.869224430091138	32877.11227467134
0.8694417361986609	32972.598983406475
0.8696590966327107	33068.10956381877
0.869876511406869	33163.64402187618
0.8700939805347206	33259.20236354805
0.8703115040298544	33352.25827665575
0.870529081905862	33442.44914126016
0.8707467141763385	33532.66255358068
0.8709644008548827	33622.89851925428
0.8711821419550964	33713.15704391925
0.8713999374905854	33801.878241284285
0.871617787474958	33885.23789067203
0.8718356919218269	33968.618379972206
0.8720536508448075	34052.019714394715
0.8722716642575187	34135.44189915077
0.8724897321735832	34218.88493945306
0.8727078546066265	34299.079980309165
0.8729260315702784	34379.24533983873
0.873144263078171	34459.43074070809
0.8733625491439405	34539.63618792768
0.8735808897812266	34619.86168650911
0.8737992850036719	34691.9507218771
0.874017734824923	34761.16887438171
0.8742362392586293	34830.40433142441
0.874454798318444	34899.65709733137
0.8746734120180236	34968.92717642981
0.8748920803710283	35040.29908098873
0.875110803391121	35113.783560378164
0.8753295810919689	35187.28641088749
0.875548413487242	35260.80763710944
0.8757673005906139	35334.34724363795
0.8759862424157616	35413.59536113742
0.8762052389763657	35509.32793898043
0.8764242902861098	35605.08444996784
0.8766433963586814	35700.86490008302
0.8768625572077712	35796.669295310756
0.8770817728470732	35892.31215821383
0.8773010432902849	35973.49685414633
0.8775203685511077	36054.70184625294
0.8777397486432454	36135.92713960747
0.8779591835804065	36217.17273928544
0.8781786733763015	36298.43865036322
0.8783982180446457	36372.47495668315
0.878617817599157	36444.37305602348
0.8788374720535569	36516.28912988862
0.8790571814215703	36588.2231827722
0.8792769457169257	36660.17521916901
0.879496764953355	36715.687629635744
0.8797166391445934	36756.41744231823
0.8799365683043796	36797.15743745389
0.8801565524464557	36837.90761758833
0.8803765915845676	36878.66798526785
0.8805966857324639	36948.37743974205
0.880816834903897	37090.790154571325
0.881037039112623	37233.23847257936
0.8812572983724012	37375.722402666885
0.8814776126969944	37518.24195373699
0.8816979821001687	37657.90235630618
0.8819184065956938	37729.454103461576
0.8821388861973429	37801.02373855383
0.8823594209188923	37872.61126605479
0.882580010774122	37944.21669043759
0.8828006557768155	38015.84001617653
0.8830213559407598	38093.60890338891
0.8832421112797452	38172.93840041718
0.8834629218075651	38252.28772981966
0.8836837875380171	38331.65689655452
0.8839047084849018	38411.04590558107
0.884125684662023	38491.111830640155
0.8843467160831886	38571.72432889061
0.8845678027622095	38652.35698026562
0.8847889447129001	38733.009789803495
0.8850101419490785	38813.682762543736
0.8852313944845657	38898.9187161673
0.885452702333187	38994.11963846974
0.8856740655087704	39089.34436100273
0.8858954840251476	39184.59288971633
0.8861169578961539	39279.86523056207
0.886338487135628	39372.51785909311
0.886560071757412	39430.01511629178
0.8867817117753515	39487.52674780475
0.8870034072032955	39545.05275722563
0.8872251580550963	39602.5931481488
0.8874469643446101	39660.14792416973
0.8876688260856963	39766.778965163816
0.8878907432922178	39883.59064797882
0.8881127159780409	40000.43153371445
0.8883347441570356	40117.30162967166
0.8885568278430749	40234.20094315273
0.8887789670500358	40345.702420989655
0.8890011617917983	40453.38196052898
0.8892234120822464	40561.08841995324
0.8894457179352669	40668.82180599227
0.8896680793647509	40776.58212537789
0.8898904963845921	40871.40793791548
0.8901129690086883	40941.526674985194
0.8903354972509405	41011.66294173917
0.8905580811252535	41081.81674255987
0.8907807206455347	41151.9880818307
0.8910034158256963	41220.5042782568
0.8912261666796527	41274.08887225173
0.8914489732213227	41327.686862395174
0.8916718354646282	41381.2982520362
0.8918947534234944	41434.92304452459
0.8921177271118502	41488.561243211065
0.8923407565436284	41492.32016380858
0.8925638417327644	41487.9411701363
0.8927869826931977	41483.561081715605
0.8930101794388711	41479.1798982728
0.8932334319837308	41474.79761953414
0.8934567403417267	41478.278098933595
0.8936801045268123	41486.64590783844
0.8939035245529441	41495.01580869551
0.8941270004340824	41503.3878020278
0.894350532184191	41511.76188835842
0.8945741198172371	41623.74945859987
0.8947977633471915	41907.59215754236
0.8950214627880284	42191.50581715958
0.8952452181537254	42475.49045519154
0.8954690294582639	42759.54608938317
0.8956928967156286	43016.95009648652
0.8959168199398075	43100.998033884716
0.8961407991447926	43185.06698326727
0.8963648343445789	43269.156949887176
0.896588925553165	43353.26793899869
0.8968130727845534	43437.399955857494
0.8970372760527496	43510.62709970327
0.8972615353717629	43582.50549946466
0.8974858507556059	43654.401868826004
0.8977102222182949	43726.316212279664
0.8979346497738496	43798.24853431923
0.8981591334362931	43985.37842035512
0.8983836732196523	44235.5440933852
0.8986082691379572	44485.77230783337
0.8988329212052417	44736.06307933516
0.8990576294355432	44986.41642353004
0.8992823938429022	45184.130209593204
0.8995072144413631	45303.5320297224
0.8997320912449734	45422.963700306595
0.8999570242677847	45542.4252288084
0.9001820135238516	45661.91662269234
0.9004070590272328	45776.18852497363
0.9006321607919896	45862.970035886974
0.9008573188321878	45949.773242178126
0.9010825331618959	46036.598149270816
0.9013078037951865	46123.44476259029
0.9015331307461353	46210.31308756305
0.9017585140288219	46319.52627311918
0.9019839536573292	46430.68951218306
0.9022094496457435	46541.88054205663
0.9024350020081551	46653.09936968779
0.9026606107586572	46764.34600202582
0.902886275911347	46918.497298837734
0.9031119974803249	47093.356761036135
0.9033377754796951	47268.25993810009
0.903563609923565	47443.20684095823
0.903789500826046	47618.1974805422
0.9040154482012526	47769.042914261576
0.904241452063303	47888.591382099825
0.9044675124263188	48008.169737055
0.9046936293044254	48127.77798659891
0.9049198027117517	48247.416138205255
0.9051460326624297	48364.041622004406
0.9053723191705955	48467.74026002638
0.9055986622503881	48571.46482270777
0.9058250619159507	48675.21531652982
0.9060515181814298	48778.9917479754
0.9062780310609752	48882.79412352877
0.9065046005687405	48874.99174306238
0.906731226718883	48860.959864917044
0.9069579095255627	48846.9244788022
0.907184649002944	48832.88558384081
0.907411445165195	48818.84317915568
0.9076382980264862	48979.889789843175
0.907865207600993	49213.692263933764
0.9080921739028933	49447.55318864281
0.9083191969463691	49681.472578582994
0.9085462767456058	49915.45044837078
0.9087734133147922	50094.63597285368
0.9090006066681211	50210.512893891915
0.909227856819788	50326.41878416026
0.9094551637839932	50442.353650901336
0.9096825275749393	50558.31750135906
0.9099099482068329	50679.82896565217
0.9101374256938848	50820.98408919256
0.9103649600503083	50962.174501513786
0.9105925512903209	51103.400211438064
0.9108201994281437	51244.66122778996
0.9110479044780008	51385.95755939579
0.9112756664541204	51528.06160193315
0.911503485370734	51670.2188502799
0.9117313612420768	51812.41163793874
0.9119592940823873	51954.63997379446
0.912187283905908	52096.90386673418
0.9124153307268845	52135.34976739524
0.9126434345595664	52136.112508289494
0.9128715954182063	52136.87543986897
0.9130998133170609	52137.638562181346
0.9133280882703902	52138.4018752743
0.913556420292458	52222.84055590179
0.9137848093975312	52393.595791433785
0.9140132555998806	52564.39371577465
0.9142417589137806	52735.234339596595
