#wavelength	surface flux
0.8	84908775.7543415
0.8002000000000001	85434151.67161706
0.8004000500000003	85144038.49795973
0.8006001500125003	84845614.22655742
0.8008003000500035	84547115.34908724
0.8010005001250161	84248541.84689754
0.8012007502500472	83949893.70133275
0.8014010504376099	84142658.13979782
0.8016014007002193	84500103.98131864
0.8018018010503944	84857639.18429983
0.8020022515006572	85215263.77108192
0.8022027520635323	85572977.7640104
0.8024033027515483	85866440.87818864
0.8026039035772362	86096926.36457236
0.8028045545531306	86327469.47232768
0.8030052556917691	86558070.21586007
0.803206007005692	86788728.60957812
0.8034068085074435	86983503.99667908
0.8036076602095705	87077581.1042681
0.8038085621246229	87171681.73113394
0.8040095142651542	87265805.88315655
0.8042105166437206	87359953.56621714
0.8044115692728815	87446161.73554282
0.8046126721651998	87189886.61831665
0.8048138253332411	86933547.43231137
0.8050150287895745	86677144.16150935
0.805216282546772	86420676.7898897
0.8054175866174087	86164145.30142727
0.8056189410140631	85960433.6427419
0.8058203457493168	85771640.64754531
0.8060218008357541	85582800.45410015
0.8062233062859632	85393913.05060655
0.8064248621125346	85204978.42526218
0.806626468328063	85100670.70053108
0.8068281249451449	85069061.73682119
0.8070298319763813	85037444.87087034
0.8072315894343755	85005820.10070302
0.8074333973317341	84974187.42434315
0.8076352556810671	85018076.06925455
0.8078371644949874	85243787.15357652
0.8080391237861113	85469554.66566962
0.8082411335670578	85695378.61964062
0.8084431938504498	85921259.02960032
0.8086453046489125	86145362.21610227
0.8088474659750746	86335381.33953157
0.8090496778415686	86525447.96774197
0.809251940261029	86715562.11260928
0.8094542532460944	86905723.78601298
0.8096566168094059	87095932.9998348
0.8098590309636085	87038647.46322541
0.8100614957213493	86923408.30802393
0.8102640110952797	86808140.34303363
0.8104665770980536	86692843.56105204
0.8106691937423283	86577517.9548749
0.8108718610407639	86499666.83764419
0.8110745790060241	86450473.07829204
0.8112773476507757	86401267.0205
0.8114801669876885	86352048.66119355
0.8116830370294355	86302817.99729729
0.8118859577886929	86351888.91323866
0.8120889292781401	86605174.34030867
0.8122919515104597	86858523.08873542
0.8124950244983374	87111935.1743493
0.8126981482544621	87365410.61298452
0.8129013227915257	87624255.77702478
0.8131045481222237	87943924.2460613
0.8133078242592543	88263672.6322151
0.8135111512153191	88583500.95546536
0.813714529003123	88903409.23579647
0.8139179576353739	89223397.49319771
0.8141214371247829	89259493.52875254
0.8143249674840641	89240531.5987077
0.814528548725935	89221564.92818038
0.8147321808631167	89202593.51598538
0.8149358639083326	89183617.36093736
0.8151395978743097	88988003.8180091
0.8153433827737784	88673000.9466491
0.8155472186194719	88357919.32457137
0.8157511054241268	88042758.93208818
0.815955043200483	87727519.74950667
0.8161590319612831	87393888.2197004
0.8163630717192736	87026615.9570008
0.8165671624872033	86659251.87623595
0.8167713042778252	86291795.95445053
0.8169754971038948	85924248.1686845
0.8171797409781707	85481867.33269227
0.8173840359134155	84442694.04698868
0.8175883819223938	83403260.96796486
0.8177927790178745	82363568.03067069
0.8179972272126291	81323615.17014192
0.8182017265194322	80283402.32139908
0.8184062769510622	80062731.47180504
0.8186108785203001	79968160.85667756
0.8188155312399301	79873566.59889643
0.8190202351227402	79778948.69255075
0.819224990181521	79684307.13172853
0.8194297964290664	80421901.5131536
0.8196346538781738	81661323.29239602
0.8198395625416434	82901054.92708278
0.8200445224322789	84141096.49467874
0.820249533562887	85381448.07266621
0.8204545959462778	86362812.71288577
0.8206597095952644	86927091.1315613
0.8208648745226633	87491510.61984195
0.8210700907412941	88056071.21299458
0.8212753582639793	88620772.9462949
0.8214806771035456	89161681.89568447
0.8216860472728215	89555263.72291985
0.8218914687846397	89948943.94561207
0.822096941651836	90342722.58836016
0.822302465887249	90736599.67576872
0.8225080415037209	91130575.23244932
0.8227136685140968	91592085.44536912
0.8229193469312254	92061366.44967817
0.8231250767679583	92530764.77423847
0.8233308580371503	93000280.44837964
0.8235366907516598	93469913.50143969
0.8237425749243477	93789901.32294953
0.8239485105680789	94030592.30957508
0.824154497695721	94271343.46894713
0.824360536320145	94512154.81610906
0.8245666264542252	94753026.36610778
0.8247727681108388	94932323.37312356
0.8249789613028664	95023392.62637626
0.8251852060431922	95114484.64694235
0.825391502344703	95205599.44051354
0.8255978502202894	95296737.01278321
0.8258042496828445	95405913.32591316
0.8260107007452654	95602612.69445942
0.8262172034204517	95799361.23784761
0.8264237577213068	95996158.9683717
0.8266303636607373	96193005.89832851
0.8268370212516525	96389902.04001772
0.8270437305069654	96466018.67469275
0.8272504914395923	96532712.35847859
0.8274573040624523	96599422.7156854
0.8276641683884679	96666149.75048146
0.8278710844305652	96732893.46703628
0.8280780522016729	96977393.75104265
0.8282850717147234	97303199.73081894
0.8284921429826521	97629087.16208982
0.8286992660183978	97955056.06521879
0.8289064408349024	98281106.46057332
0.8291136674451112	98651698.06229201
0.8293209458619727	99078443.75790301
0.8295282760984382	99505296.13993736
0.829735658167463	99932255.23506771
0.8299430920820048	100359321.0699713
0.8301505778550254	100717010.78903233
0.8303581154994891	100797463.40004167
0.8305657050283641	100877936.12420385
0.8307733464546212	100958428.966547
0.8309810397912352	101038941.93210088
0.8311887850511829	101119475.02589597
0.8313965822474458	101522772.11387645
0.8316044313930077	101941150.27594762
0.8318123325008561	102359633.0325597
0.8320202855839813	102778220.40986072
0.8322282906553774	103196912.43400611
0.8324363477280413	103609483.06037878
0.8326444568149735	104019650.23527735
0.8328526179291771	104429919.95196918
0.8330608310836596	104840292.2360908
0.8332690962914304	105250767.1132829
0.8334774135655034	105443600.2683229
0.833685782918895	105393254.05233328
0.8338942043646247	105342895.24978969
0.834102677915716	105292523.85754542
0.834311203585195	105242139.87245312
0.8345197813860912	105346091.42006533
0.8347284113314379	105969619.19079721
0.8349370934342709	106593302.84347141
0.8351458277076294	107217142.41705804
0.8353546141645565	107841137.9505391
0.8355634528180977	108465289.48290326
0.8357723436813022	107859511.55807666
0.8359812867672226	107238393.76717745
0.8361902820889144	106617120.69683081
0.8363993296594368	105995692.3082164
0.8366084294918518	105374108.56250462
0.8368175815992247	104895022.53137974
0.8370267859946247	104464947.92522258
0.8372360426911234	104034765.80041401
0.8374453517017962	103604476.13007428
0.8376547130397217	103174078.88731702
0.8378641267179816	103210891.91195151
0.8380735927496613	103711414.94329236
0.8382831111478488	104212063.10539076
0.8384926819256358	104712836.42952941
0.8387023050961173	105213734.94699953
0.8389119806723914	105535141.37238657
0.8391217086675596	105351126.32834952
0.8393314890947265	105167065.28055157
0.8395413219670003	104982958.21749167
0.8397512072974922	104798805.12766588
0.8399611450993165	104616056.18292923
0.8401711353855914	104505277.13841683
0.8403811781694378	104394470.39914331
0.8405912734639802	104283635.95818494
0.8408014212823464	104172773.8086163
0.8410116216376671	104061883.94351026
0.8412218745430766	103937485.69577314
0.8414321800117124	103809133.99656692
0.8416425380567154	103680750.20943585
0.8418529486912297	103552334.32635796
0.8420634119284025	103423886.33930941
0.8422739277813847	104021721.29868498
0.8424844962633302	105259617.4670039
0.842695117387396	106497823.10936332
0.8429057911667428	107736338.30313337
0.8431165176145345	108975163.12570246
0.8433272967439382	109750196.73448691
0.8435381285681244	109393353.26256216
0.8437490131002665	109036420.57976949
0.8439599503535415	108679398.66380636
0.84417094034113	108322287.49236397
0.8443819830762154	107934499.61019993
0.8445930785719846	106930428.32987373
0.8448042268416277	105926106.03172798
0.8450154278983382	104921532.65300785
0.8452266817553128	103916708.1309431
0.8454379884257517	102911632.40274772
0.8456493479228583	103091744.40210791
0.845860760259839	103557369.38695838
0.846072225449904	104023110.77805504
0.8462837435062666	104488968.6044996
0.8464953144421433	104954942.89540103
0.8467069382707537	105329519.42720722
0.8469186150053215	105632857.05375846
0.847130344659073	105936270.51471643
0.8473421272452377	106239759.82903934
0.8475539627770492	106543325.01569113
0.8477658512677435	106739311.94581449
0.8479777927305605	106706758.46588767
0.8481897871787432	106674196.84759085
0.848401834625538	106641627.08888945
0.8486139350841944	106609049.18774839
0.8488260885679657	106556582.51766838
0.8490382950901076	106261764.9763642
0.8492505546638802	105966873.73067454
0.8494628673025462	105671908.76217355
0.8496752330193721	105376870.05243002
0.8498876518276269	105081757.58300944
0.8501001237405839	105284004.92502935
0.8503126487715191	105585599.30970633
0.850525226933712	105887269.09297933
0.8507378582404455	106189014.29369812
0.8509505427050057	106490834.93071727
0.8511632803406821	107258437.33638448
0.8513760711607672	108345155.18875186
0.8515889151785576	109432144.72058403
0.8518018124073523	110519405.99979825
0.8520147628604541	111606939.09433162
0.8522277665511693	112598956.81363475
0.8524408234928071	113414075.58124003
0.8526539336986805	114229398.12853743
0.8528670971821053	115044924.50647171
0.8530803139564007	115860654.76599951
0.8532935840348901	116585139.1739669
0.8535069074308987	116537464.54515891
0.8537202841577566	116489777.99769367
0.8539337142287962	116442079.52859156
0.8541471976573534	116394369.13487221
0.8543607344567677	116346646.81355442
0.8545743246403821	116163532.27086921
0.8547879682215422	115958872.012052
0.8550016652135977	115754160.58817011
0.8552154156299011	115549397.98643224
0.8554292194838088	115344584.19404379
0.8556430767886797	114933268.72179736
0.855856987557877	114396499.14408602
0.8560709518047664	113859595.37398058
0.8562849695427177	113322557.37793243
0.8564990407851035	112785385.1223851
0.8567131655452999	112441068.52894151
0.8569273438366862	112412886.33851784
0.8571415756726455	112384697.10254656
0.8573558610665638	112356500.81926626
0.8575702000318304	112328297.48691519
0.8577845925818384	112593790.41077971
0.857999038729984	114693928.76491782
0.8582135384896665	116794592.15364397
0.858428091874289	118895780.70821743
0.8586426988972576	120997494.55992895
0.8588573595719821	123099733.84010413
0.8590720739118751	122357402.28549108
0.8592868419303532	121279439.78194657
0.8595016636408359	120201207.78777616
0.8597165390567462	119122706.23560756
0.8599314681915105	118043935.05805066
0.8601464510585584	117066867.4191179
0.860361487671323	116143682.19267175
0.8605765780432408	115220266.16991925
0.8607917221877518	114296619.29316032
0.8610069201182988	113372741.50468244
0.8612221718483286	111587935.18288337
0.8614374773912907	108561870.64288788
0.8616528367606385	105535049.58675821
0.8618682499698288	102507471.8253626
0.8620837170323213	99479137.16952713
0.8622992379615795	96918866.90459158
0.8625148127710699	96677974.43548909
0.8627304414742627	96437021.74326931
0.8629461240846313	96196008.81287645
0.8631618606156526	95954935.62925096
0.8633776510808066	95713802.1773296
0.8635934954935769	98322425.05514804
0.8638093938674504	101165304.71074235
0.8640253462159173	104008895.0862505
0.8642413525524714	106853196.35935245
0.8644574128906095	109698208.70777209
0.8646735272438323	109448472.74977349
0.8648896956256433	107759199.89150293
0.8651059180495498	106069504.7150177
0.8653221945290621	104379387.11473998
0.8655385250776946	102688846.98505983
0.8657549097089641	102093175.14728406
0.8659713484363913	102899567.55076066
0.8661878412735006	103706161.55233848
0.866404388233819	104512957.2024166
0.8666209893308775	105319954.55140686
0.8668376445782103	105958552.08145918
0.8670543539893549	105909160.67178355
0.8672711175778525	105859756.91425546
0.8674879353572469	105810340.80578804
0.8677048073410862	105760912.34329349
0.8679217335429217	105711471.5236833
0.8681387139763074	105266178.59207861
0.8683557486548015	104801110.02686276
0.8685728375919655	104335925.19450502
0.8687899808013633	103870624.0659402
0.8690071782965637	103405206.61209264
0.869224430091138	102976494.84019071
0.8694417361986609	102562658.73037179
0.8696590966327107	102148719.1615255
0.869876511406869	101734676.10778698
0.8700939805347206	101320529.54328522
0.8703115040298544	101014661.86600596
0.870529081905862	100832630.18615095
0.8707467141763385	100650552.99837606
0.8709644008548827	100468430.29130423
0.8711821419550964	100286262.05355574
0.8713999374905854	100249260.83697064
0.871617787474958	100713429.30887121
0.8718356919218269	101177713.82289018
0.8720536508448075	101642114.40803766
0.8722716642575187	102106631.09333119
0.8724897321735832	102571263.90779622
0.8727078546066265	102869891.39480229
0.8729260315702784	103166066.28594059
0.873144263078171	103462315.22080135
0.8733625491439405	103758638.21789587
0.8735808897812266	104055035.29573976
0.8737992850036719	104012388.7497141
0.874017734824923	103849621.62055127
0.8742362392586293	103686813.7996062
0.874454798318444	103523965.2767059
0.8746734120180236	103361076.04167491
0.8748920803710283	103270523.48448284
0.875110803391121	103252680.6796944
0.8753295810919689	103234833.41420476
0.875548413487242	103216981.68689874
0.8757673005906139	103199125.4966609
0.8759862424157616	103375341.82532156
0.8762052389763657	104113173.11723834
0.8764242902861098	104851188.86697759
0.8766433963586814	105589389.12065448
0.8768625572077712	106327773.924395
0.8770817728470732	107064624.25638907
0.8773010432902849	107667438.31325006
0.8775203685511077	108270403.07362616
0.8777397486432454	108873518.5751916
0.8779591835804065	109476784.85563315
0.8781786733763015	110080201.95264404
0.8783982180446457	109335832.48817217
0.878617817599157	108190290.74502692
0.8788374720535569	107044462.6164464
0.8790571814215703	105898348.03083403
0.8792769457169257	104751946.91657525
0.879496764953355	104077802.61028737
0.8797166391445934	103828337.32914855
0.8799365683043796	103578809.68168943
0.8801565524464557	103329219.65231843
0.8803765915845676	103079567.22543988
0.8805966857324639	103198844.0174144
0.880816834903897	104244946.9889089
0.881037039112623	105291311.48614667
0.8812572983724012	106337937.57450867
0.8814776126969944	107384825.31939322
0.8816979821001687	108379456.97794141
0.8819184065956938	108138059.2479322
0.8821388861973429	107896601.16849025
0.8823594209188923	107655082.72452866
0.882580010774122	107413503.9009562
0.8828006557768155	107171864.6826777
0.8830213559407598	107823306.5562056
0.8832421112797452	108699545.44388357
0.8834629218075651	109576003.39128293
0.8836837875380171	110452680.4531694
0.8839047084849018	111329576.6843215
0.884125684662023	111091804.84273322
0.8843467160831886	109960533.77729449
0.8845678027622095	108828979.89408942
0.8847889447129001	107697143.1224133
0.8850101419490785	106565023.3915445
0.8852313944845657	106398760.32652535
0.885452702333187	108347216.99212772
0.8856740655087704	110296160.77189618
0.8858954840251476	112245591.78760909
0.8861169578961539	114195510.161075
0.886338487135628	115897103.92904063
0.886560071757412	114288079.45585789
0.8867817117753515	112678652.7265569
0.8870034072032955	111068823.64057285
0.8872251580550963	109458592.0973192
0.8874469643446101	107847957.99617875
0.8876688260856963	107860570.26625183
0.8878907432922178	108209220.66437416
0.8881127159780409	108557958.2250958
0.8883347441570356	108906782.97020802
0.8885568278430749	109255694.92150617
0.8887789670500358	109297285.71360394
0.8890011617917983	109120819.49539325
0.8892234120822464	108944309.16062793
0.8894457179352669	108767754.69827905
0.8896680793647509	108591156.09731445
0.8898904963845921	108585721.48892091
0.8901129690086883	108906955.16392733
0.8903354972509405	109228269.14735241
0.8905580811252535	109549663.4592736
0.8907807206455347	109871138.11977234
0.8910034158256963	110159308.81301531
0.8912261666796527	110149196.94506793
0.8914489732213227	110139082.54915355
0.8916718354646282	110128965.6246402
0.8918947534234944	110118846.17089571
0.8921177271118502	110108724.18728781
0.8923407565436284	110444420.17327099
0.8925638417327644	110836612.81011674
0.8927869826931977	111228903.49512182
0.8930101794388711	111621292.25279813
0.8932334319837308	112013779.1076638
0.8934567403417267	112527175.52728252
0.8936801045268123	113115770.38653183
0.8939035245529441	113704512.39449555
0.8941270004340824	114293401.5879615
0.894350532184191	114882438.00372566
0.8945741198172371	115234336.42137551
0.8947977633471915	115192813.51880185
0.8950214627880284	115151280.23550256
0.8952452181537254	115109736.56888245
0.8954690294582639	115068182.51634566
0.8956928967156286	115004118.30037145
0.8959168199398075	114794022.54414259
0.8961407991447926	114583874.26397462
0.8963648343445789	114373673.4467366
0.896588925553165	114163420.07929441
0.8968130727845534	113953114.14851032
0.8970372760527496	114756145.12041678
0.8972615353717629	115686172.28170249
0.8974858507556059	116616431.94977862
0.8977102222182949	117546924.18277152
0.8979346497738496	118477649.03882319
0.8981591334362931	119047524.06735632
0.8983836732196523	119420074.03095186
0.8986082691379572	119792717.13203804
0.8988329212052417	120165453.3938995
0.8990576294355432	120538282.83982675
0.8992823938429022	120260319.89429265
0.8995072144413631	119014503.28746144
0.8997320912449734	117768375.22647898
0.8999570242677847	116521935.63348156
0.9001820135238516	115275184.43058582
0.9004070590272328	114254118.67661293
0.9006321607919896	114417551.74881929
0.9008573188321878	114581025.67929387
0.9010825331618959	114744540.478251
0.9013078037951865	114908096.15590788
0.9015331307461353	115071692.7224841
0.9017585140288219	115394027.91749729
0.9019839536573292	115730112.7430775
0.9022094496457435	116066281.58986387
0.9024350020081551	116402534.4788623
0.9026606107586572	116738871.43108287
0.902886275911347	117212478.20420896
0.9031119974803249	117752336.45311272
0.9033377754796951	118292329.66657872
0.903563609923565	118832457.87834786
0.903789500826046	119372721.12217028
0.9040154482012526	119777891.25128897
0.904241452063303	120007986.3724918
0.9044675124263188	120238139.01747489
0.9046936293044254	120468349.20061918
0.9049198027117517	120698616.93630937
0.9051460326624297	120801234.97114626
0.9053723191705955	120360071.40495054
0.9055986622503881	119918797.5478637
0.9058250619159507	119477413.37231258
0.9060515181814298	119035918.85071728
0.9062780310609752	118594313.95549189
0.9065046005687405	118802817.11422597
0.906731226718883	119047646.16398221
0.9069579095255627	119292536.42100058
0.907184649002944	119537487.90058322
0.907411445165195	119782500.618036
0.9076382980264862	119319594.96324219
0.907865207600993	118562550.95483501
0.9080921739028933	117805317.68542597
0.9083191969463691	117047895.1076997
0.9085462767456058	116290283.17432863
0.9087734133147922	116718283.88702314
0.9090006066681211	118516007.66484332
0.909227856819788	120314180.8736056
0.9094551637839932	122112803.62567252
0.9096825275749393	123911876.03342691
0.9099099482068329	125106071.36206901
0.9101374256938848	124149223.12841287
0.9103649600503083	123192135.68269876
0.9105925512903209	122234808.96512341
0.9108201994281437	121277242.91586769
0.9110479044780008	120319437.47510073
0.9112756664541204	120565081.98771738
0.911503485370734	120838340.14973177
0.9117313612420768	121111666.62628667
0.9119592940823873	121385061.43446061
0.912187283905908	121658524.5913367
0.9124153307268845	121654141.1165988
0.9126434345595664	121548889.64650261
0.9128715954182063	121443611.86353898
0.9130998133170609	121338307.76112957
0.9133280882703902	121232977.33269455
0.913556420292458	121256824.6943342
0.9137848093975312	121413928.13728617
0.9140132555998806	121571070.85609886
