#wavelength	surface flux
0.8	154488578.7629321
0.8002000000000001	157513079.91670543
0.8004000500000003	154860496.74033317
0.8006001500125003	152149898.639172
0.8008003000500035	149438622.8884853
0.8010005001250161	146726669.3188597
0.8012007502500472	144014037.7608456
0.8014010504376099	144621673.85438454
0.8016014007002193	146341877.2444952
0.8018018010503944	148062510.68545341
0.8020022515006572	149783574.2847726
0.8022027520635323	151505068.14999017
0.8024033027515483	152754388.61894295
0.8026039035772362	153540888.1424318
0.8028045545531306	154327584.29080155
0.8030052556917691	155114477.1132088
0.803206007005692	155901566.65882093
0.8034068085074435	156492892.46233594
0.8036076602095705	156535060.0308226
0.8038085621246229	156577238.14120135
0.8040095142651542	156619426.79610774
0.8042105166437206	156661625.99817783
0.8044115692728815	156658711.28647837
0.8046126721651998	154714913.16431448
0.8048138253332411	152770629.0926216
0.8050150287895745	150825858.949909
0.805216282546772	148880602.61466125
0.8054175866174087	146934859.96533072
0.8056189410140631	145381287.02878842
0.8058203457493168	143938472.8561066
0.8060218008357541	142495297.97988346
0.8062233062859632	141051762.30994055
0.8064248621125346	139607865.75608113
0.806626468328063	138315880.01006165
0.8068281249451449	137154354.30737177
0.8070298319763813	135992538.22325477
0.8072315894343755	134830431.6851176
0.8074333973317341	133668034.62034549
0.8076352556810671	133117858.26253377
0.8078371644949874	134041961.35279463
0.8080391237861113	134966295.46882826
0.8082411335670578	135890860.66839036
0.8084431938504498	136815657.0092533
0.8086453046489125	137752681.2870075
0.8088474659750746	138913297.58560768
0.8090496778415686	140074204.03828403
0.809251940261029	141235400.71757272
0.8094542532460944	142396887.69603223
0.8096566168094059	143558665.04623502
0.8098590309636085	143136299.6697615
0.8100614957213493	142342979.1809234
0.8102640110952797	141549460.361963
0.8104665770980536	140755743.16329753
0.8106691937423283	139961827.5353321
0.8108718610407639	139380394.00438845
0.8110745790060241	138961440.7886488
0.8112773476507757	138542382.8346049
0.8114801669876885	138123220.11607257
0.8116830370294355	137703952.60686085
0.8118859577886929	137757450.70912457
0.8120889292781401	138793134.74320823
0.8122919515104597	139829077.69830033
0.8124950244983374	140865279.63913128
0.8126981482544621	141901740.63044727
0.8129013227915257	142965846.41669938
0.8131045481222237	144343788.44868058
0.8133078242592543	145722074.96616995
0.8135111512153191	147100706.0552883
0.813714529003123	148479681.80217913
0.8139179576353739	149859002.2930069
0.8141214371247829	149885099.83132553
0.8143249674840641	149648724.3342094
0.814528548725935	149412289.74321914
0.8147321808631167	149175796.04358083
0.8149358639083326	148939243.22051767
0.8151395978743097	147775393.67859378
0.8153433827737784	145984772.56125945
0.8155472186194719	144193703.78864646
0.8157511054241268	142402187.24884063
0.815955043200483	140610222.82989863
0.8161590319612831	138869282.86308092
0.8163630717192736	137222224.63925457
0.8165671624872033	135574754.65087405
0.8167713042778252	133926872.79499483
0.8169754971038948	132278578.96865083
0.8171797409781707	130476849.94643515
0.8173840359134155	127453039.51301414
0.8175883819223938	124428473.12698826
0.8177927790178745	121403150.59936415
0.8179972272126291	118377071.74110733
0.8182017265194322	115350236.363139
0.8184062769510622	114861957.64823079
0.8186108785203001	114764319.60785574
0.8188155312399301	114666657.15797071
0.8190202351227402	114568970.29247311
0.819224990181521	114471259.0052592
0.8194297964290664	116190269.32473248
0.8196346538781738	119004749.84652951
0.8198395625416434	121819933.98845588
0.8200445224322789	124635821.92641892
0.820249533562887	127452413.8363656
0.8204545959462778	129980993.61897284
0.8206597095952644	132045524.49571718
0.8208648745226633	134110571.50518231
0.8210700907412941	136176134.77639946
0.8212753582639793	138242214.43843234
0.8214806771035456	140226603.54188624
0.8216860472728215	141704992.98246425
0.8218914687846397	143183752.0204025
0.822096941651836	144662880.74810097
0.822302465887249	146142379.25798053
0.8225080415037209	147622247.64248833
0.8227136685140968	149276426.7335629
0.8229193469312254	150950765.27868524
0.8231250767679583	152625522.40844446
0.8233308580371503	154300698.22748518
0.8235366907516598	155976292.8404819
0.8237425749243477	153583153.39052832
0.8239485105680789	149032693.05274165
0.824154497695721	144481095.09987342
0.824360536320145	139928359.24751616
0.8245666264542252	135374485.21119598
0.8247727681108388	134075583.89298764
0.8249789613028664	137439721.91035992
0.8251852060431922	140804700.96223944
0.825391502344703	144170521.25888044
0.8255978502202894	147537183.01059863
0.8258042496828445	150675745.85403493
0.8260107007452654	152703227.3190352
0.8262172034204517	154731215.65439966
0.8264237577213068	156759710.98684847
0.8266303636607373	158788713.4431313
0.8268370212516525	160818223.15002722
0.8270437305069654	160926115.7689181
0.8272504914395923	160883833.82615924
0.8274573040624523	160841541.3129147
0.8276641683884679	160799238.22654188
0.8278710844305652	160756924.56439742
0.8280780522016729	161529438.52639082
0.8282850717147234	162674606.65031525
0.8284921429826521	163820061.06626952
0.8286992660183978	164965801.84582865
0.8289064408349024	166111829.06058186
0.8291136674451112	167442110.24152625
0.8293209458619727	169004697.74056423
0.8295282760984382	170567675.8864749
0.829735658167463	172131044.77692387
0.8299430920820048	173694804.50959343
0.8301505778550254	174948489.2358477
0.8303581154994891	174963326.87523204
0.8305657050283641	174978168.22402623
0.8307733464546212	174993013.2831576
0.8309810397912352	175007862.0535538
0.8311887850511829	175022714.53614253
0.8313965822474458	176667072.06221518
0.8316044313930077	178387474.45406377
0.8318123325008561	180108306.94651195
0.8320202855839813	181829569.6470824
0.8322282906553774	183551262.66332814
0.8324363477280413	185139875.46459797
0.8326444568149735	186675134.5071246
0.8328526179291771	188210777.3644101
0.8330608310836596	189746804.13241223
0.8332690962914304	191283214.9071043
0.8334774135655034	191747349.41609994
0.833685782918895	191013403.10184896
0.8338942043646247	190279273.30101988
0.834102677915716	189544959.96774006
0.834311203585195	188810463.0561275
0.8345197813860912	188858199.42824283
0.8347284113314379	191539636.21516126
0.8349370934342709	194221743.3612749
0.8351458277076294	196904521.03417182
0.8353546141645565	199587969.40149143
0.8355634528180977	202272088.63090175
0.8357723436813022	198533316.64131656
0.8359812867672226	194714295.33227494
0.8361902820889144	190894319.267908
0.8363993296594368	187073388.20952386
0.8366084294918518	183251501.9183738
0.8368175815992247	180800281.53648582
0.8370267859946247	178820848.8411912
0.8372360426911234	176840921.2877234
0.8374453517017962	174860498.75236738
0.8376547130397217	172879581.1113778
0.8378641267179816	172766575.09049812
0.8380735927496613	174507486.10680428
0.8382831111478488	176248832.35086355
0.8384926819256358	177990613.93148285
0.8387023050961173	179732830.95749885
0.8389119806723914	180681548.38163108
0.8391217086675596	179396110.02927902
0.8393314890947265	178110350.31733987
0.8395413219670003	176824269.16547257
0.8397512072974922	175537866.49331644
0.8399611450993165	174272008.37522456
0.8401711353855914	174042039.5793834
0.8403811781694378	173812013.29134336
0.8405912734639802	173581929.49673125
0.8408014212823464	173351788.18117037
0.8410116216376671	173121589.33028063
0.8412218745430766	172365195.0601768
0.8414321800117124	171455525.87444103
0.8416425380567154	170545629.27140838
0.8418529486912297	169635505.19422477
0.8420634119284025	168725153.58602265
0.8422739277813847	170975161.74234754
0.8424844962633302	176010332.50078517
0.842695117387396	181046762.051906
0.8429057911667428	186084450.7104148
0.8431165176145345	191123398.79109067
0.8433272967439382	194061439.67001346
0.8435381285681244	191872446.9642788
0.8437490131002665	189682907.01036814
0.8439599503535415	187492819.6714704
0.84417094034113	185302184.81073633
0.8443819830762154	183033000.31246388
0.8445930785719846	179191891.9864739
0.8448042268416277	175349823.38340452
0.8450154278983382	171506794.26318488
0.8452266817553128	167662804.38568547
0.8454379884257517	163817853.51071626
0.8456493479228583	164108723.18419853
0.845860760259839	165395852.3469036
0.846072225449904	166683303.29189926
0.8462837435062666	167971076.0996315
0.8464953144421433	169259170.8505664
0.8467069382707537	170280494.4564414
0.8469186150053215	171093882.47108907
0.847130344659073	171907473.83274063
0.8473421272452377	172721268.5922318
0.8475539627770492	173535266.80041367
0.8477658512677435	173991946.4270797
0.8479777927305605	173689589.1637616
0.8481897871787432	173387156.3111277
0.848401834625538	173084647.8502805
0.8486139350841944	172782063.76231828
0.8488260885679657	172105049.2866365
0.8490382950901076	166864614.1526038
0.8492505546638802	161622868.9097849
0.8494628673025462	156379813.2306572
0.8496752330193721	151135446.78760195
0.8498876518276269	145889769.25294304
0.8501001237405839	146545343.61061743
0.8503126487715191	148379337.16466558
0.850525226933712	150213789.21710122
0.8507378582404455	152048699.88254994
0.8509505427050057	153884069.2756661
0.8511632803406821	159144053.25721726
0.8513760711607672	166750271.9004556
0.8515889151785576	174358392.0983666
0.8518018124073523	181968414.32632068
0.8520147628604541	189580339.05982724
0.8522277665511693	195369016.57005957
0.8524408234928071	197783746.56520143
0.8526539336986805	200199080.24284273
0.8528670971821053	202615017.7539036
0.8530803139564007	205031559.24933937
0.8532935840348901	207075138.0500763
0.8535069074308987	205964264.97250775
0.8537202841577566	204853114.17666885
0.8539337142287962	203741685.59313086
0.8541471976573534	202629979.1524477
0.8543607344567677	201517994.78515416
0.8545743246403821	200495310.56500545
0.8547879682215422	199486596.7067751
0.8550016652135977	198477630.67008036
0.8552154156299011	197468412.39187637
0.8554292194838088	196458941.80910212
0.8556430767886797	194772911.40721655
0.855856987557877	192675823.47553515
0.8560709518047664	190578211.27187213
0.8562849695427177	188480074.66515744
0.8564990407851035	186381413.52429044
0.8567131655452999	185019680.10500893
0.8569273438366862	184865946.5991529
0.8571415756726455	184712174.6599204
0.8573558610665638	184558364.27770302
0.8575702000318304	184404515.44289026
0.8577845925818384	185330473.67644367
0.857999038729984	193001776.40199497
0.8582135384896665	200674996.9532259
0.858428091874289	208350135.8095951
0.8586426988972576	216027193.45067635
0.8588573595719821	223706170.35617048
0.8590720739118751	220323849.2227084
0.8592868419303532	215636296.07554567
0.8595016636408359	210947571.04009616
0.8597165390567462	206257673.82338932
0.8599314681915105	201566604.13237715
0.8601464510585584	198119826.49237466
0.860361487671323	195333271.18941933
0.8605765780432408	192546019.24763903
0.8607917221877518	189758070.49287105
0.8610069201182988	186969424.7509151
0.8612221718483286	181975884.88396987
0.8614374773912907	173803448.4148898
0.8616528367606385	165628968.8366947
0.8618682499698288	157452445.63859987
0.8620837170323213	149273878.30970687
0.8622992379615795	142418794.20949456
0.8625148127710699	142121525.93507153
0.8627304414742627	141824183.34357986
0.8629461240846313	141526766.41644025
0.8631618606156526	141229275.13506883
0.8633776510808066	140931709.48087716
0.8635934954935769	148613921.44804147
0.8638093938674504	156952176.87033045
0.8640253462159173	165292516.8564747
0.8642413525524714	173634941.9276153
0.8644574128906095	181979452.60502198
0.8646735272438323	180298486.15647295
0.8648896956256433	173954004.70278946
0.8651059180495498	167607937.12874216
0.8653221945290621	161260283.03780743
0.8655385250776946	154911042.03334108
0.8657549097089641	152262327.9283867
0.8659713484363913	154352471.6520263
0.8661878412735006	156443137.91159776
0.866404388233819	158534326.83773383
0.8666209893308775	160626038.56110048
0.8668376445782103	162215414.17024443
0.8670543539893549	161752764.10066202
0.8672711175778525	161289998.3685619
0.8674879353572469	160827116.94502926
0.8677048073410862	160364119.80114055
0.8679217335429217	159901006.9079656
0.8681387139763074	158212586.78738028
0.8683557486548015	156462880.17201936
0.8685728375919655	154712736.13000244
0.8687899808013633	152962154.55197883
0.8690071782965637	151211135.32855842
0.869224430091138	149915566.61220825
0.8694417361986609	148805174.36112845
0.8696590966327107	147694504.51198614
0.869876511406869	146583556.99538147
0.8700939805347206	145472331.74189818
0.8703115040298544	144681640.91368392
0.870529081905862	144257533.60098344
0.8707467141763385	143833320.26145494
0.8709644008548827	143409000.86859158
0.8711821419550964	142984575.39588028
0.8713999374905854	142850680.4684329
0.871617787474958	143719839.9916432
0.8718356919218269	144589216.8047351
0.8720536508448075	145458810.96203032
0.8722716642575187	146328622.51786438
0.8724897321735832	147198651.52658775
0.8727078546066265	147849581.99834052
0.8729260315702784	148497338.68623772
0.873144263078171	149145257.31330618
0.8733625491439405	149793337.9200315
0.8735808897812266	150441580.54690874
0.8737992850036719	150237779.22951704
0.874017734824923	149732089.60747963
0.8742362392586293	149226273.56303692
0.874454798318444	148720331.06458315
0.8746734120180236	148214262.0805048
0.8748920803710283	147868725.58687273
0.875110803391121	147684549.7031774
0.8753295810919689	147500327.775511
0.875548413487242	147316059.7923627
0.8757673005906139	147131745.7422186
0.8759862424157616	147415630.40415135
0.8762052389763657	149054474.43656215
0.8764242902861098	150693728.17997995
0.8766433963586814	152333391.73683402
0.8768625572077712	153973465.20957783
0.8770817728470732	155616743.70144597
0.8773010432902849	157478659.61954233
0.8775203685511077	159341041.01662087
0.8777397486432454	161203888.00904638
0.8779591835804065	163067200.71322227
0.8781786733763015	164930979.2455717
0.8783982180446457	162973830.2511006
0.878617817599157	159879398.8389393
0.8788374720535569	156784193.81892645
0.8790571814215703	153688214.99765933
0.8792769457169257	150591462.18168685
0.879496764953355	148860443.9895666
0.8797166391445934	148357574.21884996
0.8799365683043796	147854578.7306906
0.8801565524464557	147351457.49365923
0.8803765915845676	146848210.4763181
0.8805966857324639	147170945.83443278
0.880816834903897	149568697.98556665
0.881037039112623	151967049.57473925
0.8812572983724012	154366000.7518089
0.8814776126969944	156765551.6666739
0.8816979821001687	159019525.8765021
0.8819184065956938	157833041.98190454
0.8821388861973429	156646261.46633208
0.8823594209188923	155459184.2556319
0.882580010774122	154271810.27562955
0.8828006557768155	153084139.45213157
0.8830213559407598	154681460.45357788
0.8832421112797452	156979709.17672837
0.8834629218075651	159278532.46205828
0.8836837875380171	161577930.4532102
0.8839047084849018	163877903.2938603
0.884125684662023	163389636.20886192
0.8843467160831886	160666368.07228053
0.8845678027622095	157942419.11866495
0.8847889447129001	155217789.1778105
0.8850101419490785	152492478.0794713
0.8852313944845657	152356026.86243623
0.885452702333187	157887729.63030973
0.8856740655087704	163420815.32387435
0.8858954840251476	168955284.28886092
0.8861169578961539	174491136.87108615
0.886338487135628	179289009.33825603
0.886560071757412	174249062.69232517
0.8867817117753515	169207856.05973297
0.8870034072032955	164165389.12548035
0.8872251580550963	159121661.57450008
0.8874469643446101	154076673.09162894
0.8876688260856963	153581329.76682314
0.8878907432922178	154027731.01001015
0.8881127159780409	154474243.85350764
0.8883347441570356	154920868.32521656
0.8885568278430749	155367604.45304295
0.8887789670500358	155325775.10473314
0.8890011617917983	154937280.60093522
0.8892234120822464	154548688.9735112
0.8894457179352669	154160000.19818062
0.8896680793647509	153771214.2506559
0.8898904963845921	153789850.66492972
0.8901129690086883	154586049.78260988
0.8903354972509405	155382447.9500693
0.8905580811252535	156179045.2170712
0.8907807206455347	156975841.63338876
0.8910034158256963	157689513.76136386
0.8912261666796527	157658705.31075236
0.8914489732213227	157627889.1580282
0.8916718354646282	157597065.3012658
0.8918947534234944	157566233.73853925
0.8921177271118502	157535394.46792206
0.8923407565436284	158342300.19521162
0.8925638417327644	159286067.89513093
0.8927869826931977	160230071.53697553
0.8930101794388711	161174311.17973053
0.8932334319837308	162118786.88239607
0.8934567403417267	163309555.25184712
0.8936801045268123	164653516.4933304
0.8939035245529441	165997813.72512317
0.8941270004340824	167342447.03122437
0.894350532184191	168687416.49565178
0.8945741198172371	169307077.34027424
0.8947977633471915	168723497.6538165
0.8950214627880284	168139772.07243717
0.8952452181537254	167555900.55966285
0.8954690294582639	166971883.07900995
0.8956928967156286	166368162.1626897
0.8959168199398075	165637369.55393332
0.8961407991447926	164906394.2470246
0.8963648343445789	164175236.19628915
0.896588925553165	163443895.35604143
0.8968130727845534	162712371.68058357
0.8970372760527496	165012958.33412284
0.8972615353717629	167693521.07966864
0.8974858507556059	170374753.9659011
0.8977102222182949	173056657.16035444
0.8979346497738496	175739230.83060786
0.8981591334362931	177414714.23926854
0.8983836732196523	178539495.77586633
0.8986082691379572	179664558.50784752
0.8988329212052417	180789902.50551173
0.8990576294355432	181915527.83917633
0.8992823938429022	181062482.61857986
0.8995072144413631	177266774.05754414
0.8997320912449734	173470116.56936955
0.8999570242677847	169672509.9168238
0.9001820135238516	165873953.86261463
0.9004070590272328	162719580.45241827
0.9006321607919896	162946421.97190723
0.9008573188321878	163173320.2017763
0.9010825331618959	163400275.15620273
0.9013078037951865	163627286.8493678
0.9015331307461353	163854355.29545605
0.9017585140288219	164449265.53514758
0.9019839536573292	165076002.78002846
0.9022094496457435	165702896.7092201
0.9024350020081551	166329947.3618948
0.9026606107586572	166957154.7772324
0.902886275911347	168135366.60891655
0.9031119974803249	169579419.88628516
0.9033377754796951	171023834.17697313
0.903563609923565	172468609.57123312
0.903789500826046	173913746.15934265
0.9040154482012526	174957411.81409732
0.904241452063303	175480799.83335328
0.9044675124263188	176004318.69961393
0.9046936293044254	176527968.44559106
0.9049198027117517	177051749.10400498
0.9051460326624297	177206323.14670137
0.9053723191705955	175788210.57747287
0.9055986622503881	174369743.4801034
0.9058250619159507	172950921.76595953
0.9060515181814298	171531745.34638622
0.9062780310609752	170112214.13270903
0.9065046005687405	170679938.5219306
0.906731226718883	171358687.75484174
0.9069579095255627	172037606.6750602
0.907184649002944	172716695.3250088
0.907411445165195	173395953.74712056
0.9076382980264862	171961184.07762444
0.907865207600993	169648033.2409386
0.9080921739028933	167334304.11654425
0.9083191969463691	165019996.5598692
0.9085462767456058	162705110.42630383
0.9087734133147922	164007817.61081865
0.9090006066681211	169489884.02597877
0.909227856819788	174973320.95773542
0.9094551637839932	180458128.74873257
0.9096825275749393	185944307.74167573
0.9099099482068329	189454062.39135003
0.9101374256938848	185935573.59946385
0.9103649600503083	182416205.18538132
0.9105925512903209	178895956.929196
0.9108201994281437	175374828.61094293
0.9110479044780008	171852820.01061434
0.9112756664541204	172372824.54978442
0.911503485370734	172985500.21280283
0.9117313612420768	173598329.04473695
0.9119592940823873	174211311.0838789
0.912187283905908	174824446.36853084
0.9124153307268845	174657837.59975687
0.9126434345595664	174208130.0315932
0.9128715954182063	173758310.03653792
0.9130998133170609	173308377.58648366
0.9133280882703902	172858332.6533169
