#wavelength	surface flux
0.7	4301820.901885954
0.7001166666666666	4307630.014602696
0.7002333527777778	4312497.499702422
0.700350058336574	4317365.796049662
0.7004667833462966	4322234.90377962
0.7005835278101878	4327104.823027547
0.7007002917314895	4331975.553928674
0.7008170751134447	4336847.096618284
0.7009338779592968	4341719.451231673
0.7010507002722901	4346174.084528813
0.7011675420556689	4350120.132972342
0.701284403312678	4354066.839090604
0.7014012840465635	4358014.202993226
0.7015181842605713	4361962.224789831
0.701635103957948	4365910.904590066
0.701752043141941	4369860.242503599
0.701869001815798	4373810.238640124
0.7019859799827672	4377327.479297063
0.7021029776460976	4380543.67455199
0.7022199948090387	4383760.405839464
0.7023370314748403	4386977.673248816
0.7024540876467528	4390195.476869404
0.702571163328027	4393413.81679059
0.7026882585219152	4396632.693101771
0.7028053732316688	4399852.105892333
0.7029225074605406	4405082.506808568
0.7030396612117841	4411090.107006068
0.7031568344886527	4417098.70847027
0.7032740272944008	4423108.3113680445
0.7033912396322832	4429118.915866305
0.7035084715055552	4435130.522131977
0.7036257229174727	4441143.130332028
0.7037429938712924	4447156.740633451
0.7038602843702709	4453427.725075073
0.7039775944176659	4459743.237226312
0.7040949240167356	4466059.801962912
0.7042122731707383	4472377.4194602985
0.7043296418829335	4478696.089893938
0.7044470301565806	4485015.813439315
0.70456443799494	4491336.590271945
0.7046818654012724	4497658.420567384
0.7047993123788394	4502721.827606636
0.7049167789309024	4507784.6332414225
0.7050342650607243	4512848.282677155
0.7051517707715678	4517912.776054459
0.7052692960666963	4522978.113513989
0.705386840949374	4528044.295196427
0.7055044054228656	4533111.321242487
0.7056219894904361	4538048.310938403
0.7057395931553511	4542154.389568603
0.705857216420877	4546261.1525452435
0.7059748592902804	4550368.599982378
0.7060925217668288	4554476.73199409
0.70621020385379	4558585.548694469
0.7063279055544321	4562695.050197627
0.7064456268720246	4566805.236617709
0.7065633678098366	4571104.042472451
0.7066811283711383	4575921.139588573
0.7067989085592001	4580739.039554214
0.7069167083772933	4585557.742503179
0.7070345278286895	4590377.248569307
0.707152366916661	4595197.557886446
0.7072702256444803	4600018.670588465
0.7073881040154211	4604840.586809276
0.7075060020327569	4609748.293257415
0.7076239196997625	4614780.58763064
0.7077418570197124	4619813.720719587
0.7078598139958823	4624847.69266405
0.7079777906315483	4629882.503603841
0.7080957869299869	4634918.153678785
0.7082138028944751	4639954.64302874
0.7083318385282908	4644991.971793589
0.7084498938347124	4649425.156490838
0.708567968817018	4653346.162575408
0.7086860634784875	4657267.822160996
0.7088041778224007	4661190.1353565175
0.7089223118520377	4665113.1022709
0.7090404655706796	4669036.7230131
0.709158638981608	4672960.997692095
0.709276832088105	4676885.92641687
0.7093950448934531	4681785.342780916
0.7095132774009353	4687150.007408837
0.7096315296138355	4692515.566147532
0.7097498015354378	4697882.019146015
0.7098680931690269	4703249.366553326
0.7099864045178884	4708617.6085185455
0.7101047355853081	4713986.745190757
0.7102230863745722	4719356.776719078
0.7103414568889679	4724214.846392639
0.7104598471317828	4728957.192582977
0.7105782571063047	4733700.329164344
0.7106966868158224	4738444.256268473
0.710815136263625	4743188.97402712
0.7109336054530023	4747934.482572062
0.7110520943872445	4752680.782035094
0.7111706030696424	4757427.872548039
0.7112891315034873	4762067.337780078
0.7114076796920712	4766702.403394658
0.7115262476386865	4771338.241520174
0.7116448353466263	4775974.852285374
0.711763442819184	4780612.235819037
0.711882070059654	4785250.3922499595
0.7120007170713306	4789889.321706952
0.7121193838575091	4794567.656765188
0.7122380704214853	4799649.698072366
0.7123567767665555	4804732.586386425
0.7124755028960166	4809816.321848539
0.7125942488131658	4814900.904599892
0.7127130145213015	4819986.3347817175
0.7128318000237216	4825072.612535224
0.7129506053237256	4830159.738001698
0.7130694304246129	4835058.298818214
0.7131882753296837	4839295.423220381
0.7133071400422386	4843533.25380995
0.7134260245655789	4847771.790704615
0.7135449289030065	4852011.034022097
0.7136638530578235	4856250.983880129
0.7137827970333332	4860491.640396477
0.7139017608328388	4864733.00368891
0.7140207444596443	4869059.421981226
0.7141397479170543	4873537.029992963
0.7142587712083737	4878015.384272696
0.7143778143369084	4882494.484944813
0.7144968773059646	4886974.332133709
0.7146159601188489	4891454.925963803
0.7147350627788687	4895936.266559535
0.7148541852893318	4900418.354045364
0.7149733276535467	4904448.777203652
0.7150924898748222	4908023.670613704
0.715211671956468	4911599.1598393265
0.7153308739017941	4915175.244979822
0.715450095714111	4918751.926134506
0.71556933739673	4922329.203402717
0.7156885989529628	4925907.076883804
0.7158078803861218	4929485.546677144
0.7159271816995193	4930579.457535579
0.7160465028964692	4930214.919569095
0.7161658439802853	4929850.320846283
0.7162852049542819	4929485.661357016
0.7164045858217744	4929120.941091169
0.716523986586078	4928756.160038611
0.7166434072505089	4928391.31818921
0.716762847818384	4928026.415532835
0.7168823082930204	4930434.806719754
0.7170017886777359	4933659.508444016
0.7171212889758488	4936884.7476185635
0.7172408091906781	4940110.524332974
0.7173603493255433	4943336.838676838
0.7174799093837642	4946563.690739758
0.7175994893686615	4949791.0806113565
0.7177190892835562	4953019.008381265
0.7178387091317702	4962778.706438124
0.7179583489166254	4973195.654969394
0.7180780086414448	4983614.339658761
0.7181976883095517	4994034.760795577
0.7183173879242699	5004456.918669249
0.718437107488924	5014880.813569237
0.7185568470068389	5025306.445785044
0.7186766064813399	5035482.185139053
0.7187963859157535	5039368.304223989
0.7189161853134061	5043255.07099544
0.719036004677625	5047142.485561353
0.7191558440117378	5051030.548029691
0.7192757033190732	5054919.258508447
0.7193955826029597	5058808.61710561
0.7195154818667269	5062698.62392921
0.7196354011137046	5066264.485019819
0.7197553403472235	5068335.530476842
0.7198752995706147	5070406.921108106
0.7199952787872098	5072478.6569711445
0.720115278000341	5074550.738123492
0.7202352972133411	5076623.1646227
0.7203553364295432	5078695.93652632
0.7204753956522815	5080769.053891928
0.7205954748848902	5083978.049860842
0.7207155741307044	5089691.006711602
0.7208356933930594	5095404.915721827
0.7209558326752915	5101119.777050222
0.7210759919807375	5106835.590855513
0.7211961713127342	5112552.35729643
0.7213163706746197	5118270.076531763
0.7214365900697322	5123988.748720297
0.7215568295014103	5127972.916494514
0.721677088972994	5129887.055107452
0.7217973684878227	5131801.51274349
0.7219176680492374	5133716.289455801
0.7220379876605789	5135631.385297565
0.722158327325189	5137546.800321969
0.7222786870464099	5139462.534582209
0.7223990668275843	5141378.588131494
0.7225194666720555	5144380.852040916
0.7226398865831676	5148153.214477195
0.7227603265642646	5151926.205640539
0.722880786618692	5155699.825635751
0.7230012667497951	5159474.074567626
0.7231217669609201	5163248.95254099
0.7232422872554135	5167024.45966068
0.7233628276366229	5170800.596031563
0.7234833881078956	5176090.517560151
0.7236039686725803	5181955.807604824
0.7237245693340255	5187822.075197829
0.7238451900955812	5193689.32050211
0.7239658309605971	5199557.543680601
0.7240864919324239	5205426.744896296
0.7242071730144127	5211296.924312196
0.724327874209915	5217168.0820913175
0.7244485955222832	5216443.910510751
0.7245693369548704	5214628.974454838
0.7246900985110294	5212813.735909584
0.7248108801941148	5210998.194824568
0.7249316820074803	5209182.351149377
0.7250525039544815	5207366.204833571
0.7251733460384739	5205549.755826712
0.7252942082628137	5203748.042532096
0.7254150906308574	5210659.785362449
0.7255359931459625	5217572.680149941
0.7256569158114868	5224486.727086566
0.7257778586307888	5231401.926364351
0.7258988216072273	5238318.278175347
0.7260198047441617	5245235.782711636
0.7261408080449525	5252154.440165361
0.72626183151296	5258680.744033225
0.7263828751515454	5262593.057850571
0.7265039389640706	5266506.02372022
0.726625022953898	5270419.641750849
0.7267461271243904	5274333.912051151
0.7268672514789111	5278248.834729834
0.7269883960208241	5282164.409895628
0.7271095607534942	5286080.637657284
0.7272307456802866	5289630.3059069
0.7273519508045666	5292188.636935507
0.7274731761297006	5294747.394352617
0.7275944216590555	5297306.578229296
0.7277156873959987	5299866.188636622
0.7278369733438982	5302426.225645688
0.727958279506122	5304986.689327581
0.7280796058860397	5307547.579753424
0.7282009524870207	5309314.426725212
0.7283223193124353	5309906.458171352
0.7284437063656539	5310498.5882894
0.7285651136500483	5311090.817095801
0.7286865411689898	5311683.144607003
0.7288079889258514	5312275.570839457
0.7289294569240056	5312868.095809616
0.7290509451668262	5313460.719533937
0.7291724536576875	5314663.57898825
0.7292939823999636	5316372.203069832
0.7294155313970303	5318081.111922097
0.7295371006522632	5319790.305592503
0.7296586901690385	5321499.784128521
0.7297802999507332	5323209.547577626
0.7299019300007252	5324919.595987312
0.7300235803223919	5326629.92940506
0.7301452509191123	5329593.967995558
0.7302669417942654	5333137.041025704
0.7303886529512311	5336680.704568022
0.7305103843933897	5340224.958720931
0.7306321361241218	5343769.803582863
0.7307539081468093	5347315.239252279
0.7308757004648336	5350861.265827631
0.7309975130815778	5354407.883407417
0.7311193460004248	5359221.881916165
0.7312411992247582	5364323.467802724
0.7313630727579622	5369425.903953595
0.7314849666034219	5374529.190510497
0.7316068807645224	5379633.327615156
0.7317288152446498	5384738.315409334
0.7318507700471907	5389844.154034815
0.7319727451755319	5394950.843633397
0.732094740633061	5395643.9217672935
0.7322167564231665	5396138.3749108175
0.7323387925492371	5396632.910463199
0.7324608490146619	5397127.528438172
0.732582925822831	5397622.228849475
0.7327050229771347	5398117.011710846
0.7328271404809642	5398611.877036028
0.7329492783377112	5399011.436112317
0.7330714365507675	5398473.289650448
0.7331936151235259	5397935.053497503
0.7333158140593796	5397396.7276385315
0.7334380333617229	5396858.312058584
0.7335602730339499	5396319.806742705
0.7336825330794556	5395781.211675941
0.7338048135016354	5395242.526843334
0.7339271143038857	5395677.315786564
0.734049435489603	5399374.282686023
0.7341717770621846	5403071.865746633
0.7342941390250283	5406770.065071085
0.7344165213815324	5410468.880762089
0.734538924135096	5414168.31292238
0.7346613472891185	5417868.361654693
0.734783790847	5421569.027061797
0.7349062548121412	5423088.127096438
0.7350287391879431	5420750.384242302
0.7351512439778078	5418412.251764352
0.7352737691851374	5416073.729597659
0.735396314813335	5413734.817677269
0.7355188808658037	5411395.51593823
0.7356414673459482	5409055.824315563
0.7357640742571725	5406715.742744293
0.7358867016028818	5405785.826372651
0.7360093493864824	5406248.805492362
0.7361320176113801	5406711.8617752595
0.736254706280982	5407174.995234204
0.7363774153986956	5407638.205882059
0.7365001449679286	5408101.493731688
0.7366228949920899	5408564.858795959
0.7367456654745885	5409028.30108774
0.7368684564188344	5409364.672887975
0.7369912678282374	5409629.2395316595
0.7371140997062088	5409893.850269785
0.7372369520561599	5410158.5051097
0.7373598248815024	5410423.204058755
0.7374827181856494	5410687.947124301
0.7376056319720137	5410952.734313693
0.7377285662440091	5411217.565634282
0.7378515210050496	5410371.576049177
0.7379744962585505	5409191.219968154
0.738097492007927	5408010.667161117
0.7382205082565949	5406829.91759528
0.738343545007971	5405648.971237849
0.7384666022654723	5404467.828056024
0.7385896800325165	5403286.488017004
0.7387127783125219	5402104.951087976
0.7388358971089073	5401498.511407918
0.7389590364250921	5400949.67408793
0.7390821962644963	5400400.745295053
0.7392053766305403	5399851.725014047
0.7393285775266454	5399302.613229658
0.7394517989562333	5398753.40992664
0.7395750409227259	5398204.115089738
0.7396983034295463	5397560.398957854
0.739821586480118	5394818.140142594
0.7399448900778645	5392075.424284205
0.7400682142262109	5389332.251306497
0.740191558928582	5386588.621133295
0.7403149241884034	5383844.5336884
0.7404383100091014	5381099.988895597
0.7405617163941028	5378354.986678664
0.7406851433468352	5375022.830245988
0.7408085908707264	5369006.122076309
0.7409320589692048	5362988.411121938
0.7410555476456997	5356969.697215738
0.7411790569036406	5350949.980190556
0.7413025867464579	5344929.259879202
0.7414261371775823	5338907.536114462
0.7415497082004452	5332884.808729097
0.7416732998184786	5326935.944307987
0.741796912035115	5321146.692333002
0.7419205448537874	5315356.475482688
0.7420441982779297	5309565.293596234
0.742167872310976	5303773.146512793
0.7422915669563612	5297980.034071505
0.7424152822175206	5292185.956111479
0.7425390180978901	5286390.912471795
0.7426627746009065	5281228.175583165
0.7427865517300065	5276836.582875176
0.7429103494886282	5272444.258235064
0.7430341678802096	5268051.201540849
0.7431580069081896	5263657.412670518
0.7432818665760077	5259262.891502037
0.7434057468871037	5254867.637913364
0.7435296478449182	5250471.651782429
0.7436535694528923	5244205.980716124
0.7437775117144678	5236659.910215244
0.7439014746330868	5229112.582035958
0.7440254582121922	5221563.995968635
0.7441494624552276	5214014.151803632
0.7442734873656368	5206463.049331269
0.7443975329468645	5198910.6883418225
0.7445215992023557	5191357.068625544
0.7446456861355559	5182418.363311742
0.7447697937499119	5172968.4032151345
0.7448939220488703	5163516.868125179
0.7450180710358784	5154063.757779384
0.7451422407143843	5144609.071915196
0.7452664310878367	5135152.8102700235
0.7453906421596846	5125694.972581252
0.7455148739333779	5116235.558586197
0.7456391264123667	5105680.341989503
0.7457633996001021	5094948.405498104
0.7458876935000356	5084214.6803506045
0.7460120081156189	5073479.166248934
0.7461363434503048	5062741.8628949085
0.7462606995075466	5052002.769990314
0.7463850762907978	5041261.887236918
0.7465094738035127	5030514.64791331
0.7466338920491467	5018571.066505289
0.746758331031155	5006625.494500355
0.7468827907529935	4994677.931566767
0.7470072712181189	4982728.377372691
0.7471317724299886	4970776.831586246
0.7472562943920602	4958823.293875513
0.7473808371077922	4946867.763908483
0.7475054005806435	4934512.167812446
0.7476299848140736	4919702.535554305
0.7477545898115426	4904890.435024116
0.7478792155765113	4890075.865810502
0.7480038621124406	4875258.827502032
0.7481285294227926	4860439.319687179
0.7482532175110298	4845617.341954343
0.7483779263806148	4830792.8938919045
0.7485026560350116	4815324.6420509545
0.7486274064776842	4798118.068321259
0.748752177712097	4780908.626829307
0.7488769697417158	4763696.317097069
0.749001782570006	4746481.1386465635
0.7491266162004343	4729263.090999655
0.7492514706364677	4712042.173678131
0.7493763458815739	4694818.386203702
0.7495012419392209	4676403.036175245
0.7496261588128773	4656275.730626832
0.7497510965060128	4636145.07052748
0.7498760550220971	4616011.055318119
0.7500010343646007	4595873.684439553
0.7501260345369949	4575732.9573324965
0.750251055542751	4555588.873437613
0.7503760973853414	4535441.432195401
0.7505011600682389	4513580.907465956
0.750626243594917	4490289.157550751
0.7507513479688495	4466993.525677262
0.7508764731935109	4443694.011198452
0.7510016192723765	4420390.613467223
0.7511267862089218	4397083.331836394
0.7512519740066232	4373772.165658618
0.7513771826689577	4350457.1142864665
0.7515024121994025	4325247.027084706
0.7516276626014359	4299150.977800629
0.751752933878536	4273050.57917505
0.7518782260341824	4246945.830483025
0.7520035390718548	4220836.73099954
0.7521288729950334	4194723.279999487
0.7522542278071992	4168605.4767575986
0.7523796035118337	4142483.320548491
0.7525050001124189	4113013.051713747
0.7526304176124378	4082810.6783807613
0.7527558560153731	4052603.2713189255
0.752881315324709	4022390.829689217
0.7530067955439299	3992173.352652559
0.7531322966765205	3961950.839369769
0.7532578187259665	3931723.2890014225
0.7533833616957542	3901490.7007080154
0.75350892558937	3867305.8431674717
0.7536345104103016	3832929.6780920355
0.7537601161620366	3798547.7836557706
0.7538857428480638	3764160.1589037334
0.7540113904718717	3729766.8028809484
0.7541370590369503	3695367.7146321675
0.7542627485467898	3660962.8932019896
0.7543884590048808	3626289.490128056
0.7545141904147151	3588989.163031186
0.7546399427797842	3551682.6192131927
0.7547657161035808	3514369.8576378906
0.754891510389598	3477050.8772689947
0.7550173256413296	3439725.677070022
0.7551431618622698	3402394.256004359
0.7552690190559135	3365056.6130351927
0.7553948972257561	3326645.636858527
0.7555207963752938	3284646.3714340623
0.755646716508023	3242640.1061320505
0.755772657627441	3200626.8397858073
0.7558986197370455	3158606.5712285
0.756024602840335	3116579.2992931106
0.7561506069408084	3074545.0228123995
0.7562766320419653	3032503.740618903
0.7564026781473054	2988589.5068527334
0.75652874526033	2941384.389208019
0.7566548333845401	2894171.4040436726
0.7567809425234375	2846950.5500484826
0.7569070726805247	2799721.825910987
0.7570332238593047	2752485.2303194744
0.7571593960632813	2705240.761961985
0.7572855892959586	2657988.4195264336
0.7574118035608413	2610345.125798574
0.7575380388614347	2562319.1158651193
0.7576642952012449	2514285.101596657
0.7577905725837782	2466243.0816592197
0.7579168710125422	2418193.054718374
0.7580431904910444	2370135.019439686
0.7581695310227928	2322068.974488513
0.7582958926112967	2273994.9185297876
0.7584222752600652	2224558.6914261226
0.7585486789726085	2174336.312399729
0.7586751037524372	2124105.562976812
0.7588015496030628	2073866.4417622262
0.7589280165279966	2023618.947360871
0.7590545045307512	1973363.0783771153
0.7591810136148396	1923098.8334151967
0.7593075437837755	1872826.211079044
0.7594340950410726	1822492.5003732848
0.7595606673902461	1772135.1077332308
0.7596872608348112	1721769.322194353
0.7598138753782836	1671395.1423579408
0.75994051102418	1621012.5668248422
0.7600671677760173	1570621.5941958607
0.7601938456373134	1520222.2230714024
0.7603205446115863	1469814.4520517853
0.7604472647023548	1420781.5838904013
0.7605740059131385	1371878.0438519074
0.7607007682474575	1322966.3532233592
0.7608275517088319	1274046.5106464815
0.7609543563007835	1225118.514762399
0.7610811820268336	1176182.3642123656
0.7612080288905045	1127238.0576373343
0.7613348968953197	1078397.5571088346
0.7614617860448022	1031846.1588826096
0.7615886963424764	985287.00208995
0.7617156277918667	938720.0854378701
0.7618425803964988	892145.4076329763
0.7619695541598982	845562.9673817942
0.7620965490855914	798972.7633906046
0.7622235651771058	752374.7943653627
0.7623506024379685	707473.5241149784
0.7624776608717082	670035.6269232268
0.7626047404818536	632591.4900819414
0.7627318412719337	595141.1125512469
0.762858963245479	557684.4932909403
0.7629861064060198	520221.6312607537
0.7631132707570876	482752.52542018984
0.7632404563022137	445277.17472868616
0.7633676630449308	410646.104344311
0.7634948909887717	382077.08596223313
0.7636221401372697	353503.3060771288
0.7637494104939593	324924.76389535
0.7638767020623748	296341.45862324873
0.7640040148460518	267753.389466903
0.7641313488485262	239160.55563236555
0.7642587040733344	210562.9563254899
0.7643860805240132	186614.05226210563
0.7645134782041005	168214.1312675217
0.7646408971171346	149811.14361943107
0.764768337266654	131405.08880673914
0.7648957986561985	112995.96631823912
0.7650232812893079	94583.77564266014
0.7651507851695227	76168.51626863507
0.7652783103003843	57750.1876847166
0.7654058566854343	46894.53161717437
0.7655334243282153	41193.31743186612
0.7656610132322699	35491.153044201084
0.765788623401142	29788.0382957994
0.7659162548383754	24083.97302827627
