#wavelength	surface flux
0.7	296088.2753436439
0.7001166666666666	296612.7070648578
0.7002333527777778	297000.8564934031
0.700350058336574	297389.07061351964
0.7004667833462966	297777.34943598905
0.7005835278101878	298165.69297159655
0.7007002917314895	298554.1012311261
0.7008170751134447	298942.5742253655
0.7009338779592968	299331.1119651037
0.7010507002722901	299592.40436410607
0.7011675420556689	299698.81238770543
0.701284403312678	299805.2381459752
0.7014012840465635	299911.6816418716
0.7015181842605713	300018.1428783505
0.701635103957948	300124.6218583688
0.701752043141941	300231.11858488375
0.701869001815798	300337.6330608533
0.7019859799827672	300559.32131037134
0.7021029776460976	300861.188614467
0.7022199948090387	301163.10622978036
0.7023370314748403	301465.0741646961
0.7024540876467528	301767.092427601
0.702571163328027	302069.16102688253
0.7026882585219152	302371.2799709314
0.7028053732316688	302673.4492681372
0.7029225074605406	303312.822631488
0.7030396612117841	304082.49306467496
0.7031568344886527	304852.2917762677
0.7032740272944008	305622.21878764516
0.7033912396322832	306392.2741201916
0.7035084715055552	307162.45779529266
0.7036257229174727	307932.76983433985
0.7037429938712924	308703.21025872766
0.7038602843702709	309323.1275585524
0.7039775944176659	309917.59657577524
0.7040949240167356	310512.1646711678
0.7042122731707383	311106.8318612426
0.7043296418829335	311701.59816251614
0.7044470301565806	312296.4635915064
0.70456443799494	312891.4281647344
0.7046818654012724	313486.4918987249
0.7047993123788394	313924.7964825288
0.7049167789309024	314362.994115204
0.7050342650607243	314801.26478081866
0.7051517707715678	315239.6084915441
0.7052692960666963	315678.0252595544
0.705386840949374	316116.51509702584
0.7055044054228656	316555.0780161376
0.7056219894904361	316953.2342510367
0.7057395931553511	317094.21216518106
0.705857216420877	317235.21357564454
0.7059748592902804	317376.238486343
0.7060925217668288	317517.2869011934
0.70621020385379	317658.35882411286
0.7063279055544321	317799.45425901935
0.7064456268720246	317940.57320983184
0.7065633678098366	318121.85692202573
0.7066811283711383	318413.72056350723
0.7067989085592001	318705.6328489289
0.7069167083772933	318997.593786398
0.7070345278286895	319289.6033840235
0.707152366916661	319581.66164991533
0.7072702256444803	319873.76859218447
0.7073881040154211	320165.92421894445
0.7075060020327569	320528.675492543
0.7076239196997625	320994.22809558036
0.7077418570197124	321459.8582907178
0.7078598139958823	321925.5660908877
0.7079777906315483	322391.3515090248
0.7080957869299869	322857.2145580645
0.7082138028944751	323323.1552509455
0.7083318385282908	323789.17360060895
0.7084498938347124	323940.52807841136
0.708567968817018	323825.0634718441
0.7086860634784875	323709.5796211757
0.7088041778224007	323594.0765231987
0.7089223118520377	323478.5541747055
0.7090404655706796	323363.0125724877
0.709158638981608	323247.451713336
0.709276832088105	323131.8715940411
0.7093950448934531	323415.65093087876
0.7095132774009353	323889.94558410073
0.7096315296138355	324364.31928643177
0.7097498015354378	324838.7720510464
0.7098680931690269	325313.30389112135
0.7099864045178884	325787.9148198369
0.7101047355853081	326262.6048503738
0.7102230863745722	326737.37399591546
0.7103414568889679	327150.57851394435
0.7104598471317828	327549.84498577
0.7105782571063047	327949.1780020074
0.7106966868158224	328348.5775737475
0.710815136263625	328748.0437120828
0.7109336054530023	329147.57642810803
0.7110520943872445	329547.17573291913
0.7111706030696424	329946.8416376146
0.7112891315034873	330093.4517490287
0.7114076796920712	330228.0090965706
0.7115262476386865	330362.58887033706
0.7116448353466263	330497.19107406575
0.711763442819184	330631.8157114952
0.711882070059654	330766.46278636425
0.7120007170713306	330901.13230241236
0.7121193838575091	331036.746979057
0.7122380704214853	331182.0079464703
0.7123567767665555	331327.2931240447
0.7124755028960166	331472.60251581547
0.7125942488131658	331617.93612581806
0.7127130145213015	331763.29395808943
0.7128318000237216	331908.6760166657
0.7129506053237256	332054.08230558527
0.7130694304246129	332186.509229258
0.7131882753296837	332273.49305886077
0.7133071400422386	332360.49138576846
0.7134260245655789	332447.50421239727
0.7135449289030065	332534.53154116386
0.7136638530578235	332621.5733744852
0.7137827970333332	332708.62971477886
0.7139017608328388	332795.7005644626
0.7140207444596443	332864.06527211785
0.7141397479170543	332899.04558544006
0.7142587712083737	332934.0317288145
0.7143778143369084	332969.0237032128
0.7144968773059646	333004.02150960686
0.7146159601188489	333039.0251489687
0.7147350627788687	333074.0346222703
0.7148541852893318	333109.0499304842
0.7149733276535467	332970.01144758717
0.7150924898748222	332655.43195420515
0.715211671956468	332340.8000309075
0.7153308739017941	332026.1156689557
0.715450095714111	331711.3788596105
0.71556933739673	331396.58959413023
0.7156885989529628	331081.7478637725
0.7158078803861218	330766.8536597925
0.7159271816995193	329890.42401802924
0.7160465028964692	328684.2928398856
0.7161658439802853	327477.9606398789
0.7162852049542819	326271.42738450575
0.7164045858217744	325064.693040256
0.716523986586078	323857.75757361605
0.7166434072505089	322650.6209510656
0.716762847818384	321443.2831390776
0.7168823082930204	320858.81582025974
0.7170017886777359	320457.55613756797
0.7171212889758488	320056.22957826266
0.7172408091906781	319654.83613119734
0.7173603493255433	319253.3757852241
0.7174799093837642	318851.8485291934
0.7175994893686615	318450.25435195316
0.7177190892835562	318048.59324235027
0.7178387091317702	319476.0485555782
0.7179583489166254	321087.360458371
0.7180780086414448	322698.94091314886
0.7181976883095517	324310.7899646691
0.7183173879242699	325922.90765769803
0.718437107488924	327535.2940370096
0.7185568470068389	329147.9491473849
0.7186766064813399	330686.8871265046
0.7187963859157535	330376.27086647373
0.7189161853134061	330065.6028370661
0.719036004677625	329754.8830296536
0.7191558440117378	329444.11143560667
0.7192757033190732	329133.28804629366
0.7193955826029597	328822.4128530828
0.7195154818667269	328511.48584733944
0.7196354011137046	328156.80906063726
0.7197553403472235	327600.87994321226
0.7198752995706147	327044.85817093466
0.7199952787872098	326488.74372836127
0.720115278000341	325932.53660004743
0.7202352972133411	325376.23677054554
0.7203553364295432	324819.8442244062
0.7204753956522815	324263.358946175
0.7205954748848902	323961.3504433902
0.7207155741307044	324220.52225981746
0.7208356933930594	324479.73727154697
0.7209558326752915	324738.9954857785
0.7210759919807375	324998.2969097128
0.7211961713127342	325257.6415505507
0.7213163706746197	325517.0294154958
0.7214365900697322	325776.46051175153
0.7215568295014103	325726.2018143134
0.721677088972994	325306.3710544542
0.7217973684878227	324886.4703228023
0.7219176680492374	324466.4996076947
0.7220379876605789	324046.45889746817
0.722158327325189	323626.3481804564
0.7222786870464099	323206.16744499205
0.7223990668275843	322785.9166794049
0.7225194666720555	322196.29176539055
0.7226398865831676	321486.57852167555
0.7227603265642646	320776.74699242157
0.722880786618692	320066.7971579112
0.7230012667497951	319356.7289984289
0.7231217669609201	318646.54249425326
0.7232422872554135	317936.23762566084
0.7233628276366229	317225.81437292247
0.7234833881078956	317123.4693397902
0.7236039686725803	317252.01603569154
0.7237245693340255	317380.5841560421
0.7238451900955812	317509.1737044129
0.7239658309605971	317637.78468437487
0.7240864919324239	317766.4170995004
0.7242071730144127	317895.0709533618
0.724327874209915	318023.7462495319
0.7244485955222832	316384.68108624016
0.7245693369548704	314453.05824929633
0.7246900985110294	312521.11347521585
0.7248108801941148	310588.84671033453
0.7249316820074803	308656.2579009989
0.7250525039544815	306723.3469935252
0.7251733460384739	304790.1139342333
0.7252942082628137	302860.5739219984
0.7254150906308574	303257.27683112933
0.7255359931459625	303654.0458574118
0.7256569158114868	304050.88101186545
0.7257778586307888	304447.78230551176
0.7258988216072273	304844.74974937347
0.7260198047441617	305241.78335447545
0.7261408080449525	305638.8831318456
0.72626183151296	305943.64213674905
0.7263828751515454	305634.35469476203
0.7265039389640706	305325.01570486807
0.726625022953898	305015.62515847565
0.7267461271243904	304706.18304699194
0.7268672514789111	304396.68936182326
0.7269883960208241	304087.1440943739
0.7271095607534942	303777.5472360465
0.7272307456802866	303442.4168777276
0.7273519508045666	303038.39790041384
0.7274731761297006	302634.31158660405
0.7275944216590555	302230.15792507527
0.7277156873959987	301825.9369046028
0.7278369733438982	301421.6485139596
0.727958279506122	301017.292741919
0.7280796058860397	300612.8695772493
0.7282009524870207	299823.8009363301
0.7283223193124353	298465.7669883426
0.7284437063656539	297107.50670136657
0.7285651136500483	295749.0200376738
0.7286865411689898	294390.3069595399
0.7288079889258514	293031.367429223
0.7289294569240056	291672.2014089875
0.7290509451668262	290312.80886108044
0.7291724536576875	289157.1727484137
0.7292939823999636	288170.36590408906
0.7294155313970303	287183.394591955
0.7295371006522632	286196.25878460257
0.7296586901690385	285208.9584546163
0.7297802999507332	284221.4935745755
0.7299019300007252	283233.8641170522
0.7300235803223919	282246.07005462184
0.7301452509191123	281779.2432794709
0.7302669417942654	281552.8772730068
0.7303886529512311	281326.47353887476
0.7305103843933897	281100.0320707871
0.7306321361241218	280873.55286245485
0.7307539081468093	280647.0359075875
0.7308757004648336	280420.48119989486
0.7309975130815778	280193.88873308396
0.7311193460004248	280178.11309882795
0.7312411992247582	280210.0696245025
0.7313630727579622	280242.0314762647
0.7314849666034219	280273.99865500216
0.7316068807645224	280305.97116160276
0.7317288152446498	280337.9489969545
0.7318507700471907	280369.93216194544
0.7319727451755319	280401.92065746384
0.732094740633061	279327.1730476675
0.7322167564231665	278202.4204632813
0.7323387925492371	277077.48042013095
0.7324608490146619	275952.3528869737
0.732582925822831	274827.03783256066
0.7327050229771347	273701.5352256399
0.7328271404809642	272575.8450349501
0.7329492783377112	271436.6920417804
0.7330714365507675	270166.8400479816
0.7331936151235259	268896.7764121842
0.7333158140593796	267626.5010991155
0.7334380333617229	266356.0140734928
0.7335602730339499	265085.31530003186
0.7336825330794556	263814.40474344173
0.7338048135016354	262543.28236842796
0.7339271143038857	261496.7670741565
0.734049435489603	261203.37495044884
0.7341717770621846	260909.93392805386
0.7342941390250283	260616.44399882195
0.7344165213815324	260322.90515460196
0.734538924135096	260029.31738724082
0.7346613472891185	259735.68068858553
0.734783790847	259441.99505048036
0.7349062548121412	258738.02120536636
0.7350287391879431	257308.81538581266
0.7351512439778078	255879.37136528612
0.7352737691851374	254449.68910409123
0.735396314813335	253019.76856251818
0.7355188808658037	251589.60970085725
0.7356414673459482	250159.2124793831
0.7357640742571725	248728.57685837307
0.7358867016028818	247513.03169088383
0.7360093493864824	246509.9406325941
0.7361320176113801	245506.68239246268
0.736254706280982	244503.25694262458
0.7363774153986956	243499.6642552102
0.7365001449679286	242495.90430234995
0.7366228949920899	241491.97705616342
0.7367456654745885	240487.88248876922
0.7368684564188344	239460.2253052343
0.7369912678282374	238419.1743336118
0.7371140997062088	237377.9498534936
0.7372369520561599	236336.5518359611
0.7373598248815024	235294.98025209463
0.7374827181856494	234253.23507296244
0.7376056319720137	233211.31626963368
0.7377285662440091	232169.22381317086
0.7378515210050496	231040.66703652698
0.7379744962585505	229885.9599391678
0.738097492007927	228731.06039062602
0.7382205082565949	227575.96835882685
0.738343545007971	226420.6838116893
0.7384666022654723	225265.20671712604
0.7385896800325165	224109.5370430488
0.7387127783125219	222953.67475735772
0.7388358971089073	221841.52701287044
0.7389590364250921	220733.59791005333
0.7390821962644963	219625.4841523849
0.7392053766305403	218517.1857090918
0.7393285775266454	217408.7025493907
0.7394517989562333	216300.03464249524
0.7395750409227259	215191.1819576171
0.7396983034295463	214073.75886342948
0.739821586480118	212769.60560768162
0.7399448900778645	211465.23499306035
0.7400682142262109	210160.64698333273
0.740191558928582	208855.8415422715
0.7403149241884034	207550.8186336378
0.7404383100091014	206245.5782211857
0.7405617163941028	204940.12026866563
0.7406851433468352	203577.32549212233
0.7408085908707264	201952.99676156364
0.7409320589692048	200328.39730955064
0.7410555476456997	198703.527090961
0.7411790569036406	197078.38606066944
0.7413025867464579	195452.97417353903
0.7414261371775823	193827.291384427
0.7415497082004452	192201.33764818468
0.7416732998184786	190596.62953003292
0.741796912035115	189037.8113260981
0.7419205448537874	187478.73331912965
0.7420441982779297	185919.39546582676
0.742167872310976	184359.7977228802
0.7422915669563612	182799.94004697655
0.7424152822175206	181239.82239479397
0.7425390180978901	179679.4447230037
0.7426627746009065	178285.6562897554
0.7427865517300065	177095.03680473784
0.7429103494886282	175904.21888313824
0.7430341678802096	174713.20249188595
0.7431580069081896	173521.98759790187
0.7432818665760077	172330.5741681004
0.7434057468871037	171138.962169395
0.7435296478449182	169947.1515686905
0.7436535694528923	168618.8079802166
0.7437775117144678	167196.9179549455
0.7439014746330868	165774.79094800563
0.7440254582121922	164352.42691989674
0.7441494624552276	162929.8258311159
0.7442734873656368	161506.9876421539
0.7443975329468645	160083.91231349262
0.7445215992023557	158660.59980561005
0.7446456861355559	157194.29229062263
0.7447697937499119	155711.98955711903
0.7448939220488703	154229.43977316018
0.7450180710358784	152746.64289757196
0.7451422407143843	151263.598889171
0.7452664310878367	149780.30770676726
0.7453906421596846	148296.769309168
0.7455148739333779	146812.98365516867
0.7456391264123667	145279.5095993486
0.7457633996001021	143737.8746053474
0.7458876935000356	142195.9826721778
0.7460120081156189	140653.83375702228
0.7461363434503048	139111.42781704685
0.7462606995075466	137568.76480941335
0.7463850762907978	136025.84469128092
0.7465094738035127	134482.93790303997
0.7466338920491467	133010.53087552407
0.746758331031155	131537.87844683547
0.7468827907529935	130064.98057607719
0.7470072712181189	128591.8372223404
0.7471317724299886	127118.44834471103
0.7472562943920602	125644.81390226976
0.7473808371077922	124170.93385408678
0.7475054005806435	122695.20798701125
0.7476299848140736	121209.37973230716
0.7477545898115426	119723.3038395603
0.7478792155765113	118236.98026749762
0.7480038621124406	116750.40897484077
0.7481285294227926	115263.58992030214
0.7482532175110298	113776.5230625862
0.7483779263806148	112289.20836039605
0.7485026560350116	110811.42386616585
0.7486274064776842	109359.85711904698
0.748752177712097	107908.04844413957
0.7488769697417158	106455.99780111657
0.749001782570006	105003.70514965482
0.7491266162004343	103551.17044941826
0.7492514706364677	102098.39366006435
0.7493763458815739	100645.37474124406
0.7495012419392209	99198.61968813403
0.7496261588128773	97760.97671057879
0.7497510965060128	96323.09412585961
0.7498760550220971	94884.97189404353
0.7500010343646007	93446.60997518858
0.7501260345369949	92008.00832934643
0.750251055542751	90569.16691656495
0.7503760973853414	89130.08569688044
0.7505011600682389	87718.68741191192
0.750626243594917	86330.36877803331
0.7507513479688495	84941.81875771785
0.7508764731935109	83553.03731239849
0.7510016192723765	82164.02440350459
0.7511267862089218	80774.77999246049
0.7512519740066232	79385.30404068073
0.7513771826689577	77995.59650957487
0.7515024121994025	76669.87614307416
0.7516276626014359	75373.87722848915
0.751752933878536	74077.66231408731
0.7518782260341824	72781.23136386598
0.7520035390718548	71484.58434181903
0.7521288729950334	70187.72121193576
0.7522542278071992	68890.64193819738
0.7523796035118337	67593.34648457944
0.7525050001124189	66340.246418902
0.7526304176124378	65096.59603380924
0.7527558560153731	63852.73837365391
0.752881315324709	62608.67340388735
0.7530067955439299	61364.40108995871
0.7531322966765205	60119.92139731274
0.7532578187259665	58875.23429138429
0.7533833616957542	57630.33973760489
0.75350892558937	56462.01008351605
0.7536345104103016	55297.09576464155
0.7537601161620366	54131.98729338117
0.7538857428480638	52966.68463737445
0.7540113904718717	51801.1877642599
0.7541370590369503	50635.49664166676
0.7542627485467898	49469.61123721912
0.7543884590048808	48315.28940680508
0.7545141904147151	47278.026183531394
0.7546399427797842	46240.590083055504
0.7547657161035808	45202.981076562704
0.754891510389598	44165.19913523554
0.7550173256413296	43127.244230251075
0.7551431618622698	42089.116332782694
0.7552690190559135	41050.815413998294
0.7553948972257561	40033.60480074445
0.7555207963752938	39087.597732148766
0.755646716508023	38141.432995708856
0.755772657627441	37195.110565145886
0.7558986197370455	36248.63041417767
0.756024602840335	35301.99251651788
0.7561506069408084	34355.19684587515
0.7562766320419653	33408.24337595313
0.7564026781473054	32492.59934413109
0.75652874526033	31632.17669382644
0.7566548333845401	30771.610639746294
0.7567809425234375	29910.901157990775
0.7569070726805247	29050.048224655453
0.7570332238593047	28189.051815831357
0.7571593960632813	27327.911907604972
0.7572855892959586	26466.628476060498
0.7574118035608413	25682.199923468113
0.7575380388614347	24972.970706000415
0.7576642952012449	24263.62328366287
0.7577905725837782	23554.15763675596
0.7579168710125422	22844.573745573303
0.7580431904910444	22134.87159040851
0.7581695310227928	21425.051151552092
0.7582958926112967	20715.112409288304
0.7584222752600652	20073.18280175651
0.7585486789726085	19470.28283046633
0.7586751037524372	18867.28237584738
0.7588015496030628	18264.181421151476
0.7589280165279966	17660.979949630986
0.7590545045307512	17057.677944531908
0.7591810136148396	16454.275389098664
0.7593075437837755	15850.772266571954
0.7594340950410726	15328.812539933577
0.7595606673902461	14830.453724396752
0.7596872608348112	14332.011849056837
0.7598138753782836	13833.48690007158
0.75994051102418	13334.87886359436
0.7600671677760173	12836.187725778118
0.7601938456373134	12337.413472771857
0.7603205446115863	11838.55609072371
0.7604472647023548	11422.080167713508
0.7605740059131385	11013.73180363082
0.7607007682474575	10605.315381487055
0.7608275517088319	10196.830889940506
0.7609543563007835	9788.27831764446
0.7610811820268336	9379.657653253274
0.7612080288905045	8970.96888541881
0.7613348968953197	8565.390977692072
0.7614617860448022	8224.971019345261
0.7615886963424764	7884.49432433826
0.7617156277918667	7543.960883215755
0.7618425803964988	7203.370686519449
0.7619695541598982	6862.72372479045
0.7620965490855914	6522.019988568081
0.7622235651771058	6181.259468389282
0.7623506024379685	5856.235785907241
0.7624776608717082	5600.383142008469
0.7626047404818536	5344.487856002368
0.7627318412719337	5088.549920782372
0.762858963245479	4832.569329239679
0.7629861064060198	4576.546074265039
0.7631132707570876	4320.480148747638
0.7632404563022137	4064.3715455762135
0.7633676630449308	3825.3440246941504
0.7634948909887717	3622.72748053177
0.7636221401372697	3420.0771669456262
0.7637494104939593	3217.3930783070273
0.7638767020623748	3014.6752089872807
0.7640040148460518	2811.9235533557503
0.7641313488485262	2609.1381057816225
0.7642587040733344	2406.3188606326685
0.7643860805240132	2221.7829826656357
0.7645134782041005	2059.074223944049
0.7646408971171346	1896.3383470959413
0.764768337266654	1733.575347601752
0.7648957986561985	1570.7852209409275
0.7650232812893079	1407.9679625923477
0.7651507851695227	1245.1235680340417
