#wavelength	surface flux
0.428837	1029.406415817946
0.43312537	1996.8956466413088
0.43745662370000005	2327.26560690012
0.4418311899370001	2711.8724347583543
0.44624950183637	3153.279864566392
0.4507119968547338	3647.1378445471455
0.45521911682328114	4231.028819807093
0.4597713079915139	4901.007778485078
0.4643690210714291	5657.278950890366
0.4690127112821433	6514.539546024977
0.47370283839496474	7493.142443852106
0.47843986677891437	8560.02581505993
0.48322426544670355	9818.523389180098
0.48805650810117057	11279.421480639548
0.4929370731821824	12874.147232308987
0.49786644391400414	14631.41805578578
0.5028451083531442	16592.077502081647
0.5078735594366757	18623.449452336317
0.5129522950310424	20282.91522167806
0.5180818179813528	21600.65482208686
0.5232626361611664	26716.024408257283
0.5284952625227781	30162.13028183753
0.5337802151480058	33448.372817831616
0.5391180172994858	36925.347033080674
0.5445091974724807	40246.10723761583
0.5499542894472055	43095.89762969042
0.5554538323416777	44897.3704625726
0.5610083706650945	44646.124285463986
0.5666184543717453	40300.21159292858
0.5722846389154628	30029.7450427923
0.5780074853046174	13930.248431721611
0.5837875601576636	1989.2316050058057
0.5896254357592402	35.3493001583187
0.5955216901168326	3828.793479165474
0.6014769070180009	24363.57372258803
0.607491676088181	57859.303600688596
0.6135665928490629	92722.21963044562
0.6197022587775535	125680.5232631113
0.625899281365329	156733.02765079038
0.6321582741789823	186504.84123263095
0.6384798569207721	217054.88755302635
0.6448646554899798	247524.5943311612
0.6513133020448797	279674.81860020914
0.6578264350653285	312408.886211349
0.6644046994159818	347170.54080547125
0.6710487464101416	315293.35537412134
0.677759233874243	425596.58293065056
0.6845368262129854	469232.70911708
0.6913821944751153	509406.62728406396
0.6982960164198664	561396.1722165911
0.7052789765840651	611526.1270096148
0.7123317663499058	663210.2754392951
0.7194550840134049	707932.9316775711
0.7266496348535388	754009.7540063051
0.7339161312020743	799503.466993166
0.741255292514095	827778.042530363
0.748667845439236	796760.5187523325
0.7561545238936284	585405.8281654546
0.7637160691325647	95290.27914016522
0.7713532298238903	72123.63573357482
0.7790667621221293	645422.5757282106
0.7868574297433505	1169285.4452843796
0.7947260040407841	940600.927697125
0.8026732640811919	1624493.354053878
0.8106999967220039	1759265.678959739
0.8188069966892239	1936201.3673478186
0.8269950666561161	2098829.431342611
0.8352650173226772	2248285.1474273866
0.8436176674959041	2439909.386931618
0.852053844170863	2604740.504852012
0.8605743826125718	2790037.940398908
0.8691801264386976	2972544.421958103
0.8778719277030844	3162238.1316419635
0.8866506469801153	3352322.5503817187
0.8955171534499164	3444685.9901279816
0.9044723249844157	3816607.8265784364
0.9135170482342599	4035001.8716875203
0.9226522187166025	4218088.830789103
0.9318787409037684	3536376.60432087
0.941197528312806	4214321.517168553
0.9506095035959342	4207752.601187879
0.9601155986318936	4276204.907850935
0.9697167546182125	4648444.713879111
0.9794139221643946	5472820.870394851
0.9892080613860387	5981187.104023758
0.9991001419998989	6443667.504358796
1.0090911434198981	6863138.598087266
1.019182054854097	7343081.100430134
1.0293738754026378	7550905.645939075
1.0396676141566643	8132796.353038672
1.050064290298231	8480091.006689344
1.0605649332012133	8927735.07309259
1.0711705825332256	9287474.06944272
1.0818822883585577	9720159.184789656
1.0927011112421434	9789444.153164329
1.1036281223545648	7508872.086846035
1.1146644035781104	7100581.140883729
1.1258110476138916	7771174.13471788
1.1370691580900303	7803560.233924366
1.1484398496709307	9144881.429289997
1.1599242481676402	6853984.6006884305
1.1715234906493166	9294204.024275305
1.1832387255558097	12322348.076591354
1.1950711128113678	13632762.996147623
1.2070218239394814	14311901.139689507
1.2190920421788762	15142443.6120454
1.2312829626006652	15841628.594196271
1.2435957922266716	16468857.247386627
1.2560317501489384	16965915.931243204
1.2685920676504279	17394353.417742405
1.281277988326932	17770708.716289785
1.2940907682102014	17743028.801367838
1.3070316758923035	17736635.69342904
1.3201019926512265	18299953.802270442
1.3333030125777388	10126589.669340527
1.3466360427035162	3740328.7886954322
1.3601024031305513	1693241.8376100715
1.373703427161857	5284150.148589937
1.3874404614334754	1368782.8251620766
1.4013148660478103	2851125.580072431
1.4153280147082883	2463731.7430870566
1.4294812948553712	3494718.281604319
1.443776107803925	5324991.285930621
1.4582138688819641	10538095.311223242
1.4727960075707838	10503010.335644403
1.4875239676464918	14775655.596079262
1.5023992073229566	16904284.938264027
1.5174231993961862	19512552.047546722
1.532597431390148	22517762.918804917
1.5479234057040496	24436753.359906364
1.5634026397610903	25426889.582485937
1.579036666158701	25211816.03317399
1.594827032820288	27420812.119621377
1.610775303148491	27358666.69792104
1.6268830561799759	26141662.04203556
1.6431518867417756	28754444.56873016
1.6595834056091934	28075607.91150433
1.6761792396652853	27570221.66786714
1.6929410320619382	24893223.75156951
1.7098704423825577	24904032.707823906
1.7269691468063835	26152741.299567655
1.744238838274447	21115897.313189708
1.7616812266571917	21824488.154093776
1.7792980389237634	6822284.731768021
1.7970910193130012	8448335.191921705
1.815061929506131	3659623.6504403437
1.8332125488011928	3047835.826943421
1.8515446742892046	4620904.092591932
1.8700601210320964	3355874.149547306
1.8887607222424174	9196023.71705484
1.9076483294648416	2728355.295582034
1.92672481275949	2455524.59133635
1.9459920608870853	4496900.284086933
1.9654519814959561	5308311.694995497
1.9851065013109155	12065783.677773593
2.0049575663240247	15075165.043448884
2.025007141987265	20952026.08304011
2.0452572134071376	28559419.7448323
2.065709785541209	31635657.811648767
2.086366883396621	32734946.625605475
2.107230552230587	32210683.63795324
2.1283028577528933	32660523.141895358
2.1495858863304225	30364792.790997952
2.1710817451937263	29172161.43381821
2.1927925626456637	22541602.40028091
2.2147204882721203	16608061.294181403
2.2368676931548412	11094289.470505053
2.25923637008639	10650746.997929009
2.281828733787254	8555894.929179503
2.3046470211251266	6814511.4642590545
2.327693491336378	3814857.5940733897
2.3509704262497415	4433204.235301543
2.374480130512239	3441473.763897977
2.3982249318173614	5302841.051007249
2.4222071811355352	7783896.089699899
2.4464292529468903	6692557.4913309
2.4708935454763594	4470462.220340276
2.4956024809311232	2296809.1319540367
2.5205585057404343	1121836.3061049902
2.5457640907978387	1858533.0294777898
2.5712217317058172	739591.5771294173
2.5969339490228753	654244.224874662
2.622903288513104	1588092.5323998411
2.6491323213982354	2276648.23905166
2.6756236446122177	331166.2049575668
2.7023798810583397	1159050.054633581
2.729403679868923	2764415.925334624
2.7566977166676123	1460083.7212219425
2.7842646938342885	1133502.692899788
2.812107340772631	1277314.9785637523
2.8402284141803578	2439511.231621638
2.8686306983221614	1558819.047732563
2.897317005305383	2052482.655858914
2.926290175358437	4443638.473217176
2.9555530771120213	4803879.900005763
2.9851086078831415	4839978.458934491
3.014959693961973	6206485.401398156
3.0451092909015927	5821382.331485162
3.0755603838106085	5487605.824641538
3.1063159876487147	3594112.1695523374
3.137379147525202	2418321.765924932
3.168752939000454	1754624.8952611722
3.200440468390459	1449178.0869770495
3.232444873074363	1043211.2223243067
3.264769321805107	2857101.075705755
3.297417015023158	3086229.7470471375
3.330391185173389	581321.3593276315
3.3636950970251234	2128822.164634142
3.397332047995375	1848379.2103040714
3.4313053684753285	1421515.6602786225
3.465618422160081	1532407.3244831332
3.5002746063816828	2078827.9738198835
3.5352773524454997	2834996.4492144864
3.570630125969955	3768154.890255173
3.606336427229654	5432422.052503929
3.6423997915019504	7538036.0397746805
3.67882378941697	10102048.582123395
3.7156120273111397	11280076.541858325
3.7527681475842516	12544133.972260855
3.7902958290600934	12476728.67429366
3.8281987873506953	13675100.502056787
3.8664807752242023	13352638.035188096
3.905145582976444	13320013.855574494
3.9441970388062084	13545659.286937641
3.983639009194271	13559805.536925206
4.023475399286213	13842940.124916455
4.063710153279075	13777732.262882309
4.1043472548118665	14045269.03350177
4.145390727359985	13512972.465033798
4.186844634633585	12877649.390451547
4.2287130809799205	12179191.333242709
4.27100021178972	11293484.202716686
4.313710213907617	10881434.116152033
4.356847316046694	8665505.571309585
4.40041578920716	6190509.5248055225
4.444419947099232	4746250.57498406
4.488864146570225	3915658.350403395
4.533752788035927	3415417.32369461
4.579090315916286	3610212.7071592505
4.624881219075449	3778863.619474026
4.671130031266204	4344339.675262416
4.717841331578866	3743936.907156017
4.765019744894654	3395497.885672962
4.812669942343601	3628588.6008412596
4.8607966417670365	4184687.676702696
4.9094046081847065	3748530.017008922
4.958498654266554	2952810.761042264
5.008083640809219	3534669.2968656695
5.058164477217312	4271149.707448068
5.108746121989485	3740802.426630179
5.15983358320938	2946144.739493406
5.211431919041474	2180600.5859306455
5.263546238231889	2871561.8734331043
5.316181700614208	3435386.773579553
5.36934351762035	1892841.9475534456
5.423036952796553	1405767.1138965199
5.4772673223245185	1592563.0206620835
5.532039995547764	1717931.8134022877
5.587360395503242	1283609.3457401083
5.643233999458275	1089422.400554254
5.6996663394528575	1001472.9079119781
5.756663002847385	998974.818349041
5.814229632875859	1095550.1785353117
5.872371929204618	870189.624747674
5.931095648496664	965944.385251939
5.990406604981631	1280534.9275556891
6.050310671031448	1006882.7044911808
6.110813777741763	1604635.2669360011
6.17192191551918	1110917.1874491863
6.233641134674372	2419013.881866008
6.295977546021115	2599900.124434466
6.358937321481327	1736952.2649684725
6.42252669469614	672121.2929147849
6.486751961643101	605408.3237192245
6.551619481259532	710521.6107793231
6.617135676072128	588904.0979786532
6.683307032832849	892555.0282995164
6.750140103161177	1005038.7946226047
6.81764150419279	971214.0153723976
6.885817919234718	785484.4397432631
6.954676098427065	978078.9359463596
7.024222859411336	677798.5226472843
7.094465088005449	910951.4340652071
7.165409738885503	686520.6470241196
7.237063836274358	708292.4158560318
7.309434474637103	631359.2566414279
7.382528819383473	577191.3412575456
7.456354107577308	542215.2508074648
7.530917648653081	713978.2428497104
7.606226825139612	700416.1524811231
7.682289093391009	445377.78549141047
7.759111984324918	580474.9949899759
7.836703104168168	654447.3600775826
7.91507013520985	623515.8843579256
7.994220836561947	711229.3368786686
8.074163044927568	680224.6741555613
8.154904675376844	698653.7553344272
8.23645372213061	769689.1230308755
8.318818259351918	830759.7743510557
8.402006441945437	853900.8202732583
8.486026506364892	992676.5317574483
8.57088677142854	1056089.6384508165
8.656595639142825	1154851.3072954828
8.743161595534254	1210795.833826925
8.830593211489598	1324359.4440961997
8.918899143604493	1332558.7082082122
9.00808813504054	1331106.8146999823
9.098169016390944	1428556.024916751
9.189150706554853	1461748.7810897974
9.281042213620402	1452441.1329582147
9.373852635756606	1345784.4755587652
9.467591162114172	1359483.1694979502
9.562267073735315	1482210.294236806
9.657889744472667	1339802.7202425695
9.754468641917395	1440055.9200112724
9.852013328336568	1140053.221059785
9.950533461619933	1330779.5612015475
10.050038796236134	1247501.5574031828
10.150539184198495	1264677.1505560968
10.252044576040479	1134337.7740719316
10.354565021800884	942858.7577210312
10.458110672018893	945449.04953508
10.562691778739081	1024497.1564161172
10.668318696526473	1022722.5235261878
10.775001883491738	979080.5526676532
10.882751902326655	851512.8455320954
10.991579421349924	649997.5952922662
11.101495215563421	885068.2735376859
11.212510167719055	809893.449779041
11.324635269396246	765984.932203586
11.43788162209021	799256.8164776252
11.552260438311112	596649.2018885523
11.667783042694223	607378.6140433765
11.784460873121166	579628.7225384996
11.902305481852377	641042.0263546932
12.0213285366709	642583.1892452845
12.14154182203761	655140.8488070325
12.262957240257986	491907.42324491555
12.385586812660566	404658.9515586611
12.509442680787172	418839.5746396181
12.634537107595044	479411.6772413538
12.760882478670995	447185.457435169
12.888491303457704	446101.60710513295
13.01737621649228	358716.3022729189
13.147549978657205	375944.2665458501
13.279025478443776	288900.68829358614
13.411815733228213	282719.50196256884
13.545933890560496	335544.3389659831
13.681393229466101	295776.380848761
13.818207161760762	324743.3684625439
13.956389233378369	287816.062314378
14.095953125712155	304428.7813136977
14.236912656969274	261559.65742845915
14.379281783538968	205911.83375962183
14.523074601374358	195909.14984115507
14.6683053473881	241141.47532059802
14.814988400861985	215773.70289003523
14.963138284870602	194084.20258833133
15.11276966771931	217157.8699774148
15.263897364396504	236522.46925950324
15.41653633804047	179573.6860440485
15.570701701420873	144697.70449324974
15.726408718435081	131211.00224594105
15.883672805619431	213686.71966553028
16.042509533675627	153371.3858085288
16.202934629012383	142523.59096362002
16.36496397530251	131948.91094892257
16.528613615055534	128391.70791720295
16.69389975120609	110869.86065190687
16.86083874871815	111170.56870020508
17.02944713620533	125434.55964441167
17.199741607567383	94221.6932055945
17.37173902364306	85975.58089184745
17.54545641387949	96640.16464408161
17.720910978018285	87554.48373725478
17.898120087798468	82645.79679067002
18.077101288676452	87291.79912942553
18.257872301563214	82816.12485004627
18.44045102457885	78991.66271325848
18.62485553482464	68833.90237980244
18.811104090172883	104607.38108034949
18.999215131074614	62263.96276112327
19.189207282385357	64635.941081124816
19.381099355209216	52054.44339937673
19.574910348761303	53930.99069276611
19.77065945224892	58513.98318454992
19.968366046771408	70768.45787322524
20.16804970723912	58665.413852783175
20.369730204311512	48818.7970894086
20.573427506354626	44222.67245023353
20.779161781418175	50646.309177474395
20.98695339923236	39644.858086458145
21.19682293322468	40017.31872675647
21.408791162556927	51513.4159576645
21.622879074182496	35850.903183469454
21.839107864924323	33946.826133470284
22.057498943573567	34344.945070326954
22.278073933009303	36837.242732418425
22.500854672339393	29119.172223725804
22.72586321906279	49297.561569970145
22.953121851253417	27097.11341725056
23.18265306976595	44796.553612615055
23.41447960046361	35150.6755622941
23.648624396468247	23866.13526490898
23.88511064043293	21913.31047961857
24.12396174683726	38018.21288882038
24.365201364305634	34447.89516683922
24.608853377948687	32119.71103319425
24.854941911728176	26731.44809204823
25.103491330845458	17687.11465334911
25.354526244153913	17634.444141710694
25.608071506595454	25964.780290764164
25.864152221661406	23883.67350321587
26.122793743878024	21467.2774921983
26.384021681316803	23028.52802573074
26.64786189812997	13938.440435678323
26.91434051711127	19126.562299286565
27.18348392228238	20964.339144567784
27.455318761505207	26135.343143891787
27.72987194912026	19918.467800209968
28.007170668611465	12929.482197097153
28.28724237529758	11492.97111167176
28.57011479905055	11376.231670439032
28.855815947041062	16303.070570087191
29.144374106511474	12167.853755822724
29.435817847576587	12991.933933283637
29.730176026052348	12016.40371551619
30.027477786312875	13443.766792462297
30.327752564176006	9783.168101764066
30.631030089817763	10377.943217160155
30.93734039071594	9378.579605707435
31.246713794623105	10669.21713370094
31.559180932569333	12377.443789282128
31.874772741895026	9476.446735846272
32.19352046931398	11730.496273815996
32.51545567400712	11651.93595504122
32.84061023074719	6743.495755614944
33.169016333054664	7231.029449525003
33.500706496385206	7403.082513068347
33.83571356134906	11146.187175168003
34.17407069696255	7523.526848228781
34.51581140393218	6115.609660614314
34.8609695179715	6434.262858764753
35.209579213151216	5818.781188535816
35.56167500528272	5125.767630687801
35.917291755335555	4830.386040090771
36.27646467288891	6285.892448056944
36.639229319617804	5663.080986030318
37.005621612813975	7348.141503150252
37.37567782894212	4600.97690051656
37.74943460723154	5206.811724324261
38.12692895330385	6678.30316117465
38.5081982428369	6070.708902458516
38.893280225265265	4078.2838016436026
39.28221302751791	3444.129678334448
39.6750351577931	4903.289086207085
40.071785509371026	3350.3448824256448
40.47250336446474	3359.666962366065
40.87722839810939	3321.434878885532
41.28600068209048	4596.423850154429
41.69886068891139	4660.036284185225
42.1158492958005	4019.6715359875298
42.53700778875851	3631.6763886448894
42.962377866646094	2747.3595464139485
43.392001645312554	2605.1876663537987
43.825921661765676	2396.5356762997035
44.264180878383335	2438.003907166582
44.70682268716717	2379.283471269471
45.15389091403884	2491.3015102827067
45.60542982317923	2913.53698300333
46.06148412141103	2446.9708254504517
46.52209896262513	2025.5165501606948
46.98731995225138	1963.1061766762075
47.4571931517739	2635.495382403633
47.93176508329164	1800.603111153375
48.411082734124555	2294.3842592250517
48.8951935614658	1681.6566972393039
49.38414549708046	1517.8037320139465
49.877986952051266	1574.1631029180596
50.37676682157178	1517.418059952699
50.88053448978749	1462.6786774556429
51.38933983468537	1409.860633832449
51.903233233032225	1358.9067081523226
52.422265565362544	1309.7543405808124
52.946488221016175	1262.3312333650663
53.47595310322633	1216.6004367703313
54.010712634258596	1172.4844722098533
54.550819760601186	1129.9325389190192
55.0963279582072	1088.8935529023497
55.647291237789275	1049.3109094182535
56.20376415016716	1011.1412145100375
56.765801791668835	974.3286130003595
57.33345980958552	938.8287873703844
57.906794407681375	904.5989765741623
58.48586235175819	871.5906771772875
59.070720975275776	839.766240206653
59.661428185028534	809.0771335759285
60.25804246687882	779.4919717779749
60.860622891547614	750.966051280222
61.46922912046309	723.4648983354334
62.083921411667724	696.9542195052635
62.7047606257844	671.3935542695435
63.331808232042235	646.7589705272502
63.965126314362664	623.0095345946304
64.60477757750628	600.1169148089016
65.25082535328136	578.052156252136
65.90333360681416	556.7818232136603
66.56236694288232	536.2853291892519
67.22799061231113	516.5286163840161
67.90027051843424	497.4878683653026
68.57927322361859	479.1385544773691
69.26506595585477	461.4537086098338
69.95771661541333	444.4135954856148
70.65729378156746	427.99146932338175
71.36386671938313	412.1672014130851
72.07750538657696	396.91931514406195
72.79828044044274	382.22587526915675
73.52626324484716	368.0700581754968
74.26152587729563	354.4294332987982
75.00414113606858	341.28820243553974
75.75418254742928	328.6269169541411
76.51172437290357	316.4277645609803
77.27684161663261	304.6768425697562
78.04961003279894	293.354338566732
78.83010613312693	282.4488323402957
79.6184071944582	271.94232431751635
80.41459126640278	261.82106396534965
81.2187371790668	252.07270651178013
82.03092455085748	242.68146373835265
82.85123379636605	233.63663291960248
83.6797461343297	224.9239946780331
84.51654359567301	216.53218475926496
85.36170903162974	208.45005009964154
86.21532612194603	200.665173638862
87.0774793831655	193.16842709700154
87.94825417699715	185.94778860856914
88.82773671876713	178.9941133573473
89.71601408595481	172.29772060386586
90.61317422681435	165.84812291015754
91.5193059690825	159.63836413512828
92.43449902877332	153.65742767516517
93.35884401906105	147.89890192047375
