#wavelength	surface flux
0.6450077295303345	218577.30516750808
0.6472567915916443	226745.25358665272
0.6494921445846558	235827.46553694323
0.6517150402069092	245089.25113889953
0.6539263725280762	253666.08404729655
0.6561272740364075	262760.39627779677
0.6583186388015747	271476.06345369655
0.6605015397071838	281370.74312848796
0.6626768708229065	290335.3025859854
0.6648455858230591	300216.13728933595
0.6670085787773132	309396.9797836177
0.6691668033599854	296908.1180030081
0.6713210344314575	280135.49096714146
0.6734722256660461	337135.4853109079
0.6756211519241333	351154.5181127928
0.6777685880661011	363086.6355541052
0.6799154281616211	373224.0709108257
0.6820623278617859	384626.2837370358
0.6842101216316223	397156.7156105545
0.6863595843315125	408839.50640788424
0.688511312007904	420464.0337969799
0.6906660795211792	430213.66845005145
0.6928245425224304	438417.38715311966
0.6949873566627502	456495.07381034136
0.6971551775932312	470416.27515947854
0.6993286609649658	483114.4719137741
0.7015084028244019	495642.22735675675
0.7036949396133423	509382.57565317524
0.7058889269828796	524521.8962026641
0.7080909013748169	537950.239758332
0.710301399230957	552099.1209730693
0.712520956993103	567210.7000142916
0.7147500514984131	580807.4067667446
0.7169892191886902	587966.2495342721
0.7192389369010925	607119.0113624608
0.7214996814727783	621394.5357145993
0.723771870136261	635477.1180989253
0.7260559797286987	648119.200463858
0.7283523678779602	663759.7137662348
0.7306615710258484	676289.1908559176
0.7329838871955872	695727.9275479976
0.7353196740150452	710567.1548166942
0.7376693487167358	725205.3126223695
0.7400332689285278	741052.881709271
0.7424117922782898	748905.6386541672
0.7448052167892456	759552.3063069538
0.7472138404846191	762800.7207122624
0.7496379613876343	759413.0013279304
0.7520779371261597	742471.658052726
0.7545340061187744	705060.8228208494
0.7570064663887024	631683.452389103
0.7594954967498779	502692.2045499685
0.7620013952255249	293156.03253399173
0.7645244002342224	73313.40378889814
0.7670646905899048	9058.75423690484
0.7696225643157959	11741.309748045636
0.7721980810165405	169552.1308136026
0.7747915983200073	473470.76183625235
0.7774031162261963	706316.4132346987
0.7800329327583313	781836.4811114044
0.7826811671257019	979704.98909533
0.7853479981422424	1079034.2673333758
0.7880334854125977	1152342.5714570223
0.7907378077507019	1210321.3076305648
0.7934610247612	947464.756365039
0.7962033748626709	1068511.0799695146
0.7989648580551147	1364591.175282063
0.801745593547821	1413404.3942481275
0.8045456409454346	1457765.8498070124
0.8073651194572449	1499629.1960785068
0.8102040886878967	1522563.1781546834
0.8130625486373901	1552489.9028489066
0.8159406185150146	1625405.1226982675
0.8188382983207703	1669219.339989275
0.8217556476593018	1710269.1862757266
0.8246926665306091	1760682.916224986
0.8276493549346924	1808177.0043710934
0.8306257724761963	1844210.8477998406
0.8336219191551208	1901037.3506502565
0.8366377949714661	1934953.7895001043
0.8396733403205872	1986852.0630735613
0.8427285552024841	2065543.6124618808
0.8458034992218018	2121229.5782979564
0.8488980531692505	2178681.1656726133
0.8520121574401855	2222303.340059523
0.8551458716392517	2296570.9315273827
0.8582990765571594	2358833.8702305746
0.8614717125892639	2382644.6237332947
0.8646637797355652	2433114.6483670017
0.8678751587867737	2509302.711740505
0.8711057901382446	2573598.203973274
0.8743556141853333	2634820.421895185
0.87762451171875	2700168.3629147075
0.8809124231338501	2736383.4551514913
0.8842192888259888	2824513.2359890467
0.8875449895858765	2876533.200897167
0.8908893465995789	2907497.183171288
0.894252359867096	2900045.185981734
0.8976338505744934	3033388.432773107
0.9010337591171265	3154093.2260752497
0.9044519662857056	3259379.1528457627
0.9078882932662964	3320163.266781586
0.9113426208496094	3420962.7873943187
0.914814829826355	3454389.544842625
0.9183048605918884	3471506.754029721
0.9218124747276306	3636309.1781828133
0.925337553024292	3507556.032712172
0.9288799166679382	2922903.0431502084
0.9324395060539246	3189323.7436546744
0.9360161423683167	3309506.9637065195
0.9396095871925354	3657861.8875451186
0.943219780921936	3583536.488130273
0.9468464851379395	3421376.8126035775
0.9504896402359009	3739470.0992098367
0.9541489481925964	3820637.44723197
0.9578243494033813	3948502.977087759
0.9615156054496765	3646717.921394953
0.9652225375175476	3835899.4203279032
0.9689450263977051	3846416.9747742983
0.9726828336715698	4564108.183353078
0.9764357805252075	4546949.92581359
0.9802037477493286	4767413.153966587
0.983986496925354	4907837.73057842
0.9877838492393494	5057247.144506394
0.9915955662727356	5275000.471693602
0.9954215884208679	5419100.688639834
0.9992615580558777	5555347.99315693
1.0031154155731201	5639655.266757455
1.0069829225540161	5819545.00687573
1.0108637809753418	5976531.163413624
1.0147579908370972	6158027.903508076
1.018665075302124	6295170.502615175
1.022585153579712	6392418.699301122
1.0265177488327026	6459086.620353142
1.0304628610610962	6475681.452503522
1.0344202518463135	6822657.557201791
1.0383895635604858	6951938.994169973
1.0423706769943237	7088201.184156093
1.0463634729385376	7217076.1828121925
1.0503677129745483	7300980.327077668
1.0543830394744873	7473054.688578457
1.058409333229065	7620493.543536545
1.0624464750289917	7749692.676279377
1.0664942264556885	7885128.188444192
1.0705522298812866	7981017.198247702
1.0746204853057861	8158132.972202455
1.0786986351013184	8275308.691353885
1.0827864408493042	8428761.63336737
1.086883783340454	8532992.504271315
1.0909905433654785	8491602.881729579
1.0951062440872192	8514419.313802816
1.0992310047149658	8111398.701653383
1.10336434841156	6713211.622224728
1.1075061559677124	7041461.90353591
1.1116561889648438	6892129.990122839
1.115814208984375	6233047.603043403
1.1199802160263062	6321262.989655918
1.124153733253479	6898491.621664918
1.1283347606658936	7324766.0174451135
1.1325229406356812	5979599.381897279
1.1367181539535522	7269046.547357227
1.1409201622009277	7950478.571849442
1.145128846168518	8642586.20784994
1.1493438482284546	8189581.778869781
1.1535650491714478	5240102.895105359
1.1577922105789185	6498478.98864538
1.1620250940322876	6763597.07848563
1.1662636995315552	8626737.643429724
1.170507550239563	8114007.766907435
1.174756646156311	9320520.30680337
1.1790107488632202	10358230.310575048
1.1832695007324219	10981527.249846216
1.1875330209732056	11124444.137193687
1.191800832748413	11583322.469741985
1.1960728168487549	12033941.817600155
1.2003488540649414	12366999.842917316
1.2046287059783936	12348646.360643035
1.2089121341705322	12669702.746559693
1.2131990194320679	12815214.31856559
1.2174891233444214	13183642.276673526
1.2217823266983032	13395131.280042833
1.2260783910751343	13645146.489867786
1.230377197265625	13828615.555043835
1.2346785068511963	13999412.741395213
1.238982081413269	14226059.321811669
1.2432878017425537	14400346.258668132
1.2475954294204712	14564706.361348523
1.2519049644470215	14590500.868519409
1.256216049194336	14936947.543998383
1.2605286836624146	15049575.375465037
1.2648425102233887	15150322.911752466
1.2691574096679688	15298189.353461837
1.2734732627868652	15395200.752853064
1.2777899503707886	15611706.295978399
1.2821072340011597	15616417.929241328
1.2864248752593994	15765881.372886697
1.2907428741455078	15538536.433971321
1.2950609922409058	15718537.069162967
1.2993791103363037	15875175.745725555
1.303696870803833	15669054.818020612
1.3080145120620728	15803443.146498112
1.3123314380645752	15876899.303265762
1.3166478872299194	16500775.770418284
1.3209635019302368	16252682.557146357
1.3252781629562378	15112742.211259529
1.3295916318893433	13859379.110616172
1.3339040279388428	8910763.321605949
1.3382149934768677	3877261.072441105
1.3425244092941284	2147368.080683533
1.3468321561813354	4607853.206830292
1.3511382341384888	2623511.257366512
1.3554422855377197	1756226.614403188
1.3597444295883179	1866474.3669592384
1.3640443086624146	2432566.1816319674
1.3683418035507202	2291658.3296815865
1.3726370334625244	4566243.135368813
1.3769296407699585	7704596.767736056
1.381219506263733	3865275.8822514443
1.3855066299438477	1231564.8975072035
1.3897908926010132	1517678.1412528006
1.3940720558166504	2119039.893953741
1.3983501195907593	1639290.1883138097
1.4026249647140503	3610172.4004959166
1.4068963527679443	5839626.711178422
1.4111642837524414	2088908.5651795599
1.4154287576675415	2809527.0962093305
1.419689416885376	3101778.1851663087
1.4239463806152344	1787569.1029286531
1.4281994104385376	4467757.948723484
1.4324485063552856	2997453.7470143307
1.436693549156189	4020470.6506884005
1.440934419631958	4190966.480922425
1.4451709985733032	5665112.557412399
1.449403166770935	9128375.26530736
1.453631043434143	9592172.179139806
1.4578542709350586	10414329.709780237
1.4620729684829712	10594005.800001612
1.4662868976593018	11679760.57908442
1.4704961776733398	9862225.83497965
1.4747005701065063	10288148.703263812
1.4788999557495117	10366981.653900119
1.4830944538116455	12822358.504624778
1.4872838258743286	14229890.89055743
1.491468071937561	14344326.697380755
1.4956470727920532	13404697.61265753
1.4998208284378052	15105559.043558462
1.5039892196655273	16583690.111392707
1.5081522464752197	15782314.847968174
1.5123097896575928	16386412.765475577
1.5164618492126465	17597726.62183148
1.5206083059310913	19451630.541806266
1.5247491598129272	20723893.88924343
1.5288842916488647	19794173.714797642
1.5330137014389038	20710565.27208948
1.5371372699737549	21475548.137849737
1.541254997253418	21309852.81234191
1.545366883277893	21915141.51285882
1.5494728088378906	22342723.84946627
1.5535727739334106	22898158.233309425
1.5576666593551636	22188952.8987804
1.561754584312439	22447174.241119154
1.5658363103866577	23670250.898139663
1.5699119567871094	24087917.27457097
1.5739814043045044	23600195.7457747
1.5780447721481323	22709943.101731792
1.582101821899414	23560204.984589294
1.5861525535583496	25074869.626151334
1.5901970863342285	25017935.623859577
1.5942351818084717	24954654.486704327
1.5982669591903687	24578159.68407589
1.6022924184799194	24743870.146567237
1.606311559677124	25151530.422978252
1.6103241443634033	25132866.505442202
1.6143304109573364	24918867.138187908
1.6183301210403442	24926759.95911238
1.6223233938217163	24680031.159185737
1.6263102293014526	24834286.402892966
1.6302905082702637	24115132.182934795
1.634264349937439	24626351.68815671
1.638231635093689	26492829.694650542
1.6421923637390137	26713877.178818777
1.646146535873413	26136276.737630844
1.6500942707061768	25187446.59999364
1.6540353298187256	26317242.192308884
1.6579699516296387	26553000.6445374
1.661897897720337	26072054.941860266
1.6658192873001099	22978895.017185185
1.6697341203689575	22676769.523640525
1.6736423969268799	26239909.86071849
1.677544116973877	26292924.054462746
1.6814392805099487	26028849.12095211
1.6853278875350952	26184993.855305403
1.6892099380493164	25647520.025677785
1.6930854320526123	24395661.59248076
1.696954369544983	22480155.461862627
1.7008168697357178	23635875.991746444
1.7046726942062378	23428375.981989462
1.708522081375122	24413142.447385713
1.712364912033081	24273396.01271587
1.7162011861801147	24940311.805935588
1.7200311422348022	25877145.954079498
1.723854422569275	25518913.780314542
1.7276713848114014	25047605.758589745
1.731481909751892	23856878.085443962
1.7352858781814575	22615593.815114036
1.7390835285186768	22093436.68541528
1.7428747415542603	21384430.88302774
1.7466596364974976	19487731.498684574
1.7504380941390991	18310978.335064724
1.7542102336883545	15487131.022920685
1.7579760551452637	20120373.064745825
1.7617355585098267	22555571.979019266
1.7654887437820435	19768371.595149748
1.7692357301712036	15569280.938756399
1.7729763984680176	11848556.074507669
1.776710867881775	7032146.206766764
1.7804391384124756	6625528.574157996
1.7841613292694092	8182687.500594412
1.7878772020339966	5642982.233915027
1.7915871143341064	7125165.607282902
1.7952908277511597	9080090.291471796
1.7989884614944458	9914291.674549345
1.8026801347732544	5229921.329827433
1.806365728378296	2325576.196708741
1.8100452423095703	3444802.951200219
1.8137187957763672	5602322.238723012
1.817386507987976	2059438.9957010164
1.8210482597351074	5260148.233975547
1.8247040510177612	5782474.827698726
1.828354001045227	1887024.9058562955
1.8319982290267944	2609648.8984315046
1.8356364965438843	4535003.740238211
1.8392690420150757	6971851.267251155
1.8428958654403687	5740286.102768875
1.8465168476104736	5796675.329566959
1.8501322269439697	6670861.938790708
1.8537418842315674	3727726.482970241
1.8573459386825562	3066106.579598209
1.860944390296936	3284859.894021379
1.864537239074707	1833797.914039199
1.8681244850158691	2591588.846549909
1.871706247329712	4763363.61061943
1.8752825260162354	6389482.696015361
1.8788533210754395	8979597.509270122
1.8824186325073242	11086422.215406142
1.8859784603118896	8947608.62625286
1.8895330429077148	8216808.787421181
1.8930821418762207	11666068.557003738
1.8966259956359863	10864455.608956669
1.9001644849777222	3953743.170660534
1.9036977291107178	2184342.22195171
1.9072256088256836	3961120.1118753497
1.9107483625411987	3307312.9852494914
1.9142658710479736	1381864.9689946638
1.9177782535552979	1799484.3449091818
1.9212853908538818	3037126.979694967
1.9247875213623047	2430806.3695254195
1.9282845258712769	2705607.2053136355
1.9317764043807983	3990245.3881062143
1.9352631568908691	4245408.506519497
1.9387450218200684	3530779.593515588
1.942221760749817	4467641.821649893
1.9456936120986938	4652630.264088439
1.9491604566574097	5497342.743673911
1.952622413635254	4938557.15155956
1.956079363822937	3426353.4093010286
1.959531545639038	4312239.109473055
1.962978720664978	4406109.202368666
1.966421127319336	5727635.137639486
1.9698586463928223	8517349.007748814
1.9732913970947266	8789355.214553421
1.9767193794250488	9268119.889503242
1.9801424741744995	11515201.256887749
1.9835609197616577	13013868.94326456
1.9869745969772339	13389929.528734831
1.990383505821228	10432476.72225008
1.9937876462936401	10971489.358730454
1.9971871376037598	10849475.333922964
2.000581979751587	11640186.637292039
2.003972291946411	15244704.626088502
2.007357597351074	16178081.234658847
2.0107386112213135	18671327.28061888
2.0141148567199707	18924359.80824079
2.017486572265625	16575044.324636381
2.0208535194396973	18092531.360927396
2.0242159366607666	21035567.102942314
2.027573823928833	21827445.644074626
2.0309269428253174	22772443.59246074
2.034275770187378	24218474.699154135
2.0376198291778564	25056881.84606681
2.040959596633911	25827760.544464264
2.044294595718384	27041301.914496105
2.0476250648498535	28501937.143690925
2.0509510040283203	28438986.155039664
2.054272413253784	27415083.68669759
2.057589530944824	28070340.63869815
2.0609018802642822	29089704.020519853
2.0642096996307373	29850144.405468732
2.0675129890441895	30340653.894926567
2.0708119869232178	30563279.953815628
2.074106216430664	30297232.46558443
2.0773961544036865	30192431.56574158
2.080681324005127	30607127.87534968
2.0839622020721436	30923563.00713108
2.087238311767578	31164019.711434636
2.090510129928589	31109946.27461072
2.0937774181365967	30801813.415460017
2.0970399379730225	30998689.851060886
2.1002981662750244	31031716.307634894
2.1035518646240234	30786514.756816648
2.1068007946014404	30438463.93605153
2.1100454330444336	30943913.052040234
2.1132853031158447	31503189.594633095
2.116520881652832	31162169.532584373
2.1197516918182373	31040869.61790755
2.1229779720306396	31307943.761769578
2.12619948387146	31517731.811989162
2.1294167041778564	31535455.45075146
2.132629156112671	31651194.041253068
2.1358368396759033	31413705.578845065
2.139039993286133	30920448.471658196
2.1422386169433594	30594407.07380522
2.145432472229004	30336317.303217564
2.1486217975616455	30149895.177780893
2.151806354522705	29711332.583092507
2.1549863815307617	29808592.698337223
2.1581614017486572	30000280.881285187
2.16133189201355	29587334.067793164
2.1644976139068604	29458304.32509313
2.167658567428589	29413257.666048303
2.1708147525787354	29415152.777282014
2.173966407775879	29231806.917485647
2.1771130561828613	29064671.2812608
2.1802549362182617	28972321.299705505
2.183391809463501	28672471.625382707
2.1865241527557373	28135516.936729297
2.1896514892578125	27372549.322900724
2.1927738189697266	25440492.84649146
2.1958916187286377	22265583.817419067
2.1990041732788086	19584786.213082436
2.2021119594573975	18415282.901168272
2.2052149772644043	18225452.760416646
2.208312749862671	18843131.161374833
2.2114057540893555	20033020.71394518
2.214493751525879	20748365.910848953
2.217576742172241	20325899.87815087
2.2206547260284424	20014537.674549975
2.2237277030944824	19762493.51293143
2.2267956733703613	18287471.7036352
2.2298583984375	16475577.101009978
2.2329163551330566	15579625.715027532
2.235969066619873	15433120.874479739
2.2390167713165283	14991751.268206552
2.2420592308044434	13501794.781944767
2.2450966835021973	12084016.104758479
2.248128890991211	12552423.537309559
2.2511560916900635	13957178.722423071
2.254178285598755	14628050.334005248
2.257194995880127	15051944.999122415
2.260206699371338	14835092.547019036
2.2632133960723877	13291083.841355778
2.266214609146118	11697101.930153362
2.2692108154296875	11374215.561996847
2.2722020149230957	12360642.200493138
2.2751877307891846	13279469.58185429
2.278168201446533	13014982.147729252
2.2811436653137207	12136971.744960897
2.284113883972168	11541426.932543432
2.287078857421875	11028856.389542552
2.290038824081421	10274397.267512757
2.2929933071136475	9395309.01503658
2.295942783355713	8462222.401835442
2.298887014389038	7605663.202142432
2.301826238632202	7098963.633463124
2.304760217666626	7068538.769457376
2.3076889514923096	7435120.354575047
2.310612440109253	7920004.176415776
2.3135311603546143	7669648.645865055
2.3164443969726562	6047374.5991873415
2.319352865219116	4634606.590722756
2.322256088256836	4449400.271096822
2.3251543045043945	4479505.303791425
2.328047275543213	4452807.273802474
2.330935478210449	4614980.974888024
2.3338186740875244	4797457.433269493
2.3366971015930176	4962579.474609847
2.3395702838897705	5108000.503431258
2.3424389362335205	5169086.119457973
2.3453025817871094	5190460.447170642
2.348161458969116	5295531.2677467475
2.351015567779541	5668735.8030223325
2.353865146636963	6262920.732205239
2.3567099571228027	6781437.231047599
2.3595502376556396	7299786.141765685
2.3623859882354736	8053793.506813506
2.3652172088623047	7822463.534689058
2.368043899536133	5695702.37478909
2.370866537094116	4339782.882003418
2.3736846446990967	4517458.049307752
2.3764986991882324	4600558.849947591
2.3793084621429443	4457809.787915858
2.3821144104003906	4802471.679698534
2.384916305541992	5905567.254597841
2.387714147567749	7155968.558927141
2.3905084133148193	7686107.515022823
2.393299102783203	7526402.14726182
2.3960859775543213	6835830.208268954
2.398869514465332	6324668.265796866
2.4016497135162354	5967185.933719689
2.4044265747070312	5981724.2659443235
2.407200336456299	6544619.888659916
2.409970998764038	7378586.524211908
2.4127390384674072	7962482.370746723
2.415503978729248	8338532.346096006
2.418266534805298	9120096.872282455
2.4210267066955566	9473990.014633205
2.4237842559814453	8953131.926227294
2.426539897918701	8460659.153337773
2.429293394088745	8582920.901899476
2.4320452213287354	9166616.705144208
2.4347951412200928	9555609.53208559
2.4375438690185547	9525793.569818875
2.440291166305542	9165935.864669757
2.443037271499634	8436928.979798246
2.445782423019409	7481055.358459055
2.4485268592834473	6696972.971034238
2.451270818710327	6691877.733691668
2.454014539718628	7816563.357570409
2.4567582607269287	8999644.79777496
2.4595019817352295	8621786.442664025
2.4622461795806885	8771285.888580317
2.4649908542633057	8232315.318481006
2.4677364826202393	6743923.57017299
2.4704833030700684	4882555.724609026
2.473231554031372	3559285.939725281
2.4759814739227295	2804598.3170720553
2.4787333011627197	2708566.562101286
