#wavelength	surface flux
0.676892	27565.856821571608
0.678297	28187.479037626108
0.679702	28817.117209879038
0.681109	29458.651728486428
0.682517	30120.28838387727
0.683926	30791.095471824
0.685337	31471.689221134635
0.686749	32164.85339898296
0.688164	32870.29725765713
0.689581	33587.10276479062
0.691	34300.77409494148
0.692422	35017.94776973594
0.693847	35799.77972976017
0.695274	36599.920861243474
0.696705	37397.451871268924
0.698139	38200.658873790475
0.699576	39021.78573876128
0.701017	39855.617136068155
0.702461	40698.464684744766
0.70391	41579.42260275435
0.705362	42477.84093556372
0.706819	43378.48497848552
0.70828	44297.79228302786
0.709745	45235.258471575304
0.711216	46201.58545437114
0.71269	47178.649268685025
0.71417	48170.61923145087
0.715655	49156.80929517696
0.717145	50141.62942438165
0.71864	51230.5821634198
0.72014	52314.82232917529
0.721647	53402.54369694186
0.723158	54514.10138305658
0.724676	55642.14433800309
0.726199	56793.982017691684
0.727728	57992.96191755821
0.729264	59163.25445227101
0.730805	60403.853153624004
0.732353	61709.83158170666
0.733907	62993.21768988922
0.735468	64304.61051859237
0.737035	65637.09998527735
0.738609	67029.9721278951
0.74019	68432.1739813462
0.741777	69817.51088801103
0.743372	71259.5899493641
0.744973	72738.856936765
0.746582	74218.88327467695
0.748197	75725.02488693559
0.74982	77246.18760127053
0.751451	78765.49223668523
0.753088	80268.38385031604
0.754734	81743.7300201989
0.756386	83137.45978808853
0.758047	84345.83574540932
0.759715	85154.8005215566
0.76139	84927.78924215033
0.763074	80426.49208815921
0.764765	58211.67706164893
0.766464	27218.71025843085
0.768172	34434.541030509536
0.769887	22616.4350590763
0.77161	67454.62566191667
0.773341	95402.1653047515
0.775081	101682.71522735913
0.776829	105432.89114130316
0.778585	108186.12307026025
0.780349	110635.44049292755
0.782121	113669.90110307676
0.783902	116380.1735601782
0.785691	118966.2092067276
0.787489	121561.32705466826
0.789295	124155.08734833963
0.79111	126754.7858101502
0.792933	128105.43814123957
0.794764	122500.83687349445
0.796604	132335.06315085717
0.798453	137749.50118097532
0.80031	140627.10511929862
0.802176	143542.08138127177
0.804051	146503.60087751914
0.805934	149517.79867981
0.807826	152560.71155244086
0.809727	155522.29191063726
0.811636	158572.32474520162
0.813554	161797.3245979172
0.81548	165374.97042431115
0.817416	168819.80608631467
0.81936	172299.01953005983
0.821313	175768.72537561267
0.823274	179209.990027187
0.825244	183047.76513093538
0.827223	186773.55017135266
0.829211	190452.18465741214
0.831208	194262.94582196788
0.833213	198313.79949564295
0.835227	202294.99685123272
0.837249	206211.13974492784
0.83928	210405.89674481825
0.841321	214882.97996420483
0.843369	219324.53349091028
0.845427	223760.1309410902
0.847493	228300.84050567416
0.849567	232894.2689107529
0.851651	237553.76600748225
0.853742	242356.49363620015
0.855843	247250.28373031312
0.857952	252194.2366085995
0.86007	257196.2721302474
0.862196	261952.55743101423
0.864331	267216.0859616619
0.866474	272612.7065134635
0.868626	278009.37349459913
0.870786	283541.7861853085
0.872955	289145.82983318856
0.875132	294705.59271643683
0.877317	300467.61392608547
0.879511	306099.1910989293
0.881713	312184.9630300134
0.883923	318366.72431495925
0.886142	324421.64190017304
0.888369	330628.43334313435
0.890604	336728.6511857988
0.892847	342333.71610894526
0.895099	348981.09580738
0.897358	356134.7910818914
0.899626	363413.8003391538
0.901901	370547.76870626124
0.904185	377898.0507883801
0.906476	384976.20536712586
0.908776	392239.8561319574
0.911083	399908.9067704851
0.913398	407085.1634154078
0.915721	414341.30760067987
0.918051	421482.45684241725
0.92039	430432.9568845722
0.922736	438269.55592409073
0.925089	444278.1576059904
0.927451	447285.0945172758
0.929819	448085.5353893975
0.932195	461275.2399179327
0.934579	469688.04610644793
0.93697	480427.1729376162
0.939369	492538.5501404823
0.941774	501651.13252787886
0.944187	505739.72099824937
0.946607	512993.99108118645
0.949035	526584.8282582781
0.951469	534467.3296705572
0.953911	544925.3186419893
0.956359	559470.3020275424
0.958814	563031.5887302689
0.961277	569985.8419898316
0.963746	580972.7012952712
0.966222	591991.840892252
0.968705	601577.1226259292
0.971194	619662.6014374121
0.97369	633485.653620377
0.976193	642726.5749833243
0.978702	655584.993846813
0.981217	667059.8943494053
0.983739	679105.1846361976
0.986268	690990.1553960779
0.988802	703917.7720898193
0.991343	716892.9428373603
0.99389	729057.8357914549
0.996444	742135.9400842105
0.999003	754801.7980607194
1.00157	767250.9946123683
1.00414	780177.232494896
1.00672	793724.1888391163
1.0093	807100.5415392019
1.01189	820680.9544554322
1.01448	834681.3967255801
1.01708	848454.3702756448
1.01969	862322.6387177835
1.0223	876029.8028575976
1.02492	888948.7046571765
1.02754	903648.8049843645
1.03017	916042.0171184887
1.0328	933424.136062113
1.03544	948651.2059287509
1.03808	963653.5336612486
1.04073	978879.2167889203
1.04339	994255.4851973346
1.04604	1009636.5483505112
1.04871	1024817.0852214444
1.05138	1040398.4338117916
1.05405	1056687.2828257342
1.05673	1073062.4693860002
1.05941	1089363.0780709295
1.0621	1105771.9073663547
1.06479	1122369.5096601432
1.06749	1139125.0611031482
1.07019	1155580.2293710553
1.07289	1172816.8118357842
1.0756	1190334.8230335594
1.07832	1207578.0557206701
1.08104	1225365.397468358
1.08376	1243215.5044153996
1.08649	1260746.551899991
1.08922	1277609.8485388984
1.09195	1294254.4260449412
1.09469	1311388.8360675809
1.09743	1329614.8366477918
1.10018	1331575.8429363708
1.10293	1332629.5947613649
1.10568	1335069.9125671857
1.10844	1378765.745907345
1.1112	1388241.690762762
1.11396	1388210.3086271037
1.11673	1402117.8150962973
1.1195	1427812.9993028552
1.12228	1429545.6261011043
1.12505	1479774.0542534494
1.12783	1500365.0844991428
1.13062	1518268.4087115168
1.13341	1471388.8531803412
1.1362	1529137.2957403283
1.13899	1594632.4047251402
1.14178	1608765.0889267637
1.14458	1639694.4780537623
1.14738	1670340.622949961
1.15019	1651761.8418348408
1.153	1608346.082017491
1.1558	1654101.4402098646
1.15862	1679173.3441885086
1.16143	1706634.633095156
1.16425	1759119.5972473288
1.16707	1808749.3429900922
1.16989	1814551.4997799995
1.17271	1843853.4868214384
1.17554	1887357.7353026317
1.17837	1921931.5052612885
1.1812	1947288.0199377555
1.18403	1979544.599530479
1.18686	2001516.0893464254
1.1897	2024100.339291698
1.19253	2055189.8574605957
1.19537	2081990.3422327312
1.19822	2107131.614021012
1.20106	2133226.803981728
1.2039	2154471.3893165556
1.20675	2181238.203789336
1.2096	2206648.628120882
1.21245	2230829.1057568993
1.2153	2258430.59490864
1.21815	2284650.054674673
1.221	2310435.607007103
1.22385	2336718.2139868727
1.22671	2363342.2057483736
1.22957	2389231.801566261
1.23242	2414440.8700800794
1.23528	2440897.514502275
1.23814	2467671.19410011
1.241	2494071.827764149
1.24387	2520647.7166819745
1.24673	2547033.3230815153
1.24959	2573379.5434707436
1.25245	2599777.7491534273
1.25532	2627369.575491565
1.25818	2654530.8377104104
1.26105	2680395.849983128
1.26392	2706980.797010186
1.26678	2734196.7792981374
1.26965	2760727.735812349
1.27252	2787024.855569041
1.27538	2815838.5569616337
1.27825	2842863.8524719947
1.28112	2868256.808633559
1.28399	2897320.5833379
1.28686	2922898.2059770264
1.28973	2946065.5385180525
1.2926	2971397.9323862162
1.29546	3002062.8829124775
1.29833	3031607.513259492
1.3012	3052833.769747323
1.30407	3079397.929747245
1.30694	3105719.7637454844
1.30981	3138393.822362311
1.31267	3162885.921556365
1.31554	3198407.544250984
1.31841	3231550.0058738417
1.32128	3247998.403278876
1.32414	3258588.858472716
1.32701	3279831.917093958
1.32987	3265307.171908079
1.33274	3180007.977250405
1.3356	3085198.8177964794
1.33847	2737003.6436790423
1.34133	2460777.2847597264
1.34419	2778903.766939611
1.34705	2981623.3483189326
1.34991	2839596.1104799686
1.35277	2424011.7961262995
1.35563	2351030.638068567
1.35849	2663725.2273471067
1.36135	2305251.6981303645
1.3642	2614640.0082555986
1.36706	2835677.1529593873
1.36991	2840448.7109734337
1.37277	3191190.4686605916
1.37562	3426809.63566348
1.37847	3474440.805912659
1.38132	2927848.260466545
1.38417	2348553.0066107474
1.38701	2698386.9628364127
1.38986	2669968.8251195517
1.39271	2574166.389885405
1.39555	2699199.7023479207
1.39839	2609061.764900527
1.40123	2853204.7467228076
1.40407	3367084.311910459
1.40691	3569519.2142446386
1.40974	3230615.383177616
1.41258	2583538.850819153
1.41541	3034433.5950462753
1.41824	3394363.002274524
1.42107	3211080.7561221053
1.4239	2882642.1294095786
1.42673	3286060.5424189297
1.42955	3603516.663619148
1.43237	3142570.8728540903
1.43519	3312743.4376236987
1.43801	3334568.4307135004
1.44083	3485596.1650231415
1.44365	3874544.1910173236
1.44646	3944976.2521293396
1.44927	4188085.9749413687
1.45208	4302817.726051082
1.45489	4241465.104982226
1.45769	4342757.314333837
1.4605	4413412.603881622
1.4633	4444794.800499059
1.4661	4498946.9279255485
1.4689	4425440.574291584
1.47169	4470897.839033694
1.47449	4497108.299186681
1.47728	4546030.632009944
1.48007	4570392.798348895
1.48286	4690936.743511668
1.48564	4793010.013092884
1.48842	4818549.422774719
1.4912	4853112.689114254
1.49398	4864592.575877023
1.49676	4851765.98223281
1.49953	4943297.1100506885
1.5023	5026670.74053068
1.50507	5049207.501926874
1.50784	5057389.85571738
1.51061	5098563.018461019
1.51337	5143698.460539972
1.51613	5197369.813518611
1.51888	5253185.213906723
1.52164	5316179.580936537
1.52439	5362061.736804795
1.52714	5376304.750827753
1.52989	5399180.450354767
1.53263	5443567.968904261
1.53538	5490432.845195974
1.53812	5519939.1903750235
1.54086	5543474.390564638
1.54359	5572136.724842055
1.54632	5613640.767710946
1.54905	5644154.819932829
1.55178	5685443.3111705
1.5545	5709798.007839737
1.55723	5722754.735185041
1.55995	5745947.355804032
1.56266	5783347.921911824
1.56538	5833217.293570104
1.56809	5872161.5212065745
1.5708	5899511.520825136
1.57351	5917220.326869156
1.57621	5931079.903684424
1.57891	5927266.079488067
1.58161	5977817.769523312
1.5843	6051045.478982693
1.587	6085551.490741661
1.58969	6111034.864788922
1.59238	6137763.398096292
1.59506	6160349.848062396
1.59774	6180839.711305951
1.60042	6204102.689432893
1.6031	6239321.0102595035
1.60577	6275917.796283407
1.60844	6305259.667050016
1.61111	6326425.923719983
1.61378	6348604.243047729
1.61644	6379632.41664135
1.6191	6401899.2326920815
1.62176	6424320.808582318
1.62441	6460890.603679968
1.62707	6487871.090232592
1.62971	6504214.94745373
1.63236	6525019.6616166355
1.635	6569716.9010798875
1.63764	6620023.080342755
1.64028	6653369.817526775
1.64292	6679448.651959254
1.64555	6700147.988965087
1.64818	6711018.542584012
1.65081	6734668.830149805
1.65343	6774477.543628943
1.65605	6806446.711624238
1.65867	6831543.883666499
1.66128	6850068.599478047
1.6639	6849300.027973437
1.66651	6819874.785400372
1.66911	6842897.346782
1.67172	6922855.90219931
1.67432	6984087.465794839
1.67692	7010178.164476429
1.67951	7027263.699194147
1.68211	7056099.968488475
1.6847	7084676.513584148
1.68728	7103466.419792889
1.68987	7119458.8722675005
1.69245	7123927.807117968
1.69503	7111969.072659429
1.6976	7119124.648696519
1.70018	7174028.919600845
1.70275	7204439.3895017905
1.70531	7225039.059320654
1.70788	7260077.272090888
1.71044	7281636.754007854
1.713	7308855.413990958
1.71556	7340435.441522979
1.71811	7380111.354756713
1.72066	7414234.384564517
1.72321	7431170.039297794
1.72575	7450367.92362544
1.7283	7465051.501319977
1.73084	7467810.614963673
1.73337	7466858.244418586
1.73591	7467175.912966502
1.73844	7476739.709421645
1.74097	7496276.320462453
1.74349	7482274.099747491
1.74602	7455437.859353808
1.74854	7453162.691483376
1.75105	7412366.503153505
1.75357	7338773.860569734
1.75608	7427916.605983404
1.75859	7607646.5519809965
1.7611	7689299.304009339
1.7636	7684214.835328224
1.7661	7593702.862493844
1.7686	7487139.563137711
1.7711	7349979.069846457
1.77359	7111419.572665428
1.77608	6737430.4468628485
1.77857	6525220.213393209
1.78105	6687947.293794378
1.78354	6813311.236468152
1.78602	6533898.385383926
1.78849	6414534.593273405
1.79097	6676491.847467437
1.79344	6861601.583013866
1.79591	6775449.716548109
1.79837	6510289.947366333
1.80084	5833655.109438143
1.8033	5532016.463033654
1.80576	4870086.1320891185
1.80821	4550679.541463324
1.81067	5143043.900881422
1.81312	5985092.3140994515
1.81557	5555046.465700146
1.81801	4996732.590217071
1.82046	5563801.097126476
1.8229	6367404.081787476
1.82533	5823920.8565456495
1.82777	4852281.0916138245
1.8302	4995167.1590611935
1.83263	5720889.915231211
1.83506	6149050.652211494
1.83749	6429678.639573981
1.83991	6786357.500113104
1.84233	6832976.051637542
1.84475	6845547.261245149
1.84716	6861944.175118669
1.84957	6740779.470252791
1.85198	6140743.970367756
1.85439	5218605.068115681
1.8568	5304903.9581480315
1.8592	5894821.890898102
1.8616	5580496.475699197
1.864	5049712.788174939
1.86639	5377219.391624008
1.86878	6082350.654967518
1.87118	6647658.0235798145
1.87356	7103403.202612467
1.87595	7261420.977295456
1.87833	7418797.873965639
1.88071	7822159.355857502
1.88309	7820545.7115538055
1.88547	7556553.223204723
1.88784	7453510.707282172
1.89021	7339250.43767338
1.89258	7764719.167921603
1.89494	8035340.708992656
1.89731	7535879.38044654
1.89967	6704909.976722674
1.90203	5855303.334815873
1.90439	5550556.503393353
1.90674	6071717.393849121
1.90909	6404466.633786106
1.91144	5857442.878183841
1.91379	5123253.170260483
1.91613	5071080.15370451
1.91848	5665550.526360675
1.92082	6309319.60156823
1.92315	6240181.889779898
1.92549	5782986.462486148
1.92782	6065407.368288597
1.93015	6650847.2357855
1.93248	6989642.987453345
1.93481	7014941.471776679
1.93713	6767866.388724614
1.93945	6619759.356678154
1.94177	6812007.518354363
1.94409	7003857.078244578
1.94641	6882051.695428864
1.94872	6805162.3659091955
1.95103	6933736.377607351
1.95334	6467971.691971723
1.95564	6376075.638472269
1.95795	6802434.053217508
1.96025	7007572.681746088
1.96255	7071897.722150092
1.96484	7228531.424424273
1.96714	7582780.2716283575
1.96943	8004167.586039292
1.97172	8215780.928672594
1.97401	8117758.99690696
1.97629	8182666.028724121
1.97858	8447858.50156178
1.98086	8613156.376889028
1.98314	8745627.067073885
1.98541	8805680.270406539
1.98769	8696519.092605455
1.98996	8462803.204895867
1.99223	8433858.69136582
1.9945	8621051.144367315
1.99677	8585786.843317796
1.99903	8554382.018299596
2.00129	8739597.029486267
2.00355	9015754.288498009
2.00581	9166195.914561773
2.00806	9188230.004222702
2.01031	9335998.506687386
2.01256	9426029.737626392
2.01481	9367813.697372759
2.01706	9283004.4147793
2.0193	9295761.870537855
2.02154	9434166.617677111
2.02378	9581855.242658803
2.02602	9627926.701099535
2.02825	9660907.572089158
2.03049	9702252.344119417
2.03272	9752457.536126658
2.03494	9801860.132000279
2.03717	9837601.702164939
2.03939	9856403.339060888
2.04162	9896291.787514152
2.04384	9936311.171233624
2.04605	9976774.24231231
2.04827	10012403.829483423
2.05048	10025147.113680623
2.05269	10009078.726886703
2.0549	10018719.680558696
2.05711	10047285.886951799
2.05931	10081421.542539807
2.06151	10110194.252337111
2.06371	10135954.903079929
2.06591	10157209.800658025
2.06811	10177216.400850005
2.0703	10194701.417797271
2.07249	10207784.346074766
2.07468	10213865.728399973
2.07686	10225256.786072517
2.07905	10242887.454401853
2.08123	10261532.214625036
2.08341	10278647.779997176
2.08559	10294485.652189296
2.08776	10309730.271614147
2.08994	10321159.172590131
2.09211	10330039.719126245
2.09428	10339549.47027335
2.09645	10356183.38858749
2.09861	10370794.28058859
2.10077	10382081.512862613
2.10293	10390076.99035872
2.10509	10395547.97626076
2.10725	10402048.482534193
2.1094	10423285.06129778
2.11155	10445535.694437955
2.1137	10462376.133698666
2.11585	10468190.042599497
2.11799	10475249.728141105
2.12013	10487811.049865134
2.12227	10503775.692555169
2.12441	10520721.43546071
2.12655	10533761.563780723
2.12868	10544918.451509602
2.13081	10556506.39546445
2.13294	10568439.637164274
2.13507	10576219.148448791
2.13719	10579303.273762966
2.13931	10583246.876913581
2.14143	10588741.725307051
2.14355	10593949.595298884
2.14567	10602735.835222073
2.14778	10611278.398649126
2.14989	10618006.124857128
2.152	10620262.512369437
2.1541	10631648.897249429
2.15621	10645103.252975145
2.15831	10657238.031688794
2.16041	10661409.126996871
2.16251	10670319.988762027
2.1646	10679795.8001703
2.1667	10689268.673174648
2.16879	10700144.266872568
2.17087	10708254.711867945
2.17296	10714306.3300884
2.17504	10718697.28058805
2.17713	10728132.166327436
2.1792	10739307.050439643
2.18128	10749716.680930814
2.18336	10756215.012659881
2.18543	10758428.198622352
2.1875	10759452.071254376
2.18957	10756597.902804602
2.19163	10737222.682440741
2.1937	10689804.436866386
2.19576	10631352.557917181
2.19782	10568099.127409713
2.19987	10540267.869180415
2.20193	10530802.449728945
2.20398	10536474.133153852
2.20603	10551933.048529485
2.20808	10584452.405192459
2.21012	10621890.159303956
2.21217	10659019.81931404
2.21421	10673573.530113017
2.21625	10674123.921754189
2.21828	10663754.99425346
2.22032	10666692.735041957
2.22235	10668878.041071119
2.22438	10663303.072932368
2.22641	10631119.811469074
2.22843	10591355.68056228
2.23046	10556647.211792013
2.23248	10536890.119025895
2.2345	10538389.231709233
2.23651	10539350.72262407
2.23853	10536296.740991306
2.24054	10487382.689837664
2.24255	10426843.019397533
2.24456	10360965.24259807
2.24657	10368412.076384682
2.24857	10415852.7540719
2.25057	10486451.22288904
2.25257	10527055.423258241
2.25457	10555417.160736118
2.25656	10575758.258651456
2.25856	10590264.189471753
2.26055	10562508.409727212
2.26254	10508916.715788234
2.26453	10429510.061575716
2.26651	10377876.699951233
2.2685	10355158.265546475
2.27048	10399645.411654765
2.27246	10465019.439813582
2.27443	10527631.596991885
2.27641	10544742.806909379
2.27838	10524640.624736883
2.28036	10489751.195195768
2.28233	10466400.786191244
2.28429	10454323.385332206
2.28626	10445128.34870644
2.28823	10417806.364910005
2.29019	10365732.399139108
2.29215	10292239.134746848
2.29411	10155124.80062789
2.29607	9982424.777332561
2.29802	9781165.248590458
2.29998	9580368.576675583
2.30193	9401083.005165966
2.30388	9245210.722329896
2.30583	9136983.290245157
2.30778	9080223.606352355
2.30972	9103990.106970165
2.31167	9157796.508790514
2.31361	9167068.635923544
2.31555	9024746.55293333
2.31749	8849816.466392493
2.31943	8678144.847426482
2.32137	8632974.947232723
2.32331	8619569.935063597
2.32524	8631397.90078426
2.32718	8657455.609105408
2.32911	8707943.720622912
2.33104	8793560.177688597
2.33297	8896901.523998197
2.3349	9003805.68114266
2.33683	9110003.393822204
2.33876	9216597.789389227
2.34068	9323258.266948344
2.34261	9436706.095089534
2.34453	9542601.2215779
2.34646	9641113.232042992
2.34838	9656807.61307276
2.3503	9653122.882851979
2.35223	9628794.184026357
2.35415	9605283.67647859
2.35607	9584938.783827307
2.35799	9607007.817164872
2.35991	9683625.599185111
2.36183	9826078.077891259
2.36375	9818599.557121672
2.36566	9712449.808134323
2.36758	9359782.116366185
2.3695	9157149.88844754
2.37142	9050694.239919638
2.37334	9235929.540290333
2.37526	9294467.924805734
2.37718	9139299.486657241
2.3791	8988898.304759758
2.38101	8882202.039671337
2.38293	9078495.488008149
2.38485	9369888.35772898
2.38677	9758382.741915522
2.3887	9998791.709771052
2.39062	10156096.281706061
2.39254	10129414.765737835
2.39446	9993927.432868216
2.39639	9787623.850996092
2.39831	9607030.512361728
2.40024	9460781.003328418
2.40216	9380315.260701647
2.40409	9393068.322494002
2.40602	9451724.886734065
2.40795	9600902.256376728
2.40989	9726598.884874828
2.41182	9821972.111867623
2.41376	9889462.952822603
2.4157	9959399.311764695
2.41764	10068445.3252636
2.41958	10150471.3818637
2.42152	10210527.940798426
2.42347	10174299.203985915
2.42542	10130479.795470709
2.42737	10089250.518494328
2.42932	10084635.350110382
2.43128	10100397.5077463
