#wavelength	surface flux
0.8	1224675.096008079
0.8002000000000001	1233515.4924081708
0.8004000500000003	1242726.015563782
0.8006001500125003	1251942.5576706587
0.8008003000500035	1261161.4039130625
0.8010005001250161	1270382.5548670315
0.8012007502500472	1279606.0111087256
0.8014010504376099	1287628.2035228088
0.8016014007002193	1295249.242408679
0.8018018010503944	1302872.1865542708
0.8020022515006572	1310497.0364359024
0.8022027520635323	1318123.7925299976
0.8024033027515483	1325815.880642541
0.8026039035772362	1333572.0461280742
0.8028045545531306	1341330.150654979
0.8030052556917691	1349090.1947080195
0.803206007005692	1356852.1787720663
0.8034068085074435	1364773.5859556424
0.8036076602095705	1373138.4203849863
0.8038085621246229	1381505.346022931
0.8040095142651542	1389874.3633922902
0.8042105166437206	1398245.4730159892
0.8044115692728815	1406589.398593411
0.8046126721651998	1413676.1623836663
0.8048138253332411	1420764.697864863
0.8050150287895745	1427855.005479937
0.805216282546772	1434947.0856719129
0.8054175866174087	1442040.9388839328
0.8056189410140631	1449158.491709571
0.8058203457493168	1456284.03044606
0.8060218008357541	1463411.350567224
0.8062233062859632	1470540.452518422
0.8064248621125346	1477671.3367451027
0.806626468328063	1485384.8450984387
0.8068281249451449	1493599.1543294298
0.8070298319763813	1501815.517137739
0.8072315894343755	1510033.9340367443
0.8074333973317341	1518254.4055399771
0.8076352556810671	1525216.1792417988
0.8078371644949874	1529144.8505878781
0.8080391237861113	1533074.504101795
0.8082411335670578	1537005.1400290877
0.8084431938504498	1540936.7586153664
0.8086453046489125	1544813.4983580317
0.8088474659750746	1547651.1616142092
0.8090496778415686	1550489.5342862045
0.809251940261029	1553328.6165513657
0.8094542532460944	1556168.4085870958
0.8096566168094059	1559008.9105708315
0.8098590309636085	1562663.2623122807
0.8100614957213493	1566508.8496120968
0.8102640110952797	1570355.3983087384
0.8104665770980536	1574202.9086425554
0.8106691937423283	1578051.3808539575
0.8108718610407639	1582695.8764986068
0.8110745790060241	1587949.474925033
0.8112773476507757	1593204.3867510709
0.8114801669876885	1598460.6123050638
0.8116830370294355	1603718.151915442
0.8118859577886929	1608359.6496664705
0.8120889292781401	1611720.0318769617
0.8122919515104597	1615081.2541830053
0.8124950244983374	1618443.3167946257
0.8126981482544621	1621806.2199218986
0.8129013227915257	1625294.0270546104
0.8131045481222237	1630203.2496585608
0.8133078242592543	1635113.699568163
0.8135111512153191	1640025.377090241
0.813714529003123	1644938.2825317
0.8139179576353739	1649852.4161995207
0.8141214371247829	1667036.80375559
0.8143249674840641	1686604.6577876394
0.814528548725935	1706177.403783185
0.8147321808631167	1725755.0429652557
0.8149358639083326	1745337.5765571161
0.8151395978743097	1758422.141865862
0.8153433827737784	1767116.3706173203
0.8155472186194719	1775812.7729259632
0.8157511054241268	1784511.3493351815
0.815955043200483	1793212.1003885083
0.8161590319612831	1800629.638959151
0.8163630717192736	1805693.7156906535
0.8165671624872033	1810759.0584413332
0.8167713042778252	1815825.6675277057
0.8169754971038948	1820893.5432663523
0.8171797409781707	1825054.8069396701
0.8173840359134155	1821969.2314198466
0.8175883819223938	1818882.8845061467
0.8177927790178745	1815795.7660057163
0.8179972272126291	1812707.8757256602
0.8182017265194322	1809619.2134730371
0.8184062769510622	1816586.2749111403
0.8186108785203001	1825102.6239832814
0.8188155312399301	1833621.1021426793
0.8190202351227402	1842141.7099216264
0.819224990181521	1850664.4478525128
0.8194297964290664	1863028.132575486
0.8196346538781738	1877708.747819178
0.8198395625416434	1892393.033216675
0.8200445224322789	1907080.9896855275
0.820249533562887	1921772.6181434928
0.8204545959462778	1933829.4826255487
0.8206597095952644	1941642.86838893
0.8208648745226633	1949458.2074987586
0.8210700907412941	1957275.500443363
0.8212753582639793	1965094.7477111958
0.8214806771035456	1970703.706002186
0.8216860472728215	1962683.949517766
0.8218914687846397	1954662.1880942245
0.822096941651836	1946638.421230323
0.822302465887249	1938612.64842471
0.8225080415037209	1930584.8691758912
0.8227136685140968	1939628.1397021802
0.8229193469312254	1950611.819808963
0.8231250767679583	1961598.2458357762
0.8233308580371503	1972587.41846909
0.8235366907516598	1983579.3383955706
0.8237425749243477	1995847.9815954703
0.8239485105680789	2008794.9212574516
0.824154497695721	2021745.0976543399
0.824360536320145	2034698.51159533
0.8245666264542252	2047655.1638898049
0.8247727681108388	2059024.6004743068
0.8249789613028664	2068119.0486958523
0.8251852060431922	2077215.770529461
0.825391502344703	2086314.766543524
0.8255978502202894	2095416.0373065989
0.8258042496828445	2103967.3457458783
0.8260107007452654	2109838.8110156967
0.8262172034204517	2115711.744151826
0.8264237577213068	2121586.1455212412
0.8266303636607373	2127462.0154910013
0.8268370212516525	2133339.354428251
0.8270437305069654	2133048.9470506236
0.8272504914395923	2132276.3829627736
0.8274573040624523	2131503.625733901
0.8276641683884679	2130730.675315722
0.8278710844305652	2129957.531659937
0.8280780522016729	2134756.886741767
0.8282850717147234	2142104.7088666107
0.8284921429826521	2149454.3679469777
0.8286992660183978	2156805.8644421212
0.8289064408349024	2164159.198811383
0.8291136674451112	2169035.008886555
0.8293209458619727	2170785.68587999
0.8295282760984382	2172536.800542671
0.829735658167463	2174288.3529840196
0.8299430920820048	2176040.3433134765
0.8301505778550254	2178073.5849552536
0.8303581154994891	2181228.1430793074
0.8305657050283641	2184383.4898428954
0.8307733464546212	2187539.6254431717
0.8309810397912352	2190696.550077353
0.8311887850511829	2193854.2639426873
0.8313965822474458	2208575.975637082
0.8316044313930077	2223838.0774277337
0.8318123325008561	2239103.9947438473
0.8320202855839813	2254373.728539283
0.8322282906553774	2269647.279768168
0.8324363477280413	2276398.0611191667
0.8326444568149735	2279717.7558103814
0.8328526179291771	2283038.280425265
0.8330608310836596	2286359.635171307
0.8332690962914304	2289681.820256031
0.8334774135655034	2292294.746131615
0.833685782918895	2294115.131663042
0.8338942043646247	2295935.9722908507
0.834102677915716	2297757.2681288174
0.834311203585195	2299579.0192907425
0.8345197813860912	2304167.5169231496
0.8347284113314379	2318068.7559885993
0.8349370934342709	2331973.470363808
0.8351458277076294	2345881.6609175936
0.8353546141645565	2359793.3285190407
0.8355634528180977	2373708.4740373823
0.8357723436813022	2362544.3704271656
0.8359812867672226	2351067.7680123923
0.8361902820889144	2339588.2964470214
0.8363993296594368	2328105.9550137557
0.8366084294918518	2316620.742995128
0.8368175815992247	2323452.3051764565
0.8370267859946247	2336595.0493234266
0.8372360426911234	2349741.07915643
0.8374453517017962	2362890.39549689
0.8376547130397217	2376042.9991664337
0.8378641267179816	2384947.545539058
0.8380735927496613	2389635.878223131
0.8382831111478488	2394325.3829903724
0.8384926819256358	2399016.0601338027
0.8387023050961173	2403707.909946523
0.8389119806723914	2408334.716006467
0.8391217086675596	2412776.3232942913
0.8393314890947265	2417219.040983934
0.8395413219670003	2421662.869352999
0.8397512072974922	2426107.8086791597
0.8399611450993165	2430782.589826532
0.8401711353855914	2446817.2188452356
0.8403811781694378	2462855.85652119
0.8405912734639802	2478898.503856567
0.8408014212823464	2494945.1618537856
0.8410116216376671	2510995.8315155017
0.8412218745430766	2524788.2389879036
0.8414321800117124	2537925.8598770318
0.8416425380567154	2551066.7651713886
0.8418529486912297	2564210.955692072
0.8420634119284025	2577358.4322603745
0.8422739277813847	2586236.0677185375
0.8424844962633302	2591351.131022511
0.842695117387396	2596467.4730923045
0.8429057911667428	2601585.0942476154
0.8431165176145345	2606703.9948082175
0.8433272967439382	2611389.662563599
0.8435381285681244	2615016.605183982
0.8437490131002665	2618644.4545400185
0.8439599503535415	2622273.210858392
0.84417094034113	2625902.874365848
0.8443819830762154	2629727.0403008587
0.8445930785719846	2637452.1503375536
0.8448042268416277	2645179.191651753
0.8450154278983382	2652908.1647262806
0.8452266817553128	2660639.070044076
0.8454379884257517	2668371.908088202
0.8456493479228583	2676700.219882811
0.845860760259839	2685173.5454510646
0.846072225449904	2693648.9893507096
0.8462837435062666	2702126.552111332
0.8464953144421433	2710606.234262649
0.8467069382707537	2717109.8136917953
0.8469186150053215	2722073.055220569
0.847130344659073	2727037.537559726
0.8473421272452377	2732003.261019463
0.8475539627770492	2736970.22591007
0.8477658512677435	2742431.4466730817
0.8479777927305605	2748940.883327724
0.8481897871787432	2755451.9473415283
0.848401834625538	2761964.639121339
0.8486139350841944	2768478.9590740916
0.8488260885679657	2774661.1201144485
0.8490382950901076	2776776.0756579004
0.8492505546638802	2778891.559940239
0.8494628673025462	2781007.5730936476
0.8496752330193721	2783124.115250348
0.8498876518276269	2785241.1865425846
0.8501001237405839	2766723.0128754964
0.8503126487715191	2744080.9467064766
0.850525226933712	2721433.220020927
0.8507378582404455	2698779.831403706
0.8509505427050057	2676120.779439318
0.8511632803406821	2660388.595053556
0.8513760711607672	2649399.992812735
0.8515889151785576	2638408.6434213365
0.8518018124073523	2627414.5461925995
0.8520147628604541	2616417.7004395616
0.8522277665511693	2620385.981181805
0.8524408234928071	2652036.5308418684
0.8526539336986805	2683694.9931393554
0.8528670971821053	2715361.370052419
0.8530803139564007	2747035.6635596734
0.8532935840348901	2778376.3014136017
0.8535069074308987	2806840.005537218
0.8537202841577566	2835310.8255868894
0.8539337142287962	2863788.7633415763
0.8541471976573534	2892273.8205806836
0.8543607344567677	2920765.9990841066
0.8545743246403821	2934143.8425595905
0.8547879682215422	2945123.570124384
0.8550016652135977	2956106.0426210677
0.8552154156299011	2967091.2607358764
0.8554292194838088	2978079.2251552213
0.8556430767886797	2986644.4884134163
0.855856987557877	2993739.2249292694
0.8560709518047664	3000835.7351292465
0.8562849695427177	3007934.019456777
0.8564990407851035	3015034.0783553906
0.8567131655452999	3021904.842547248
0.8569273438366862	3028398.7089800537
0.8571415756726455	3034894.1988794687
0.8573558610665638	3041391.312651361
0.8575702000318304	3047890.050701689
0.8577845925818384	3054541.982716781
0.857999038729984	3062142.335277906
0.8582135384896665	3069744.5879271696
0.858428091874289	3077348.7411395963
0.8586426988972576	3084954.7953903237
0.8588573595719821	3092562.7511546165
0.8590720739118751	3098150.611422518
0.8592868419303532	3103501.4691102593
0.8595016636408359	3108853.6645124233
0.8597165390567462	3114207.1979634357
0.8599314681915105	3119562.069797812
0.8601464510585584	3123226.4313205024
0.860361487671323	3125993.687278861
0.8605765780432408	3128761.6350512085
0.8607917221877518	3131530.274810502
0.8610069201182988	3134299.6067297338
0.8612221718483286	3126529.308187883
0.8614374773912907	3103561.7653407445
0.8616528367606385	3080588.480607901
0.8618682499698288	3057609.452553859
0.8620837170323213	3034624.6797428075
0.8622992379615795	3015882.0348894945
0.8625148127710699	3018155.8061084654
0.8627304414742627	3020430.1457702415
0.8629461240846313	3022705.0540169333
0.8631618606156526	3024980.530990687
0.8633776510808066	3027256.576833684
0.8635934954935769	3056642.3410150567
0.8638093938674504	3088257.6376383794
0.8640253462159173	3119880.8380858568
0.8642413525524714	3151511.9443334453
0.8644574128906095	3183150.9583575893
0.8646735272438323	3189358.8001103858
0.8648896956256433	3183738.315798561
0.8651059180495498	3178116.426365658
0.8653221945290621	3172493.1314604026
0.8655385250776946	3166868.430731413
0.8657549097089641	3171143.770347742
0.8659713484363913	3188096.2069343594
0.8661878412735006	3205052.881630132
0.866404388233819	3222013.795494576
0.8666209893308775	3238978.9495874783
0.8668376445782103	3253744.16821988
0.8670543539893549	3259516.713914837
0.8672711175778525	3265290.702746222
0.8674879353572469	3271066.1350748073
0.8677048073410862	3276843.0112614776
0.8679217335429217	3282621.3316671983
0.8681387139763074	3291555.60437831
0.8683557486548015	3300648.8185645775
0.8685728375919655	3309744.306054402
0.8687899808013633	3318842.06741608
0.8690071782965637	3327942.10321811
0.869224430091138	3334079.4052492543
0.8694417361986609	3339011.783281587
0.8696590966327107	3343945.3944084267
0.869876511406869	3348880.2389380485
0.8700939805347206	3353816.3171788002
0.8703115040298544	3359509.672184326
0.870529081905862	3366068.8261014065
0.8707467141763385	3372629.619806964
0.8709644008548827	3379192.0537109473
0.8711821419550964	3385756.1282234024
0.8713999374905854	3392599.668366837
0.871617787474958	3400403.78852681
0.8718356919218269	3408209.8597168294
0.8720536508448075	3416017.8824246475
0.8722716642575187	3423827.8571381373
0.8724897321735832	3431639.7843453097
0.8727078546066265	3439259.8489581333
0.8729260315702784	3446878.870016418
0.873144263078171	3454499.795829959
0.8733625491439405	3462122.6268749544
0.8735808897812266	3469747.3636277136
0.8737992850036719	3473525.776023155
0.874017734824923	3475942.153039474
0.8742362392586293	3478359.1341500455
0.874454798318444	3480776.719505895
0.8746734120180236	3483194.9092580825
0.8748920803710283	3487060.7947254926
0.875110803391121	3492381.835399305
0.8753295810919689	3497704.206333289
0.875548413487242	3503027.9078600067
0.8757673005906139	3508352.940312106
0.8759862424157616	3515843.1555480096
0.8762052389763657	3529596.4498453434
0.8764242902861098	3543353.182466242
0.8766433963586814	3557113.3542702994
0.8768625572077712	3570876.9661173117
0.8770817728470732	3584530.9314825023
0.8773010432902849	3589358.7326812698
0.8775203685511077	3594187.740830344
0.8777397486432454	3599017.9562314497
0.8779591835804065	3603849.3791864114
0.8781786733763015	3608682.009997105
0.8783982180446457	3605798.242996251
0.878617817599157	3600617.911530902
0.8788374720535569	3595436.2849826887
0.8790571814215703	3590253.36302784
0.8792769457169257	3585069.145342502
0.879496764953355	3580895.013520988
0.8797166391445934	3577629.1369397826
0.8799365683043796	3574362.4438894317
0.8801565524464557	3571094.934165818
0.8803765915845676	3567826.6075647706
0.8805966857324639	3569953.1929957
0.880816834903897	3585632.7640330745
0.881037039112623	3601316.254963215
0.8812572983724012	3617003.666766086
0.8814776126969944	3632695.000421915
0.8816979821001687	3647986.762303164
0.8819184065956938	3653784.016137067
0.8821388861973429	3659582.719284435
0.8823594209188923	3665382.872107584
0.882580010774122	3671184.4749689363
0.8828006557768155	3676987.5282310066
0.8830213559407598	3685727.223695163
0.8832421112797452	3695207.3345243367
0.8834629218075651	3704689.8153812117
0.8836837875380171	3714174.666858304
0.8839047084849018	3723661.889548267
0.884125684662023	3725826.7439254257
0.8843467160831886	3722122.29578819
0.8845678027622095	3718416.9215389197
0.8847889447129001	3714710.6209460865
0.8850101419490785	3711003.3937781057
0.8852313944845657	3714195.064791721
0.885452702333187	3732490.4043545304
0.8856740655087704	3750790.317752228
0.8858954840251476	3769094.8061282705
0.8861169578961539	3787403.8706263984
0.886338487135628	3803383.3784961016
0.886560071757412	3788305.611921434
0.8867817117753515	3773224.0759051223
0.8870034072032955	3758138.7695048
0.8872251580550963	3743049.6917778957
0.8874469643446101	3727956.84178155
0.8876688260856963	3737015.6909441827
0.8878907432922178	3751076.0893968414
0.8881127159780409	3765140.0029491037
0.8883347441570356	3779207.4324797713
0.8885568278430749	3793278.3788678064
0.8887789670500358	3802932.474086705
0.8890011617917983	3809453.289628175
0.8892234120822464	3815975.7353735333
0.8894457179352669	3822499.8117303224
0.8896680793647509	3829025.519106206
0.8898904963845921	3830338.773693285
0.8901129690086883	3821703.7466607685
0.8903354972509405	3813066.560871497
0.8905580811252535	3804427.2157857707
0.8907807206455347	3795785.7108637844
0.8910034158256963	3786133.5628255713
0.8912261666796527	3767466.2279423038
0.8914489732213227	3748794.2262253095
0.8916718354646282	3730117.5565078678
0.8918947534234944	3711436.217623015
0.8921177271118502	3692750.2084034523
0.8923407565436284	3667012.371043723
0.8925638417327644	3640118.516355836
0.8927869826931977	3613217.9382042675
0.8930101794388711	3586310.634908163
0.8932334319837308	3559396.6047862386
0.8934567403417267	3539423.9758111434
0.8936801045268123	3523763.7983595976
0.8939035245529441	3508099.7058636993
0.8941270004340824	3492431.697344671
0.894350532184191	3476759.7718235166
0.8945741198172371	3493042.048861795
0.8947977633471915	3562327.127302754
0.8950214627880284	3631629.5270133205
0.8952452181537254	3700949.252323773
0.8954690294582639	3770286.3075655955
0.8956928967156286	3831797.502042218
0.8959168199398075	3842424.5325476606
0.8961407991447926	3853054.219810732
0.8963648343445789	3863686.564495619
0.896588925553165	3874321.567266671
0.8968130727845534	3884959.2287884173
0.8970372760527496	3884315.3911438608
0.8972615353717629	3882259.517059217
0.8974858507556059	3880203.1290060524
0.8977102222182949	3878146.226855875
0.8979346497738496	3876088.810480159
0.8981591334362931	3906196.3335776953
0.8983836732196523	3953901.913930331
0.8986082691379572	4001619.420678023
0.8988329212052417	4049348.856802402
0.8990576294355432	4097090.2252858533
0.8992823938429022	4129296.1652902183
0.8995072144413631	4138393.2025447693
0.8997320912449734	4147492.51405863
0.8999570242677847	4156594.1004003678
0.9001820135238516	4165697.9621386915
0.9004070590272328	4174516.1584466468
0.9006321607919896	4181827.072271816
0.9008573188321878	4189139.8138254485
0.9010825331618959	4196454.383564466
0.9013078037951865	4203770.78194592
0.9015331307461353	4211089.009426964
0.9017585140288219	4220882.21197225
0.9019839536573292	4230890.881251107
0.9022094496457435	4240902.052697276
0.9024350020081551	4250915.726936318
0.9026606107586572	4260931.904593917
0.902886275911347	4280037.761892795
0.9031119974803249	4303529.046819622
0.9033377754796951	4327026.204567682
0.903563609923565	4350529.236605167
0.903789500826046	4374038.1444006795
0.9040154482012526	4388467.266556995
0.904241452063303	4391130.313062718
0.9044675124263188	4393794.025330068
0.9046936293044254	4396458.403525484
0.9049198027117517	4399123.44781545
0.9051460326624297	4403353.580008302
0.9053723191705955	4414246.44102579
0.9055986622503881	4425142.025258522
0.9058250619159507	4436040.3333873125
0.9060515181814298	4446941.366093142
0.9062780310609752	4457845.124057141
0.9065046005687405	4439301.340212689
0.906731226718883	4419109.97705484
0.9069579095255627	4398913.566056228
0.907184649002944	4378712.105954866
0.907411445165195	4358505.595488457
0.9076382980264862	4375727.765421626
0.907865207600993	4408500.400477638
0.9080921739028933	4441281.228692403
0.9083191969463691	4474070.252114218
0.9085462767456058	4506867.472791904
0.9087734133147922	4527022.042043184
0.9090006066681211	4532569.760531576
0.909227856819788	4538118.865949583
0.9094551637839932	4543669.358643952
0.9096825275749393	4549221.238961494
0.9099099482068329	4556408.145014527
0.9101374256938848	4569402.8247390445
0.9103649600503083	4582400.753133488
0.9105925512903209	4595401.9310100265
0.9108201994281437	4608406.359181048
0.9110479044780008	4621414.038459098
0.9112756664541204	4633531.677836773
0.911503485370734	4645631.899332009
0.9117313612420768	4657735.145882619
0.9119592940823873	4669841.418244863
0.912187283905908	4681950.717175201
0.9124153307268845	4665178.093286948
0.9126434345595664	4637917.727711353
0.9128715954182063	4610650.547044391
0.9130998133170609	4583376.549582248
0.9133280882703902	4556095.7336207405
0.913556420292458	4551249.586477328
0.9137848093975312	4569546.466783115
0.9140132555998806	4587847.921308975
