#wavelength	surface flux
0.7	228334.40639409597
0.7001166666666666	228750.3600606374
0.7002333527777778	229070.07069633782
0.700350058336574	229389.83461714402
0.7004667833462966	229709.65183193662
0.7005835278101878	230029.52234959922
0.7007002917314895	230349.44617901425
0.7008170751134447	230669.42332906747
0.7009338779592968	230989.45380864557
0.7010507002722901	231216.28129780578
0.7011675420556689	231329.65983931106
0.701284403312678	231443.05727723977
0.7014012840465635	231556.4736147416
0.7015181842605713	231669.90885496634
0.701635103957948	231783.36300106437
0.701752043141941	231896.83605618673
0.701869001815798	232010.3280234851
0.7019859799827672	232225.96066056268
0.7021029776460976	232512.70022726664
0.7022199948090387	232799.48758389876
0.7023370314748403	233086.32273842354
0.7024540876467528	233373.20569880732
0.702571163328027	233660.1364730174
0.7026882585219152	233947.11506902392
0.7028053732316688	234234.14149479603
0.7029225074605406	234774.97577760855
0.7030396612117841	235413.88858065353
0.7031568344886527	236052.9078691658
0.7032740272944008	236692.0336608924
0.7033912396322832	237331.26597358464
0.7035084715055552	237970.604824995
0.7036257229174727	238610.05023288087
0.7037429938712924	239249.60221500197
0.7038602843702709	239796.5695235754
0.7039775944176659	240327.90687643088
0.7040949240167356	240859.33278551206
0.7042122731707383	241390.84726557782
0.7043296418829335	241922.45033139052
0.7044470301565806	242454.14199771412
0.70456443799494	242985.922279315
0.7046818654012724	243517.79119096318
0.7047993123788394	243937.85667609412
0.7049167789309024	244357.86377102105
0.7050342650607243	244777.9408671311
0.7051517707715678	245198.08797609035
0.7052692960666963	245618.3051095675
0.705386840949374	246038.59227923342
0.7055044054228656	246458.94949676163
0.7056219894904361	246852.33212139423
0.7057395931553511	247073.91442262806
0.705857216420877	247295.53365424564
0.7059748592902804	247517.18982240168
0.7060925217668288	247738.88293325264
0.70621020385379	247960.61299295534
0.7063279055544321	248182.38000766776
0.7064456268720246	248404.1839835496
0.7065633678098366	248656.82810309128
0.7066811283711383	248994.34684245344
0.7067989085592001	249331.92183493878
0.7069167083772933	249669.55308992267
0.7070345278286895	250007.24061678263
0.707152366916661	250344.98442489712
0.7072702256444803	250682.7845236459
0.7073881040154211	251020.6409224116
0.7075060020327569	251421.5860619939
0.7076239196997625	251914.39514115668
0.7077418570197124	252407.28635516547
0.7078598139958823	252900.25971770994
0.7079777906315483	253393.31524248194
0.7080957869299869	253886.45294317437
0.7082138028944751	254379.67283348335
0.7083318385282908	254872.97492710772
0.7084498938347124	255138.92161199902
0.708567968817018	255212.08635496182
0.7086860634784875	255285.26329204853
0.7088041778224007	255358.45242529147
0.7089223118520377	255431.65375672322
0.7090404655706796	255504.86728837682
0.709158638981608	255578.09302228576
0.709276832088105	255651.3309604837
0.7093950448934531	256040.58827835042
0.7095132774009353	256580.6177024968
0.7096315296138355	257120.73713154742
0.7097498015354378	257660.94658050273
0.7098680931690269	258201.24606436567
0.7099864045178884	258741.63559814327
0.7101047355853081	259282.11519684305
0.7102230863745722	259822.68487547562
0.7103414568889679	260327.4922989367
0.7104598471317828	260824.2373583406
0.7105782571063047	261321.0652085873
0.7106966868158224	261817.97586347573
0.710815136263625	262314.9693368065
0.7109336054530023	262812.0456423832
0.7110520943872445	263309.2047940106
0.7111706030696424	263806.44680549693
0.7112891315034873	264140.37937866367
0.7114076796920712	264466.5716894907
0.7115262476386865	264792.8183657029
0.7116448353466263	265119.1194163608
0.711763442819184	265445.47485052736
0.711882070059654	265771.8846772666
0.7120007170713306	266098.3489056434
0.7121193838575091	266426.79447171465
0.7122380704214853	266775.3921339775
0.7123567767665555	267124.0478958504
0.7124755028960166	267472.7617670171
0.7125942488131658	267821.533757162
0.7127130145213015	268170.3638759729
0.7128318000237216	268519.2521331359
0.7129506053237256	268868.19853834226
0.7130694304246129	269211.3825745641
0.7131882753296837	269534.2731962541
0.7133071400422386	269857.21763304784
0.7134260245655789	270180.2158939141
0.7135449289030065	270503.267987824
0.7136638530578235	270826.3739237493
0.7137827970333332	271149.53371066443
0.7139017608328388	271472.747357544
0.7140207444596443	271790.8310352694
0.7141397479170543	272099.7202742673
0.7142587712083737	272408.6609948047
0.7143778143369084	272717.6532054623
0.7144968773059646	273026.69691482186
0.7146159601188489	273335.79213146615
0.7147350627788687	273644.9388639799
0.7148541852893318	273954.137120949
0.7149733276535467	274143.32792557176
0.7150924898748222	274211.485464602
0.715211671956468	274279.6543632221
0.7153308739017941	274347.8346233253
0.715450095714111	274416.02624680527
0.71556933739673	274484.22923555574
0.7156885989529628	274552.443591471
0.7158078803861218	274620.6693164457
0.7159271816995193	274226.1156122908
0.7160465028964692	273559.8668223412
0.7161658439802853	272893.50699092675
0.7162852049542819	272227.0360995404
0.7164045858217744	271560.4541296718
0.716523986586078	270893.7610628085
0.7166434072505089	270226.9568804344
0.716762847818384	269560.04156402964
0.7168823082930204	269423.54578689655
0.7170017886777359	269443.1071322773
0.7171212889758488	269462.67173788225
0.7172408091906781	269482.23960425484
0.7173603493255433	269501.8107319385
0.7174799093837642	269521.3851214767
0.7175994893686615	269540.9627734132
0.7177190892835562	269560.54368829174
0.7178387091317702	271100.9689340897
0.7179583489166254	272794.31731214584
0.7180780086414448	274487.94791493297
0.7181976883095517	276181.86078948714
0.7183173879242699	277876.055982854
0.718437107488924	279570.5335420867
0.7185568470068389	281265.29351424664
0.7186766064813399	282902.1529553047
0.7187963859157535	283084.58220440004
0.7189161853134061	283267.04185837024
0.719036004677625	283449.53192228277
0.7191558440117378	283632.0524012059
0.7192757033190732	283814.60330020904
0.7193955826029597	283997.1846243618
0.7195154818667269	284179.7963787354
0.7196354011137046	284318.8300112993
0.7197553403472235	284257.105224174
0.7198752995706147	284195.3701495842
0.7199952787872098	284133.62478581525
0.720115278000341	284071.86913115234
0.7202352972133411	284010.10318388033
0.7203553364295432	283948.3269422839
0.7204753956522815	283886.54040464706
0.7205954748848902	284055.9360219308
0.7207155741307044	284735.0528228109
0.7208356933930594	285414.28280982334
0.7209558326752915	286093.62600183376
0.7210759919807375	286773.08241771045
0.7211961713127342	287452.6520763222
0.7213163706746197	288132.3349965448
0.7214365900697322	288812.1311972535
0.7215568295014103	289109.6144756874
0.721677088972994	288950.848427595
0.7217973684878227	288792.0559184949
0.7219176680492374	288633.2369439764
0.7220379876605789	288474.3914996289
0.722158327325189	288315.5195810406
0.7222786870464099	288156.62118379935
0.7223990668275843	287997.6963034918
0.7225194666720555	288061.8453299009
0.7226398865831676	288284.121882476
0.7227603265642646	288506.43548114266
0.722880786618692	288728.78613207623
0.7230012667497951	288951.17384145147
0.7231217669609201	289173.59861544496
0.7232422872554135	289396.06046023394
0.7233628276366229	289618.5593819974
0.7234833881078956	290237.6669672982
0.7236039686725803	291007.4406618614
0.7237245693340255	291777.3426520392
0.7238451900955812	292547.37295921677
0.7239658309605971	293317.53160477796
0.7240864919324239	294087.8186101144
0.7242071730144127	294858.2339966185
0.724327874209915	295628.7777856853
0.7244485955222832	294733.6647462535
0.7245693369548704	293562.97900319553
0.7246900985110294	292392.0981458487
0.7248108801941148	291221.02214168926
0.7249316820074803	290049.75095819973
0.7250525039544815	288878.2845628443
0.7251733460384739	287706.62292308954
0.7252942082628137	286538.56844260124
0.7254150906308574	287573.5712582464
0.7255359931459625	288608.7465743609
0.7256569158114868	289644.09441969503
0.7257778586307888	290679.61482300394
0.7258988216072273	291715.3078130464
0.7260198047441617	292751.1734185861
0.7261408080449525	293787.2116683951
0.72626183151296	294739.2060783827
0.7263828751515454	295131.69210643374
0.7265039389640706	295524.2435488227
0.726625022953898	295916.86041645234
0.7267461271243904	296309.5427202268
0.7268672514789111	296702.2904710516
0.7269883960208241	297095.1036798345
0.7271095607534942	297487.98235748586
0.7272307456802866	297850.3183176429
0.7273519508045666	298130.0345382928
0.7274731761297006	298409.79737831274
0.7275944216590555	298689.60684547265
0.7277156873959987	298969.4629475438
0.7278369733438982	299249.36569229915
0.727958279506122	299529.3150875112
0.7280796058860397	299809.3111409561
0.7282009524870207	299778.82106577005
0.7283223193124353	299289.01332474104
0.7284437063656539	298799.1239490895
0.7285651136500483	298309.1529252079
0.7286865411689898	297819.10023949
0.7288079889258514	297328.9658783233
0.7289294569240056	296838.7498280975
0.7290509451668262	296348.45207519614
0.7291724536576875	296063.5918903874
0.7292939823999636	295948.9790796788
0.7294155313970303	295834.3471668348
0.7295371006522632	295719.696148672
0.7296586901690385	295605.02602200635
0.7297802999507332	295490.3367836529
0.7299019300007252	295375.6284304261
0.7300235803223919	295260.9009591408
0.7301452509191123	295666.1465293333
0.7302669417942654	296311.47213663784
0.7303886529512311	296956.90529821045
0.7305103843933897	297602.44603197684
0.7306321361241218	298248.09435586503
0.7307539081468093	298893.85028780834
0.7308757004648336	299539.71384573897
0.7309975130815778	300185.68504759663
0.7311193460004248	301186.5440426465
0.7312411992247582	302267.88754012453
0.7313630727579622	303349.4112615186
0.7314849666034219	304431.1152368673
0.7316068807645224	305512.99949621124
0.7317288152446498	306595.0640695989
0.7318507700471907	307677.3089870827
0.7319727451755319	308759.734278719
0.732094740633061	308693.54706975963
0.7322167564231665	308575.6298092011
0.7323387925492371	308457.6928957659
0.7324608490146619	308339.73632617836
0.732582925822831	308221.7600971626
0.7327050229771347	308103.76420544216
0.7328271404809642	307985.7486477396
0.7329492783377112	307850.51704258827
0.7330714365507675	307546.20430222544
0.7331936151235259	307241.8408430726
0.7333158140593796	306937.4266566769
0.7334380333617229	306632.9617345831
0.7335602730339499	306328.4460683354
0.7336825330794556	306023.87964947656
0.7338048135016354	305719.26246954856
0.7339271143038857	305691.4302648668
0.734049435489603	306591.18299392733
0.7341717770621846	307491.08568177617
0.7342941390250283	308391.1383534059
0.7344165213815324	309291.3410338139
0.734538924135096	310191.6937480033
0.7346613472891185	311092.1965209772
0.734783790847	311992.84937774687
0.7349062548121412	312370.5551262316
0.7350287391879431	311823.7281307817
0.7351512439778078	311276.80999749806
0.7352737691851374	310729.8007111929
0.735396314813335	310182.70025667286
0.7355188808658037	309635.5086187447
0.7356414673459482	309088.225782209
0.7357640742571725	308540.85173186765
0.7358867016028818	308309.33273597213
0.7360093493864824	308389.8006006337
0.7361320176113801	308470.281876606
0.736254706280982	308550.7765661243
0.7363774153986956	308631.2846714242
0.7365001449679286	308711.80619474157
0.7366228949920899	308792.3411383128
0.7367456654745885	308872.8895043747
0.7368684564188344	309062.41527326306
0.7369912678282374	309313.55677384423
0.7371140997062088	309564.7401313423
0.7372369520561599	309815.96535273356
0.7373598248815024	310067.23244499444
0.7374827181856494	310318.54141510447
0.7376056319720137	310569.89227004285
0.7377285662440091	310821.28501679044
0.7378515210050496	310896.70682064455
0.7379744962585505	310919.1842853083
0.738097492007927	310941.6654962161
0.7382205082565949	310964.1504539924
0.738343545007971	310986.63915926166
0.7384666022654723	311009.1316126485
0.7385896800325165	311031.62781477754
0.7387127783125219	311054.1277662736
0.7388358971089073	311177.7322893503
0.7389590364250921	311311.49807652505
0.7390821962644963	311445.2861579978
0.7392053766305403	311579.0965374839
0.7393285775266454	311712.92921870004
0.7394517989562333	311846.78420536313
0.7395750409227259	311980.6615011905
0.7396983034295463	312099.2934624846
0.739821586480118	311878.3050166743
0.7399448900778645	311657.2797394567
0.7400682142262109	311436.21762469225
0.740191558928582	311215.1186662423
0.7403149241884034	310993.98285796604
0.7404383100091014	310772.8101937217
0.7405617163941028	310551.6006673668
0.7406851433468352	310249.7556355691
0.7408085908707264	309579.1409143681
0.7409320589692048	308908.4144240473
0.7410555476456997	308237.5761459775
0.7411790569036406	307566.6260615285
0.7413025867464579	306895.56415206526
0.7414261371775823	306224.39039895026
0.7415497082004452	305553.10478354356
0.7416732998184786	304900.94043797924
0.741796912035115	304289.92629350035
0.7419205448537874	303678.81031333085
0.7420441982779297	303067.59248049796
0.742167872310976	302456.27277802577
0.7422915669563612	301844.85118893645
0.7424152822175206	301233.3276962492
0.7425390180978901	300621.70228298014
0.7426627746009065	300279.099185092
0.7427865517300065	300264.52072255267
0.7429103494886282	300249.9398302695
0.7430341678802096	300235.3565078376
0.7431580069081896	300220.770754852
0.7432818665760077	300206.1825709076
0.7434057468871037	300191.59195559914
0.7435296478449182	300176.9989085215
0.7436535694528923	299936.06132301077
0.7437775117144678	299540.14546688827
0.7439014746330868	299144.1636247904
0.7440254582121922	298748.11578571843
0.7441494624552276	298352.0019386732
0.7442734873656368	297955.8220726535
0.7443975329468645	297559.5761766558
0.7445215992023557	297163.26423967554
0.7446456861355559	296553.8901742337
0.7447697937499119	295865.9524473377
0.7448939220488703	295177.90006415395
0.7450180710358784	294489.7330055737
0.7451422407143843	293801.45125248353
0.7452664310878367	293113.0547857672
0.7453906421596846	292424.54358630726
0.7455148739333779	291735.9176349804
0.7456391264123667	290936.67038058635
0.7457633996001021	290119.6205348995
0.7458876935000356	289302.4345142369
0.7460120081156189	288485.1122959058
0.7461363434503048	287667.65385720454
0.7462606995075466	286850.05917542946
0.7463850762907978	286032.3282278753
0.7465094738035127	285214.24548073823
0.7466338920491467	284339.64988369175
0.746758331031155	283464.9085207116
0.7468827907529935	282590.02136750525
0.7470072712181189	281714.98839977337
0.7471317724299886	280839.8095932134
0.7472562943920602	279964.4849235196
0.7473808371077922	279089.01436638006
0.7475054005806435	278195.7771762543
0.7476299848140736	277193.8543809131
0.7477545898115426	276191.7645984391
0.7478792155765113	275189.5078010011
0.7480038621124406	274187.0839607643
0.7481285294227926	273184.49304988765
0.7482532175110298	272181.73504052486
0.7483779263806148	271178.80990482855
0.7485026560350116	270132.5590622118
0.7486274064776842	268969.32683780236
0.748752177712097	267805.9007413577
0.7488769697417158	266642.28074056114
0.749001782570006	265478.46680309915
0.7491266162004343	264314.45889664796
0.7492514706364677	263150.2569888785
0.7493763458815739	261985.86104745656
0.7495012419392209	260729.8576646427
0.7496261588128773	259342.22732709543
0.7497510965060128	257954.36571782426
0.7498760550220971	256566.2727982854
0.7500010343646007	255177.9485299264
0.7501260345369949	253789.39287418863
0.750251055542751	252400.60579250983
0.7503760973853414	251011.58724631654
0.7505011600682389	249513.58652616118
0.750626243594917	247924.53181573696
0.7507513479688495	246335.2122628634
0.7508764731935109	244745.62782339717
0.7510016192723765	243155.77845319064
0.7511267862089218	241565.66410809054
0.7512519740066232	239975.28474393234
0.7513771826689577	238384.6403165459
0.7515024121994025	236680.4978833789
0.7516276626014359	234923.27588590738
0.751752933878536	233165.76101810602
0.7518782260341824	231407.95323115942
0.7520035390718548	229649.85247624756
0.7521288729950334	227891.45870454411
0.7522542278071992	226132.7718672119
0.7523796035118337	224373.79191540598
0.7525050001124189	222440.77496680297
0.7526304176124378	220469.65045060337
0.7527558560153731	218498.1974136536
0.752881315324709	216526.41580119575
0.7530067955439299	214554.30555846845
0.7531322966765205	212581.86663070333
0.7532578187259665	210609.0989631163
0.7533833616957542	208636.00250091808
0.75350892558937	206489.22649801042
0.7536345104103016	204333.94125415286
0.7537601161620366	202178.2967960891
0.7538857428480638	200022.29306394688
0.7540113904718717	197865.92999785213
0.7541370590369503	195709.2075379135
0.7542627485467898	193552.12562423016
0.7543884590048808	191380.88899392032
0.7545141904147151	189071.72316359763
0.7546399427797842	186762.17247230696
0.7547657161035808	184452.23685590073
0.754891510389598	182141.9162502252
0.7550173256413296	179831.21059111445
0.7551431618622698	177520.11981439442
0.7552690190559135	175208.64385587876
0.7553948972257561	172852.70115440432
0.7555207963752938	170348.4008063941
0.755646716508023	167843.68307499398
0.755772657627441	165338.54789063777
0.7558986197370455	162832.99518375043
0.756024602840335	160327.02488474597
0.7561506069408084	157820.636924025
0.7562766320419653	155313.831231975
0.7564026781473054	152727.9099028066
0.75652874526033	150003.07039103104
0.7566548333845401	147277.77673933544
0.7567809425234375	144552.02887203218
0.7569070726805247	141825.8267134193
0.7570332238593047	139099.1701877803
0.7571593960632813	136372.05921938445
0.7572855892959586	133644.49373249372
0.7574118035608413	130946.63445583721
0.7575380388614347	128277.8328353038
0.7576642952012449	125608.58641449927
0.7577905725837782	122938.89511929514
0.7579168710125422	120268.75887553704
0.7580431904910444	117598.17760907064
0.7581695310227928	114927.15124572988
0.7582958926112967	112255.67971132521
0.7584222752600652	109560.66567723468
0.7585486789726085	106851.93398295633
0.7586751037524372	104142.75083339457
0.7588015496030628	101433.1161533026
0.7589280165279966	98723.02986743598
0.7590545045307512	96012.49190052171
0.7591810136148396	93301.50217727969
0.7593075437837755	90590.06062241312
0.7594340950410726	87947.01813002962
0.7595606673902461	85323.51131478841
0.7596872608348112	82699.56724840871
0.7598138753782836	80075.18585802084
0.75994051102418	77450.3670707321
0.7600671677760173	74825.11081364754
0.7601938456373134	72199.41701385145
0.7603205446115863	69573.28559842354
0.7604472647023548	67071.26378116012
0.7605740059131385	64581.20494568289
0.7607007682474575	62090.73110039732
0.7608275517088319	59599.842176143065
0.7609543563007835	57108.538103729246
0.7610811820268336	54616.81881397152
0.7612080288905045	52124.68423767029
0.7613348968953197	49640.78422040394
0.7614617860448022	47333.94737218124
0.7615886963424764	45026.726051147365
0.7617156277918667	42719.12019322888
0.7618425803964988	40411.12973433218
0.7619695541598982	38102.75461035961
0.7620965490855914	35793.994757201406
0.7622235651771058	33484.850110731684
0.7623506024379685	31272.323712526377
0.7624776608717082	29484.603760958995
0.7626047404818536	27696.585856066275
0.7627318412719337	25908.269948192472
0.762858963245479	24119.655987666236
0.7629861064060198	22330.743924813083
0.7631132707570876	20541.533709947602
0.7632404563022137	18752.025293381244
0.7633676630449308	17130.04567820693
0.7634948909887717	15865.043806652297
0.7636221401372697	14599.831101454049
0.7637494104939593	13334.407527470408
0.7638767020623748	12068.773049559597
0.7640040148460518	10802.927632567693
0.7641313488485262	9536.871241339672
0.7642587040733344	8270.603840711674
0.7643860805240132	7257.609772933498
0.7645134782041005	6546.929722253885
0.7646408971171346	5836.131224898864
0.764768337266654	5125.214261127878
0.7648957986561985	4414.178811196033
0.7650232812893079	3703.024855355961
0.7651507851695227	2991.752373856575
