#wavelength	surface flux
0.7	1005699.7367802005
0.7001166666666666	1007183.2304436985
0.7002333527777778	1008493.6112393542
0.700350058336574	1009804.2104318087
0.7004667833462966	1011115.0280574602
0.7005835278101878	1012426.0641527196
0.7007002917314895	1013737.3187539927
0.7008170751134447	1015048.7918976991
0.7009338779592968	1016360.4836202624
0.7010507002722901	1017507.2202420596
0.7011675420556689	1018453.1425554171
0.701284403312678	1019399.222522492
0.7014012840465635	1020345.4601695628
0.7015181842605713	1021291.855522908
0.701635103957948	1022238.4086088113
0.701752043141941	1023185.1194535622
0.701869001815798	1024131.9880834551
0.7019859799827672	1025183.4208568622
0.7021029776460976	1026307.6897973068
0.7022199948090387	1027432.1461159096
0.7023370314748403	1028556.7898438983
0.7024540876467528	1029681.621012508
0.702571163328027	1030806.6396529775
0.7026882585219152	1031931.8457965567
0.7028053732316688	1033057.2394744914
0.7029225074605406	1034725.3178803175
0.7030396612117841	1036603.1573331245
0.7031568344886527	1038481.309759174
0.7032740272944008	1040359.7752106265
0.7033912396322832	1042238.5537396554
0.7035084715055552	1044117.6453984372
0.7036257229174727	1045997.0502391628
0.7037429938712924	1047876.7683140304
0.7038602843702709	1049639.6990739857
0.7039775944176659	1051383.062536837
0.7040949240167356	1053126.7165602667
0.7042122731707383	1054870.661192699
0.7043296418829335	1056614.896482571
0.7044470301565806	1058359.4224783245
0.70456443799494	1060104.2392284092
0.7046818654012724	1061849.3467812869
0.7047993123788394	1063320.832500483
0.7049167789309024	1064792.2491403343
0.7050342650607243	1066263.9110162947
0.7051517707715678	1067735.8181692339
0.7052692960666963	1069207.970640031
0.705386840949374	1070680.3684695726
0.7055044054228656	1072153.011698755
0.7056219894904361	1073573.0194901524
0.7057395931553511	1074657.2115972037
0.705857216420877	1075741.5844029402
0.7059748592902804	1076826.1379374773
0.7060925217668288	1077910.8722309377
0.70621020385379	1078995.787313447
0.7063279055544321	1080080.8832151354
0.7064456268720246	1081166.1599661421
0.7065633678098366	1082307.9837030044
0.7066811283711383	1083605.2310344528
0.7067989085592001	1084902.6945737898
0.7069167083772933	1086200.3743570491
0.7070345278286895	1087498.2704202733
0.707152366916661	1088796.3827995083
0.7072702256444803	1090094.7115308049
0.7073881040154211	1091393.2566502253
0.7075060020327569	1092815.0011964713
0.7076239196997625	1094416.088671951
0.7077418570197124	1096017.442995342
0.7078598139958823	1097619.06421112
0.7079777906315483	1099220.9523637688
0.7080957869299869	1100823.1074977752
0.7082138028944751	1102425.5296576363
0.7083318385282908	1104028.2188878588
0.7084498938347124	1105202.102361311
0.708567968817018	1106012.4047341198
0.7086860634784875	1106822.8421573252
0.7088041778224007	1107633.4146534351
0.7089223118520377	1108444.12224496
0.7090404655706796	1109254.964954416
0.709158638981608	1110065.942804325
0.709276832088105	1110877.0558172087
0.7093950448934531	1112292.2798993194
0.7095132774009353	1113995.7824667613
0.7096315296138355	1115699.5689512987
0.7097498015354378	1117403.6394002496
0.7098680931690269	1119107.9938609404
0.7099864045178884	1120812.6323807102
0.7101047355853081	1122517.5550068994
0.7102230863745722	1124222.7617868588
0.7103414568889679	1125834.7842982172
0.7104598471317828	1127425.8372415556
0.7105782571063047	1129017.1553603832
0.7106966868158224	1130608.7386988974
0.710815136263625	1132200.587301301
0.7109336054530023	1133792.7012118062
0.7110520943872445	1135385.0804746288
0.7111706030696424	1136977.7251339965
0.7112891315034873	1138261.6141452277
0.7114076796920712	1139530.9728518403
0.7115262476386865	1140800.5431182373
0.7116448353466263	1142070.3249796778
0.711763442819184	1143340.3184714292
0.711882070059654	1144610.5236287639
0.7120007170713306	1145880.940486957
0.7121193838575091	1147156.8302671702
0.7122380704214853	1148487.805517666
0.7123567767665555	1149819.002597369
0.7124755028960166	1151150.4215432527
0.7125942488131658	1152482.0623922928
0.7127130145213015	1153813.925181478
0.7128318000237216	1155146.0099477908
0.7129506053237256	1156478.3167282331
0.7130694304246129	1157793.2713319215
0.7131882753296837	1159046.9994029559
0.7133071400422386	1160300.9364286694
0.7134260245655789	1161555.082443886
0.7135449289030065	1162809.437483439
0.7136638530578235	1164064.0015821646
0.7137827970333332	1165318.7747749086
0.7139017608328388	1166573.7570965174
0.7140207444596443	1167822.0790704202
0.7141397479170543	1169058.3545713918
0.7142587712083737	1170294.8361182783
0.7143778143369084	1171531.5237454236
0.7144968773059646	1172768.4174871738
0.7146159601188489	1174005.5173778806
0.7147350627788687	1175242.8234519025
0.7148541852893318	1176480.3357436028
0.7149733276535467	1177447.7127547415
0.7150924898748222	1178142.6446363782
0.715211671956468	1178837.6923399952
0.7153308739017941	1179532.8558848966
0.715450095714111	1180228.1352903885
0.71556933739673	1180923.5305757814
0.7156885989529628	1181619.0417603885
0.7158078803861218	1182314.6688635275
0.7159271816995193	1182118.5029036577
0.7160465028964692	1181398.8093107871
0.7161658439802853	1180678.9957689845
0.7162852049542819	1179959.0622582585
0.7164045858217744	1179239.0087586136
0.716523986586078	1178518.8352500524
0.7166434072505089	1177798.5417125733
0.716762847818384	1177078.1281261712
0.7168823082930204	1177502.8853580449
0.7170017886777359	1178264.653087911
0.7171212889758488	1179026.5477790649
0.7172408091906781	1179788.5694526674
0.7173603493255433	1180550.7181298824
0.7174799093837642	1181312.9938318767
0.7175994893686615	1182075.3965798214
0.7177190892835562	1182837.9263948905
0.7178387091317702	1186412.9027795454
0.7179583489166254	1190270.7837010575
0.7180780086414448	1194129.3076027264
0.7181976883095517	1197988.474591712
0.7183173879242699	1201848.284775196
0.718437107488924	1205708.7382603784
0.7185568470068389	1209569.8351544763
0.7186766064813399	1213319.4722224965
0.7187963859157535	1214266.903619566
0.7189161853134061	1215214.492921868
0.719036004677625	1216162.2401557209
0.7191558440117378	1217110.1453474453
0.7192757033190732	1218058.2085233696
0.7193955826029597	1219006.4297098222
0.7195154818667269	1219954.80893314
0.7196354011137046	1220799.8898272752
0.7197553403472235	1221168.7798447711
0.7198752995706147	1221537.7313439364
0.7199952787872098	1221906.7443350186
0.720115278000341	1222275.8188282659
0.7202352972133411	1222644.9548339287
0.7203553364295432	1223014.1523622586
0.7204753956522815	1223383.4114235106
0.7205954748848902	1224233.6034052386
0.7207155741307044	1226144.0787490213
0.7208356933930594	1228054.872505358
0.7209558326752915	1229965.984727321
0.7210759919807375	1231877.4154679903
0.7211961713127342	1233789.1647804473
0.7213163706746197	1235701.2327177927
0.7214365900697322	1237613.6193331257
0.7215568295014103	1238746.3686072116
0.721677088972994	1238948.6876848205
0.7217973684878227	1239151.0404822754
0.7219176680492374	1239353.4270051967
0.7220379876605789	1239555.847259205
0.722158327325189	1239758.3012499225
0.7222786870464099	1239960.7889829718
0.7223990668275843	1240163.3104639763
0.7225194666720555	1241001.3118954215
0.7226398865831676	1242289.8096218144
0.7227603265642646	1243578.5220978253
0.722880786618692	1244867.4493592517
0.7230012667497951	1246156.5914418872
0.7231217669609201	1247445.9483815369
0.7232422872554135	1248735.5202140086
0.7233628276366229	1250025.3069751214
0.7234833881078956	1251801.2311296505
0.7236039686725803	1253761.9372651984
0.7237245693340255	1255722.9701850992
0.7238451900955812	1257684.3299438234
0.7239658309605971	1259646.0165958386
0.7240864919324239	1261608.0301956316
0.7242071730144127	1263570.3707976914
0.724327874209915	1265533.038456514
0.7244485955222832	1264360.4573991667
0.7245693369548704	1262669.2399394657
0.7246900985110294	1260977.7406101907
0.7248108801941148	1259285.9593643562
0.7249316820074803	1257593.8961549867
0.7250525039544815	1255901.5509350793
0.7251733460384739	1254208.923657635
0.7252942082628137	1252523.164944745
0.7254150906308574	1254980.449430664
0.7255359931459625	1257438.1434639979
0.7256569158114868	1259896.2471130046
0.7257778586307888	1262354.7604459538
0.7258988216072273	1264813.6835311248
0.7260198047441617	1267273.016436807
0.7261408080449525	1269732.7592313113
0.72626183151296	1272045.0533875017
0.7263828751515454	1273375.1277246182
0.7265039389640706	1274705.4237407907
0.726625022953898	1276035.9414729667
0.7267461271243904	1277366.6809580987
0.7268672514789111	1278697.642233144
0.7269883960208241	1280028.8253350675
0.7271095607534942	1281360.2303008419
0.7272307456802866	1282577.9478908065
0.7273519508045666	1283488.1719828642
0.7274731761297006	1284398.5477789366
0.7275944216590555	1285309.0753043084
0.7277156873959987	1286219.7545842682
0.7278369733438982	1287130.5856441096
0.727958279506122	1288041.568509125
0.7280796058860397	1288952.703204619
0.7282009524870207	1289272.3009493742
0.7283223193124353	1288716.7783251873
0.7284437063656539	1288161.1631138977
0.7285651136500483	1287605.4553000717
0.7286865411689898	1287049.6548682782
0.7288079889258514	1286493.761803078
0.7289294569240056	1285937.7760890347
0.7290509451668262	1285381.6977107052
0.7291724536576875	1285216.2348581492
0.7292939823999636	1285374.4882355616
0.7294155313970303	1285532.7679885372
0.7295371006522632	1285691.0741214715
0.7296586901690385	1285849.4066387613
0.7297802999507332	1286007.7655448038
0.7299019300007252	1286166.1508439977
0.7300235803223919	1286324.562540741
0.7301452509191123	1287369.8381640336
0.7302669417942654	1288824.6251077696
0.7303886529512311	1290279.6545159966
0.7305103843933897	1291734.9264291255
0.7306321361241218	1293190.440887572
0.7307539081468093	1294646.1979317642
0.7308757004648336	1296102.1976021274
0.7309975130815778	1297558.439939104
0.7311193460004248	1299641.9626314475
0.7312411992247582	1301867.7858963641
0.7313630727579622	1304093.9801318245
0.7314849666034219	1306320.5453996595
0.7316068807645224	1308547.4817617047
0.7317288152446498	1310774.789279811
0.7318507700471907	1313002.4680158384
0.7319727451755319	1315230.5180316542
0.732094740633061	1315287.0822154447
0.7322167564231665	1315245.878128812
0.7323387925492371	1315204.6671748313
0.7324608490146619	1315163.4493523585
0.732582925822831	1315122.2246602485
0.7327050229771347	1315080.9930973565
0.7328271404809642	1315039.7546625372
0.7329492783377112	1314968.3766673629
0.7330714365507675	1314600.7505702917
0.7331936151235259	1314233.0632022042
0.7333158140593796	1313865.3145528894
0.7334380333617229	1313497.5046121324
0.7335602730339499	1313129.6333697184
0.7336825330794556	1312761.7008154306
0.7338048135016354	1312393.7069390512
0.7339271143038857	1312540.3566230487
0.734049435489603	1314411.6450744953
0.7341717770621846	1316283.2454073508
0.7342941390250283	1318155.157673594
0.7344165213815324	1320027.3819252143
0.734538924135096	1321899.9182142126
0.7346613472891185	1323772.7665925901
0.734783790847	1325645.9271123644
0.7349062548121412	1326438.758870826
0.7350287391879431	1325321.6457462462
0.7351512439778078	1324204.3464361432
0.7352737691851374	1323086.8609094897
0.735396314813335	1321969.1891352476
0.7355188808658037	1320851.3310823783
0.7356414673459482	1319733.2867198312
0.7357640742571725	1318615.0560165578
0.7358867016028818	1318119.1717686064
0.7360093493864824	1318238.0121802732
0.7361320176113801	1318356.8723986752
0.736254706280982	1318475.7524271135
0.7363774153986956	1318594.65226889
0.7365001449679286	1318713.5719273067
0.7366228949920899	1318832.5114056666
0.7367456654745885	1318951.4707072726
0.7368684564188344	1319275.4494371577
0.7369912678282374	1319715.3436181392
0.7371140997062088	1320155.3111148179
0.7372369520561599	1320595.351939413
0.7373598248815024	1321035.4661041445
0.7374827181856494	1321475.6536212375
0.7376056319720137	1321915.9145029169
0.7377285662440091	1322356.2487614097
0.7378515210050496	1322446.1489634968
0.7379744962585505	1322430.6071215721
0.738097492007927	1322415.0626893402
0.7382205082565949	1322399.5156663698
0.738343545007971	1322383.9660522286
0.7384666022654723	1322368.4138464853
0.7385896800325165	1322352.8590487076
0.7387127783125219	1322337.3016584637
0.7388358971089073	1322234.8598005075
0.7389590364250921	1322123.6864012182
0.7390821962644963	1322012.4944730287
0.7392053766305403	1321901.2840128515
0.7393285775266454	1321790.0550175973
0.7394517989562333	1321678.8074841774
0.7395750409227259	1321567.5414095018
0.7396983034295463	1321427.5149235977
0.739821586480118	1320648.0808811653
0.7399448900778645	1319868.5169330605
0.7400682142262109	1319088.823057629
0.740191558928582	1318308.9992332188
0.7403149241884034	1317529.0454381718
0.7404383100091014	1316748.9616508256
0.7405617163941028	1315968.7478495152
0.7406851433468352	1314990.3499010827
0.7408085908707264	1313105.7389564777
0.7409320589692048	1311220.8139100496
0.7410555476456997	1309335.5747094457
0.7411790569036406	1307450.0213023096
0.7413025867464579	1305564.1536362718
0.7414261371775823	1303677.971658956
0.7415497082004452	1301791.4753179785
0.7416732998184786	1299925.1363523428
0.741796912035115	1298102.4023533587
0.7419205448537874	1296279.3645653753
0.7420441982779297	1294456.0229377605
0.742167872310976	1292632.3774198727
0.7422915669563612	1290808.4279610654
0.7424152822175206	1288984.174510682
0.7425390180978901	1287159.6170180582
0.7426627746009065	1285761.2643484431
0.7427865517300065	1284882.6235301238
0.7429103494886282	1284003.8362716672
0.7430341678802096	1283124.902548668
0.7431580069081896	1282245.8223367152
0.7432818665760077	1281366.5956113925
0.7434057468871037	1280487.2223482828
0.7435296478449182	1279607.7025229633
0.7436535694528923	1278162.2233557852
0.7437775117144678	1276329.187089234
0.7439014746330868	1274495.845316641
0.7440254582121922	1272662.1979870843
0.7441494624552276	1270828.2450496387
0.7442734873656368	1268993.9864533707
0.7443975329468645	1267159.422147335
0.7445215992023557	1265324.552080582
0.7446456861355559	1263006.506634649
0.7447697937499119	1260510.198520269
0.7448939220488703	1258013.4743545372
0.7450180710358784	1255516.3340681135
0.7451422407143843	1253018.7775916418
0.7452664310878367	1250520.8048557548
0.7453906421596846	1248022.4157910813
0.7455148739333779	1245523.6103282294
0.7456391264123667	1242517.9935145613
0.7457633996001021	1239430.9060231112
0.7458876935000356	1236343.3040170735
0.7460120081156189	1233255.1874107074
0.7461363434503048	1230166.5561182387
0.7462606995075466	1227077.4100538853
0.7463850762907978	1223987.749131859
0.7465094738035127	1220896.5387416938
0.7466338920491467	1217534.187255528
0.746758331031155	1214171.2753774442
0.7468827907529935	1210807.8030140516
0.7470072712181189	1207443.7700719316
0.7471317724299886	1204079.176457654
0.7472562943920602	1200714.0220777763
0.7473808371077922	1197348.3068388323
0.7475054005806435	1193897.579179498
0.7476299848140736	1189926.0884766795
0.7477545898115426	1185953.935858743
0.7478792155765113	1181981.1212153693
0.7480038621124406	1178007.644436225
0.7481285294227926	1174033.5054109516
0.7482532175110298	1170058.7040291699
0.7483779263806148	1166083.2401804966
0.7485026560350116	1161941.9920078402
0.7486274064776842	1157353.1578036926
0.748752177712097	1152763.5587938528
0.7488769697417158	1148173.1948508346
0.749001782570006	1143582.065847165
0.7491266162004343	1138990.1716553294
0.7492514706364677	1134397.512147793
0.7493763458815739	1129804.0871970009
0.7495012419392209	1124878.0806946058
0.7496261588128773	1119474.228176378
0.7497510965060128	1114069.47501606
0.7498760550220971	1108663.821063551
0.7500010343646007	1103257.2661687152
0.7501260345369949	1097849.8101813945
0.750251055542751	1092441.4529514154
0.7503760973853414	1087032.1943285612
0.7505011600682389	1081192.097035469
0.750626243594917	1074992.0387226224
0.7507513479688495	1068790.9470667334
0.7508764731935109	1062588.821895566
0.7510016192723765	1056385.6630368687
0.7511267862089218	1050181.4703183672
0.7512519740066232	1043976.2435677439
0.7513771826689577	1037769.9826126586
0.7515024121994025	1031090.9736307067
0.7516276626014359	1024190.912068077
0.751752933878536	1017289.7004951991
0.7518782260341824	1010387.3387203901
0.7520035390718548	1003483.8265519488
0.7521288729950334	996579.1637981497
0.7522542278071992	989673.3502672245
0.7523796035118337	982766.385767374
0.7525050001124189	975072.8647530013
0.7526304176124378	967207.2533857947
0.7527558560153731	959340.3310833704
0.752881315324709	951472.0976272214
0.7530067955439299	943602.5527988267
0.7531322966765205	935731.6963796379
0.7532578187259665	927859.5281510436
0.7533833616957542	919986.0478944114
0.75350892558937	911264.1932864926
0.7536345104103016	902501.0537550407
0.7537601161620366	893736.453700338
0.7538857428480638	884970.392878951
0.7540113904718717	876202.8710474385
0.7541370590369503	867433.8879622894
0.7542627485467898	858663.4433799539
0.7543884590048808	849830.5864137422
0.7545141904147151	840388.450585065
0.7546399427797842	830944.7410670981
0.7547657161035808	821499.4575975436
0.754891510389598	812052.5999140779
0.7550173256413296	802604.1677543278
0.7551431618622698	793154.1608558868
0.7552690190559135	783702.578956298
0.7553948972257561	774035.301152654
0.7555207963752938	763647.6897587907
0.755646716508023	753258.3470963676
0.755772657627441	742867.2728768307
0.7558986197370455	732474.4668115888
0.756024602840335	722079.9286120054
0.7561506069408084	711683.6579893889
0.7562766320419653	701285.6546549926
0.7564026781473054	690497.7709402274
0.75652874526033	679025.0534109307
0.7566548333845401	667550.4237620399
0.7567809425234375	656073.8816748783
0.7569070726805247	644595.4268307087
0.7570332238593047	633115.0589107333
0.7571593960632813	621632.7775960937
0.7572855892959586	610148.5825679009
0.7574118035608413	598691.2463671954
0.7575380388614347	587260.1500384056
0.7576642952012449	575827.14852689
0.7577905725837782	564392.241515139
0.7579168710125422	552955.4286855324
0.7580431904910444	541516.7097204499
0.7581695310227928	530076.084302221
0.7582958926112967	518633.5521130746
0.7584222752600652	506995.121713566
0.7585486789726085	495243.3110797745
0.7586751037524372	483489.54181087296
0.7588015496030628	471733.8135804037
0.7589280165279966	459976.1260619192
0.7590545045307512	448216.4789288483
0.7591810136148396	436454.87185458886
0.7593075437837755	424691.30451246636
0.7594340950410726	413056.7496533676
0.7595606673902461	401458.2557814979
0.7596872608348112	389857.82882730465
0.7598138753782836	378255.4684686318
0.75994051102418	366651.17438322166
0.7600671677760173	355044.9462488063
0.7601938456373134	343436.7837430264
0.7603205446115863	331826.68654350203
0.7604472647023548	320599.034057846
0.7605740059131385	309407.7175960234
0.7607007682474575	298214.5359147795
0.7608275517088319	287019.48870328034
0.7609543563007835	275822.5756505544
0.7610811820268336	264623.7964456597
0.7612080288905045	253423.15077758575
0.7613348968953197	242246.11868060598
0.7614617860448022	231590.0241708432
0.7615886963424764	220932.15364531428
0.7617156277918667	210272.5068080414
0.7618425803964988	199611.0833629535
0.7619695541598982	188947.88301396096
0.7620965490855914	178282.90546491812
0.7622235651771058	167616.1504196048
0.7623506024379685	157334.51165235077
0.7624776608717082	148746.95822276187
0.7626047404818536	140157.97353426766
0.7627318412719337	131567.55734834008
0.762858963245479	122975.70942637615
0.7629861064060198	114382.42952975778
0.7631132707570876	105787.71741981438
0.7632404563022137	97191.57285786037
0.7633676630449308	89278.65232208144
0.7634948909887717	82821.81979722725
0.7636221401372697	76363.91113362732
0.7637494104939593	69904.9261519107
0.7638767020623748	63444.86467270645
0.7640040148460518	56983.726516581635
0.7641313488485262	50521.51150409771
0.7642587040733344	44058.21945577104
0.7643860805240132	38755.06589639395
0.7645134782041005	34836.70691173416
0.7646408971171346	30917.694867241964
0.764768337266654	26998.029654077123
