#wavelength	surface flux
0.676892	651810.6915784306
0.678297	665369.6474051669
0.679702	676445.2746506323
0.681109	687851.0225965963
0.682517	703966.5728406954
0.683926	719277.8463230351
0.685337	732824.3024537003
0.686749	746485.045233424
0.688164	759712.7104127416
0.689581	772331.0315016215
0.691	779946.7189895528
0.692422	789181.4748878849
0.693847	809378.9836881217
0.695274	829657.4946235428
0.696705	845784.4260991064
0.698139	860145.453835094
0.699576	874961.3692159163
0.701017	889522.7969344056
0.702461	902683.1900087831
0.70391	919657.5903412334
0.705362	936968.2458460749
0.706819	951718.0057564961
0.70828	966786.6207063717
0.709745	981905.4657180395
0.711216	998992.8210091133
0.71269	1014731.8009253172
0.71417	1029677.873381676
0.715655	1040202.514513636
0.717145	1047316.170238228
0.71864	1068736.3660658028
0.72014	1085447.9147264261
0.721647	1099483.0318388226
0.723158	1113785.7082532332
0.724676	1126193.3436748488
0.726199	1139150.7707627837
0.727728	1155835.7624372323
0.729264	1163636.5087776196
0.730805	1177716.8026007344
0.732353	1196395.926855518
0.733907	1207624.6045651243
0.735468	1218937.7866113568
0.737035	1227687.3098998202
0.738609	1239340.7049695814
0.74019	1246030.7773237657
0.741777	1244075.9492163495
0.743372	1242359.756171481
0.744973	1237649.7383296813
0.746582	1224080.5716689571
0.748197	1202713.906796549
0.74982	1170701.731393991
0.751451	1124864.278057391
0.753088	1060092.040870839
0.754734	973682.135204679
0.756386	861248.6721464522
0.758047	716049.0745801579
0.759715	545327.1692297715
0.76139	355992.7215427293
0.763074	176289.07351670868
0.764765	54023.65928008404
0.766464	8010.326925382438
0.768172	11267.205581021057
0.769887	13695.462114151911
0.77161	98391.51701271001
0.773341	295690.78995136404
0.775081	541969.9416968331
0.776829	782162.1482860197
0.778585	921257.3893362484
0.780349	1012448.573874247
0.782121	1314972.464390533
0.783902	1514077.3010143759
0.785691	1647221.451331286
0.787489	1758870.7823234303
0.789295	1853730.761786734
0.79111	1924218.402253979
0.792933	1677073.0885063028
0.794764	966924.7449907477
0.796604	1884981.3012998046
0.798453	2222784.130443954
0.80031	2295262.9621583833
0.802176	2358157.773273403
0.804051	2416452.212661276
0.805934	2471133.6322836718
0.807826	2520947.667971595
0.809727	2550736.8462765743
0.811636	2584997.552976526
0.813554	2633933.2724937904
0.81548	2721502.3723121868
0.817416	2773420.9613586427
0.81936	2821412.341418168
0.821313	2883833.301898322
0.823274	2919657.678050193
0.825244	2998062.019046352
0.827223	3050737.05558202
0.829211	3089043.369106615
0.831208	3137683.8467728994
0.833213	3204442.6827113815
0.835227	3253709.969377026
0.837249	3288409.6618862064
0.83928	3346789.6616881187
0.841321	3433281.1136928373
0.843369	3505924.4216607637
0.845427	3566035.628753432
0.847493	3631434.482070404
0.849567	3681117.1289900555
0.851651	3703830.4774099346
0.853742	3793628.162143217
0.855843	3887099.3237689617
0.857952	3954852.905096969
0.86007	4009468.801295865
0.862196	3921466.588165453
0.864331	4015113.585779953
0.866474	4117759.581800181
0.868626	4204105.633069092
0.870786	4266952.256146123
0.872955	4339018.976182764
0.875132	4400428.863538245
0.877317	4484911.867443696
0.879511	4494720.405077382
0.881713	4576537.850079391
0.883923	4680765.870847242
0.886142	4736090.824182525
0.888369	4791209.334864155
0.890604	4809720.162550442
0.892847	4752922.234340487
0.895099	4862968.657261496
0.897358	5016171.9766481025
0.899626	5147224.69460496
0.901901	5255037.872284272
0.904185	5375811.907137627
0.906476	5447672.035462663
0.908776	5530178.113507314
0.911083	5637033.166127384
0.913398	5668654.616248765
0.915721	5690521.43647437
0.918051	5705083.924327491
0.92039	5905908.821467133
0.922736	5968499.766451
0.925089	5796454.423955728
0.927451	5318548.125155177
0.929819	4762099.003829951
0.932195	5278326.108130707
0.934579	5308235.326437392
0.93697	5570738.350526962
0.939369	5966941.079799538
0.941774	6068103.859434884
0.944187	5694901.507703529
0.946607	5608397.090523547
0.949035	6061836.261887622
0.951469	5997437.064431973
0.953911	6180497.243686608
0.956359	6685301.884024298
0.958814	6175768.370755555
0.961277	5966546.317626953
0.963746	6095764.085711815
0.966222	6241501.421590911
0.968705	6225429.038204755
0.971194	7000943.012218226
0.97369	7419853.948790942
0.976193	7339450.402720557
0.978702	7603593.470711887
0.981217	7722168.605083768
0.983739	7872221.222051681
0.986268	7998101.732493341
0.988802	8209532.006765924
0.991343	8409704.98288483
0.99389	8517336.93073161
0.996444	8712628.058046184
0.999003	8806460.648414766
1.00157	8876712.480806487
1.00414	9004461.589051208
1.00672	9195622.878765527
1.0093	9351184.090130415
1.01189	9520358.9295803
1.01448	9718331.529742872
1.01708	9860260.859089764
1.01969	10000790.559395488
1.0223	10073806.658845559
1.02492	10062761.232231375
1.02754	10230972.974799303
1.03017	10193068.551778786
1.0328	10593004.864571488
1.03544	10765441.467421891
1.03808	10897220.428906102
1.04073	11028630.926710848
1.04339	11156426.237807248
1.04604	11283985.775204772
1.04871	11366153.28800856
1.05138	11469714.36597869
1.05405	11651808.718230804
1.05673	11809333.363273371
1.05941	11935942.075789478
1.0621	12053245.256333787
1.06479	12180369.885641037
1.06749	12309228.719051728
1.07019	12385460.673491491
1.07289	12537485.461892886
1.0756	12695413.045690801
1.07832	12801576.041039072
1.08104	12950980.609224254
1.08376	13086450.166821837
1.08649	13172612.343155555
1.08922	13150597.177894164
1.09195	13078225.827678358
1.09469	13070081.856576923
1.09743	13187438.366018808
1.10018	11822849.90374166
1.10293	10523674.105166322
1.10568	9649104.079510078
1.10844	11471626.991257807
1.1112	10855087.005045893
1.11396	9994126.584248664
1.11673	9972143.222336762
1.1195	10243080.974667
1.12228	9420017.855747532
1.12505	11159752.351106832
1.12783	11258201.626089461
1.13062	11189704.948698262
1.13341	8228029.874239816
1.1362	10134879.101900972
1.13899	12483120.855552377
1.14178	12157251.926685093
1.14458	12874309.651021026
1.14738	13703413.386758551
1.15019	11588617.682699608
1.153	8471143.45275505
1.1558	9575906.84434484
1.15862	9807206.441406572
1.16143	10017086.456523143
1.16425	11677610.001327224
1.16707	13357127.185505558
1.16989	12378738.298717659
1.17271	12871945.160381414
1.17554	14347564.228618845
1.17837	15351592.774199026
1.1812	15759351.403114714
1.18403	16696037.879327836
1.18686	16641117.517068157
1.1897	16655524.55440949
1.19253	17505006.40443621
1.19537	17917967.512522522
1.19822	18120796.27023643
1.20106	18453821.43197192
1.2039	18315153.695215013
1.20675	18638776.326106824
1.2096	18823607.954537798
1.21245	18899259.115401205
1.2153	19336545.280901268
1.21815	19586423.844807126
1.221	19784754.466848377
1.22385	20010369.736873448
1.22671	20246679.352841694
1.22957	20414910.141614653
1.23242	20518487.550104644
1.23528	20722107.125291917
1.23814	20935213.37554723
1.241	21090948.367961943
1.24387	21250952.59627136
1.24673	21410076.044806074
1.24959	21442220.36283031
1.25245	21190035.62185379
1.25532	21773757.65566019
1.25818	22054541.435868688
1.26105	22088995.91449476
1.26392	22162118.402050555
1.26678	22305350.423194353
1.26965	22398574.94636601
1.27252	22425948.632357545
1.27538	22697149.155103512
1.27825	22797700.435755208
1.28112	22733687.72393948
1.28399	22975524.167417135
1.28686	22954627.400711153
1.28973	22688837.31321124
1.2926	22607286.196181957
1.29546	22983449.167347882
1.29833	23229889.732302886
1.3012	22817979.006014243
1.30407	22807398.59464887
1.30694	22779106.42066254
1.30981	23262466.319308493
1.31267	23059941.860602148
1.31554	23624615.81430025
1.31841	24078385.52079948
1.32128	23345629.776166175
1.32414	22066836.284221195
1.32701	21505595.36723812
1.32987	19595348.99169618
1.33274	14001737.37905037
1.3356	10371544.110710027
1.33847	5139925.917711487
1.34133	2654555.3247255078
1.34419	5068344.180292306
1.34705	6641189.616158213
1.34991	4771359.085974217
1.35277	2706604.438278374
1.35563	2827048.7935117125
1.35849	3587983.458784153
1.36135	2311387.493680141
1.3642	3871038.8205657606
1.36706	4181607.2231464656
1.36991	3790857.9254269633
1.37277	7022905.1778823305
1.37562	10365082.069683213
1.37847	11210827.34866085
1.38132	5544356.616789307
1.38417	1576779.0947558368
1.38701	2785034.125615899
1.38986	2335645.593646499
1.39271	2463897.4368876866
1.39555	3378178.1394008873
1.39839	2440257.1469936143
1.40123	3936509.602298173
1.40407	6703065.602227025
1.40691	8517676.24261476
1.40974	5333467.999931767
1.41258	2188122.375421753
1.41541	4125161.5090943966
1.41824	5342073.218378459
1.42107	3832290.9155014977
1.4239	2705934.5423493385
1.42673	4802890.159019203
1.42955	6788127.64817752
1.43237	4383752.361049766
1.43519	5978582.304487864
1.43801	4911731.703163215
1.44083	5886780.419169772
1.44365	8418839.002044477
1.44646	8673241.471670447
1.44927	12503271.318849353
1.45208	14478634.88803184
1.45489	12331963.14194601
1.45769	14242538.56558979
1.4605	15369394.506743893
1.4633	15575425.469906535
1.4661	16417935.94059667
1.4689	13746345.6015814
1.47169	14324777.661737729
1.47449	14340834.979738666
1.47728	14859980.354372116
1.48007	14713877.421598414
1.48286	17419863.421195395
1.48564	19652286.84981086
1.48842	19321478.803430703
1.4912	19568786.78976936
1.49398	19245747.288581178
1.49676	18259884.685845707
1.49953	20570207.58890352
1.5023	22665821.724428173
1.50507	22606002.391441654
1.50784	21717223.549954426
1.51061	22021670.382533234
1.51337	22864095.21050921
1.51613	23960290.821729884
1.51888	25321982.033990502
1.52164	27350706.791032396
1.52439	28295259.55765128
1.52714	27381324.317670755
1.52989	27094820.682668086
1.53263	28046774.283119075
1.53538	29185733.905717418
1.53812	29277922.668294623
1.54086	29070524.670505624
1.54359	29266062.308978993
1.54632	30175794.745617807
1.54905	30350447.20194005
1.55178	31131022.823894624
1.5545	31003539.370684367
1.55723	30351358.548754744
1.55995	30464857.703136418
1.56266	31158772.603055507
1.56538	32307220.58626859
1.56809	32869987.169401534
1.5708	32804450.90672198
1.57351	32249576.275935266
1.57621	31838436.008097924
1.57891	30878072.72171922
1.58161	31930085.27906804
1.5843	33795893.48772332
1.587	34167138.07670352
1.58969	34111524.23005231
1.59238	34083862.9529108
1.59506	33821386.41735696
1.59774	33476941.125204667
1.60042	33468774.161352914
1.6031	33773525.29134444
1.60577	34050510.839500636
1.60844	34162700.11618759
1.61111	34013210.38834528
1.61378	33753238.92028963
1.61644	33831797.462579355
1.6191	33571187.53889537
1.62176	33265848.092861533
1.62441	33514680.678392213
1.62707	33396797.358157966
1.62971	32687297.616921913
1.63236	32385336.80556797
1.635	33731563.578608036
1.63764	35485108.08803601
1.64028	36032885.27009835
1.64292	36017182.01327553
1.64555	35517984.42442234
1.64818	34310175.752211206
1.65081	34154047.307390876
1.65343	35192692.179337256
1.65605	35632312.3352032
1.65867	35671233.6874022
1.66128	35242197.20496588
1.6639	33413597.76386149
1.66651	29681628.29607588
1.66911	29410447.235357665
1.67172	32919891.69436379
1.67432	35319030.00684087
1.67692	35411680.939890355
1.67951	34769104.23723837
1.68211	34916736.82445828
1.6847	35089039.415735625
1.68728	34580866.29613717
1.68987	34024002.36935698
1.69245	32882852.508407257
1.69503	30770270.73062202
1.6976	29754018.454677682
1.70018	31319282.82408041
1.70275	31440444.65471291
1.70531	31448263.81473451
1.70788	32381869.004990093
1.71044	32063975.64073973
1.713	32356141.810630705
1.71556	32898249.964130595
1.71811	33545080.08623251
1.72066	34175512.16869385
1.72321	33804313.818677254
1.72575	33431259.992281284
1.7283	32845828.3799068
1.73084	31711983.21959887
1.73337	30434335.639469247
1.73591	29449798.534716558
1.73844	28978743.439733163
1.74097	28844924.56516221
1.74349	27522935.422937397
1.74602	25830868.424114197
1.74854	25010984.015029624
1.75105	23294841.8951877
1.75357	20772196.51030083
1.75608	22673149.052511707
1.75859	27390039.12600522
1.7611	29535805.95251422
1.7636	28885337.077068813
1.7661	24870359.80524958
1.7686	21104289.04645945
1.7711	17939283.276747573
1.77359	14479869.855861543
1.77608	10280435.314112253
1.77857	8210798.693318758
1.78105	9497649.810003614
1.78354	10822451.12618045
1.78602	8937011.11679368
1.78849	7380996.921500136
1.79097	8861224.681036169
1.79344	10903821.987909885
1.79591	12173740.82503459
1.79837	13626641.716637978
1.80084	9606596.557579067
1.8033	6187754.786888625
1.80576	3574169.580951935
1.80821	2515007.452037365
1.81067	5533622.555102315
1.81312	8333111.992517086
1.81557	5251325.5329707
1.81801	3217505.1724801334
1.82046	6013199.034856233
1.8229	8894640.316609874
1.82533	6607296.451666407
1.82777	3003923.0061231167
1.8302	2549851.6593849817
1.83263	4167801.796592399
1.83506	5883621.128007221
1.83749	7902741.53046082
1.83991	9199296.428214388
1.84233	8074815.458678681
1.84475	7573077.376946753
1.84716	8029058.913891292
1.84957	8714164.666450573
1.85198	7794266.360575062
1.85439	4458747.173754319
1.8568	3717875.0280552697
1.8592	4735356.604235914
1.8616	3892652.2960764887
1.864	2592126.1323047294
1.86639	2862761.449119331
1.86878	4200182.0195485195
1.87118	6081224.104805146
1.87356	8102383.530834139
1.87595	8974067.432495868
1.87833	10879070.950550087
1.88071	14476870.539252484
1.88309	14051438.709460746
1.88547	11706322.003726099
1.88784	11274309.742376838
1.89021	10727862.248344243
1.89258	14510849.3751776
1.89494	17170401.76554718
1.89731	12506724.040079774
1.89967	6767668.69411459
1.90203	3642000.208342612
1.90439	3460259.2295618905
1.90674	5199477.650124869
1.90909	5742091.369660073
1.91144	4035454.925940495
1.91379	2219018.7640516823
1.91613	1990963.576785434
1.91848	3054670.9703559345
1.92082	4291876.586528546
1.92315	4162380.5479133683
1.92549	3189997.4909187537
1.92782	3583293.8972485657
1.93015	4849464.525418813
1.93248	5770795.5300029935
1.93481	5841937.303286555
1.93713	5125345.18658806
1.93945	4853159.779894731
1.94177	5617777.879178031
1.94409	6287452.1028255895
1.94641	6253462.347000085
1.94872	6915794.887310522
1.95103	7968248.427529414
1.95334	5793374.6405604305
1.95564	4587870.992294717
1.95795	5377637.771102642
1.96025	5685323.642064895
1.96255	5757853.853276156
1.96484	6423349.129344135
1.96714	8200640.411206945
1.96943	10512112.9119855
1.97172	11704475.284792593
1.97401	10840356.530130766
1.97629	11383283.103715308
1.97858	13488065.385016024
1.98086	14703675.700162983
1.98314	16010022.182385655
1.98541	16837354.017070603
1.98769	15824462.336895974
1.98996	13215641.578336168
1.99223	12600388.845731534
1.9945	14130924.342189215
1.99677	13615847.517969282
1.99903	13480977.693691645
2.00129	15641706.088344678
2.00355	18574608.16137608
2.00581	20017984.871652678
2.00806	20207988.003818315
2.01031	22723112.45085421
2.01256	24178218.073705897
2.01481	22776288.88389968
2.01706	20848526.89630269
2.0193	20752717.41043555
2.02154	23070481.701574918
2.02378	25759193.12840339
2.02602	26549380.01945349
2.02825	27166477.45975677
2.03049	28012772.808365066
2.03272	29110585.37498737
2.03494	30203968.408358466
2.03717	30906934.504129697
2.03939	31273595.862348612
2.04162	32383238.83710634
2.04384	33376818.9489969
2.04605	34476606.98933077
2.04827	35553809.62284011
2.05048	35729935.053572275
2.05269	34351457.179770805
2.0549	34016889.79841336
2.05711	34613789.32571778
2.05931	35581050.17849145
2.06151	36386524.71931331
2.06371	37054316.07536788
2.06591	37535155.528828375
2.06811	37901406.170644805
2.0703	38062256.95531603
2.07249	37953483.67933328
2.07468	37558526.71279014
2.07686	37538712.32640582
2.07905	37808200.477199785
2.08123	38137460.83451191
2.08341	38418200.685738504
2.08559	38677377.75291652
2.08776	38857322.55790599
2.08994	38767669.145026386
2.09211	38513963.46146205
2.09428	38288866.13630944
2.09645	38459191.03633104
2.09861	38527385.20886896
2.10077	38467102.27772682
2.10293	38255334.102059565
2.10509	37906631.95835362
2.10725	37598172.465265535
2.1094	38102496.81375355
2.11155	38684523.173140354
2.1137	38987418.41349493
2.11585	38684643.59134291
2.11799	38437445.831789054
2.12013	38457077.11450294
2.12227	38650796.99338796
2.12441	38908390.68876747
2.12655	38995540.03072169
2.12868	38991730.32183162
2.13081	39023521.77489631
2.13294	39083832.82578973
2.13507	38910638.66414844
2.13719	38471518.64475966
2.13931	38097736.705577336
2.14143	37821187.506643265
2.14355	37501741.008781016
2.14567	37320006.9633702
2.14778	37148936.30431511
2.14989	36915644.79269157
2.152	36484230.225010544
2.1541	36576036.39767025
2.15621	36754396.76780422
2.15831	36824254.28653193
2.16041	36392099.665232636
2.16251	36195934.44841736
2.1646	36051328.5951529
2.1667	35934996.47559413
2.16879	35955229.42484364
2.17087	35889361.37322246
2.17296	35729489.64554405
2.17504	35476126.89931977
2.17713	35304499.01543275
2.1792	35142010.26738764
2.18128	34926458.22210506
2.18336	34582285.66120945
2.18543	34093930.54600204
2.1875	33549999.89645852
2.18957	32846210.309948653
2.19163	31503645.148166668
2.1937	29228653.265073303
2.19576	26680424.3094663
2.19782	24122046.428848546
2.19987	22683512.16605773
2.20193	21775936.4254328
2.20398	21313952.3209257
2.20603	21155919.19562159
2.20808	21642175.16974321
2.21012	22467287.972430345
2.21217	23565457.415660188
2.21421	24147053.686523765
2.21625	24179497.274637792
2.21828	23737516.822610572
2.22032	23584975.142266996
2.22235	23394178.348894436
2.22438	22953493.156465214
2.22641	21685611.965238634
2.22843	20280185.0390619
2.23046	19068902.146025687
2.23248	18342687.37647933
2.2345	18189477.911278922
2.23651	18062814.18542034
2.23853	17878868.242450204
2.24054	16843450.426487632
2.24255	15625385.92310662
2.24456	14339079.813761106
2.24657	14422106.346435295
2.24857	15212217.269900892
2.25057	16400835.509188246
2.25257	16980298.797366466
2.25457	17426746.289182894
2.25656	17787809.365038138
2.25856	18098573.974677
2.26055	17527097.529042173
2.26254	16440420.647533052
2.26453	14913805.194418862
2.26651	13931644.810847523
2.2685	13439495.150392143
2.27048	13969652.431055324
2.27246	14836644.988132637
2.27443	15664059.101146322
2.27641	15773120.571927361
2.27838	15293984.69856872
2.28036	14571974.000971561
2.28233	13996368.965840042
2.28429	13557534.359582001
2.28626	13161413.331465067
2.28823	12608386.03485258
2.29019	12034738.270821234
2.29215	11448375.524594663
2.29411	10885891.680799738
2.29607	10330590.244992595
2.29802	9785081.46408564
2.29998	9434853.379869936
2.30193	9258628.26456093
2.30388	9279221.538881535
2.30583	9622716.734199842
2.30778	10073356.809206884
2.30972	10654732.090414684
2.31167	10762082.192796094
2.31361	10392966.332513511
2.31555	8944397.571768787
2.31749	7561285.919566082
2.31943	6347244.786668376
2.32137	6123179.9978762
2.32331	6011915.846823342
2.32524	5990584.948610827
2.32718	5941743.567966642
2.32911	5973042.915518431
2.33104	6120242.911445725
2.33297	6262193.285861119
2.3349	6396458.947383496
2.33683	6510340.050641011
2.33876	6602930.618647873
2.34068	6675856.515187415
2.34261	6625855.087511631
2.34453	6583646.576783024
2.34646	6549801.05514199
2.34838	6707243.364147393
2.3503	7005426.243490249
2.35223	7612164.972631324
2.35415	8172575.234355629
2.35607	8703299.780960156
2.35799	9105091.953815091
2.35991	9620551.456064636
2.36183	10273195.666203985
2.36375	10184003.720733024
2.36566	9617021.545627497
2.36758	7865199.128321676
2.3695	6474971.638173773
2.37142	5316535.76799914
2.37334	5658871.229749908
2.37526	5869719.336310175
2.37718	5848326.115005264
2.3791	5771526.538979376
2.38101	5770442.87728719
2.38293	6457269.903019454
2.38485	7348351.9358027475
2.38677	8447989.081048444
2.3887	8993171.708052034
2.39062	9313457.3178611
2.39254	9204469.595690452
2.39446	8899257.613271363
2.39639	8466016.073826065
2.39831	8172390.254195453
2.40024	7895675.923723377
2.40216	7649398.771167896
2.40409	7696662.3699029
2.40602	7911227.913956854
2.40795	8681036.835553609
2.40989	9341546.575910069
2.41182	9860038.820484431
2.41376	10175508.305660691
2.4157	10511808.411350649
2.41764	11145241.043673296
2.41958	11546849.706354028
2.42152	11759965.982503528
2.42347	11092169.685645612
2.42542	10467551.245130116
2.42737	10145796.028221224
