#wavelength	surface flux
0.8	238870.55731900525
0.8002000000000001	239358.4173158855
0.8004000500000003	239881.26725128343
0.8006001500125003	240404.60010002847
0.8008003000500035	240928.06378198575
0.8010005001250161	241451.65832986377
0.8012007502500472	241975.383776378
0.8014010504376099	242464.69947919215
0.8016014007002193	242942.56744004213
0.8018018010503944	243420.5548678823
0.8020022515006572	243898.66179257966
0.8022027520635323	244376.8882440078
0.8024033027515483	244860.99348019186
0.8026039035772362	245350.86356181095
0.8028045545531306	245840.8561109505
0.8030052556917691	246330.97115822753
0.803206007005692	246821.208734266
0.8034068085074435	247322.23834962028
0.8036076602095705	247853.3013396469
0.8038085621246229	248384.4970954206
0.8040095142651542	248915.82565013357
0.8042105166437206	249447.28703698504
0.8044115692728815	249978.15097739134
0.8046126721651998	250477.73563690358
0.8048138253332411	250977.44519258032
0.8050150287895745	251477.27967564642
0.805216282546772	251977.23911733317
0.8054175866174087	252477.32354888006
0.8056189410140631	252982.38039405533
0.8058203457493168	253488.93562992034
0.8060218008357541	253995.61750459365
0.8062233062859632	254502.4260497359
0.8064248621125346	255009.36129701408
0.806626468328063	255542.67865119595
0.8068281249451449	256098.67952397824
0.8070298319763813	256654.8193969794
0.8072315894343755	257211.09830494842
0.8074333973317341	257767.51628264465
0.8076352556810671	258290.17029794236
0.8078371644949874	258731.34463354727
0.8080391237861113	259172.6292627362
0.8082411335670578	259614.02421308216
0.8084431938504498	260055.52951216616
0.8086453046489125	260493.56084270042
0.8088474659750746	260864.96760117213
0.8090496778415686	261236.46721133395
0.809251940261029	261608.05969639806
0.8094542532460944	261979.74507958375
0.8096566168094059	262351.5233841148
0.8098590309636085	262773.88066328067
0.8100614957213493	263208.16019933386
0.8102640110952797	263642.5483052711
0.8104665770980536	264077.0450082349
0.8106691937423283	264511.6503353747
0.8108718610407639	264981.66166761686
0.8110745790060241	265478.78053649137
0.8112773476507757	265976.02368508355
0.8114801669876885	266473.3911444627
0.8116830370294355	266970.8829457064
0.8118859577886929	267458.97586179106
0.8120889292781401	267927.4105775796
0.8122919515104597	268395.962402047
0.8124950244983374	268864.6313644706
0.8126981482544621	269333.4174941347
0.8129013227915257	269806.31824589096
0.8131045481222237	270325.1083566397
0.8133078242592543	270844.0281649162
0.8135111512153191	271363.07770314463
0.813714529003123	271882.2570037577
0.8139179576353739	272401.566099196
0.8141214371247829	273259.54611986026
0.8143249674840641	274183.3894486224
0.814528548725935	275107.4637382162
0.8147321808631167	276031.7690463836
0.8149358639083326	276956.30543087784
0.8151395978743097	277708.1989102309
0.8153433827737784	278343.47940887697
0.8155472186194719	278978.9187276475
0.8157511054241268	279614.5169062476
0.815955043200483	280250.2739843928
0.8161590319612831	280867.88972724386
0.8163630717192736	281452.12685160496
0.8165671624872033	282036.5100352465
0.8167713042778252	282621.0393146845
0.8169754971038948	283205.7147264427
0.8171797409781707	283773.06976770645
0.8173840359134155	284201.12585457845
0.8175883819223938	284629.28895547165
0.8177927790178745	285057.5590971403
0.8179972272126291	285485.9363063445
0.8182017265194322	285914.4206098506
0.8184062769510622	286573.5733176846
0.8186108785203001	287268.37078271003
0.8188155312399301	287963.3419471009
0.8190202351227402	288658.48685428355
0.819224990181521	289353.8055476926
0.8194297964290664	289979.24921288196
0.8196346538781738	290562.62741414545
0.8198395625416434	291146.1514599591
0.8200445224322789	291729.8213867844
0.820249533562887	292313.6372310912
0.8204545959462778	292905.8474899382
0.8206597095952644	293511.4814759722
0.8208648745226633	294117.26687050326
0.8210700907412941	294723.2037113828
0.8212753582639793	295329.29203647195
0.8214806771035456	295879.81301180675
0.8216860472728215	296087.17548204784
0.8218914687846397	296294.5897929065
0.822096941651836	296502.05595734296
0.822302465887249	296709.5739883205
0.8225080415037209	296917.1438988058
0.8227136685140968	297582.1481734143
0.8229193469312254	298299.2411688707
0.8231250767679583	299016.51343757624
0.8233308580371503	299733.9650243486
0.8235366907516598	300451.59597401816
0.8237425749243477	301224.4979877242
0.8239485105680789	302026.79277325264
0.824154497695721	302829.2881324769
0.824360536320145	303631.98411554116
0.8245666264542252	304434.8807726011
0.8247727681108388	305197.11048996355
0.8249789613028664	305901.0005782894
0.8251852060431922	306605.0666391379
0.825391502344703	307309.30871650134
0.8255978502202894	308013.72685438476
0.8258042496828445	308697.6920343025
0.8260107007452654	309281.64171070786
0.8262172034204517	309865.7373745317
0.8264237577213068	310449.97906227165
0.8266303636607373	311034.3668104338
0.8268370212516525	311618.9006555327
0.8270437305069654	312065.72467558214
0.8272504914395923	312501.8878544252
0.8274573040624523	312938.160074063
0.8276641683884679	313374.54136175534
0.8278710844305652	313811.0317447702
0.8280780522016729	314393.88414349034
0.8282850717147234	315043.73418191477
0.8284921429826521	315693.7466828482
0.8286992660183978	316343.92168690736
0.8289064408349024	316994.25923471706
0.8291136674451112	317591.7829908346
0.8293209458619727	318122.6555722674
0.8295282760984382	318653.6608718449
0.829735658167463	319184.7989227479
0.8299430920820048	319716.06975816295
0.8301505778550254	320251.74098716956
0.8303581154994891	320804.5792790362
0.8305657050283641	321357.55578047637
0.8307733464546212	321910.6705260415
0.8309810397912352	322463.92355029384
0.8311887850511829	323017.31488780124
0.8313965822474458	323882.31026498904
0.8316044313930077	324761.97866135434
0.8318123325008561	325641.86697481957
0.8320202855839813	326521.97526036267
0.8322282906553774	327402.3035729773
0.8324363477280413	328089.4788589461
0.8326444568149735	328698.97460735845
0.8328526179291771	329308.6227297071
0.8330608310836596	329918.42326408735
0.8332690962914304	330528.3762486003
0.8334774135655034	331117.4023743415
0.833685782918895	331683.029433764
0.8338942043646247	332248.79789995105
0.834102677915716	332814.70780825504
0.834311203585195	333380.7591940356
0.8345197813860912	334010.1088398386
0.8347284113314379	334852.2073402178
0.8349370934342709	335694.5163652215
0.8351458277076294	336537.03596748057
0.8353546141645565	337379.7661996415
0.8355634528180977	338222.7071143602
0.8357723436813022	338384.27711797296
0.8359812867672226	338537.47171743325
0.8361902820889144	338690.7046155433
0.8363993296594368	338843.97582187795
0.8366084294918518	338997.2853460142
0.8368175815992247	339671.1713784169
0.8370267859946247	340524.50457835227
0.8372360426911234	341378.0511115873
0.8374453517017962	342231.81103145564
0.8376547130397217	343085.78439130384
0.8378641267179816	343830.2146889574
0.8380735927496613	344465.92405978526
0.8382831111478488	345101.7923579554
0.8384926819256358	345737.8196231998
0.8387023050961173	346374.00589526107
0.8389119806723914	347012.6266973365
0.8391217086675596	347657.8111085693
0.8393314890947265	348303.15681590437
0.8395413219670003	348948.6638596664
0.8397512072974922	349594.33228018973
0.8399611450993165	350246.14451842004
0.8401711353855914	351195.2035856374
0.8403811781694378	352144.49991762126
0.8405912734639802	353094.03357368836
0.8408014212823464	354043.80461317
0.8410116216376671	354993.8130954113
0.8412218745430766	355881.31797044317
0.8414321800117124	356750.78947997413
0.8416425380567154	357620.4783573829
0.8418529486912297	358490.38465701113
0.8420634119284025	359360.5084332136
0.8422739277813847	360149.50362843083
0.8424844962633302	360867.02699130477
0.842695117387396	361584.72973501857
0.8429057911667428	362302.6119044183
0.8431165176145345	363020.67354436073
0.8433272967439382	363720.3931595311
0.8435381285681244	364375.1085320755
0.8437490131002665	365029.9875834629
0.8439599503535415	365685.0303546127
0.84417094034113	366340.2368864558
0.8443819830762154	366997.96865981905
0.8445930785719846	367703.4362745328
0.8448042268416277	368409.0802561498
0.8450154278983382	369114.9006487622
0.8452266817553128	369820.89749647264
0.8454379884257517	370527.0708433951
0.8456493479228583	371291.76550481125
0.845860760259839	372070.7014620004
0.846072225449904	372849.83215317875
0.8462837435062666	373629.15762703016
0.8464953144421433	374408.67793225043
0.8467069382707537	375146.1615075987
0.8469186150053215	375850.9112108959
0.847130344659073	376555.83710161917
0.8473421272452377	377260.9392238144
0.8475539627770492	377966.2176215409
0.8477658512677435	378687.18521165784
0.8479777927305605	379441.27258627734
0.8481897871787432	380195.5484827403
0.848401834625538	380950.0129481778
0.8486139350841944	381704.6660297312
0.8488260885679657	382456.8090826397
0.8490382950901076	383176.2440748897
0.8492505546638802	383895.8589258881
0.8494628673025462	384615.653680599
0.8496752330193721	385335.62838399963
0.8498876518276269	386055.7830810751
0.8501001237405839	386786.4551581411
0.8503126487715191	387519.3734181064
0.850525226933712	388252.47490763635
0.8507378582404455	388985.75967253867
0.8509505427050057	389719.2277586326
0.8511632803406821	390473.3980790281
0.8513760711607672	391241.8086087407
0.8515889151785576	392010.41124108684
0.8518018124073523	392779.20602409047
0.8520147628604541	393548.19300578936
0.8522277665511693	394308.7499972061
0.8524408234928071	395053.55134271726
0.8526539336986805	395798.538888565
0.8528670971821053	396543.71268129925
0.8530803139564007	397289.0727674808
0.8532935840348901	398036.50470296363
0.8535069074308987	398800.04758578277
0.8537202841577566	399563.7813543232
0.8539337142287962	400327.7060563059
0.8541471976573534	401091.8217394636
0.8543607344567677	401856.1284515423
0.8545743246403821	402660.4341901199
0.8547879682215422	403471.2629625455
0.8550016652135977	404282.29444216413
0.8552154156299011	405093.5286796527
0.8554292194838088	405904.96572570124
0.8556430767886797	406696.216501116
0.855856987557877	407475.2853480623
0.8560709518047664	408254.5489622198
0.8562849695427177	409034.00739228114
0.8564990407851035	409813.66068695026
0.8567131655452999	410592.234363718
0.8569273438366862	411368.9143219585
0.8571415756726455	412145.78845018864
0.8573558610665638	412922.8567969512
0.8575702000318304	413700.1194107996
0.8577845925818384	414483.37642345874
0.857999038729984	415303.05870653875
0.8582135384896665	416122.94591018936
0.858428091874289	416943.0380856409
0.8586426988972576	417763.33528413606
0.8588573595719821	418583.83755693113
0.8590720739118751	419359.2052744674
0.8592868419303532	420129.4211500893
0.8595016636408359	420899.82957968005
0.8597165390567462	421670.43061137793
0.8599314681915105	422441.22429333394
0.8601464510585584	423228.2241432719
0.860361487671323	424023.9205810311
0.8605765780432408	424819.81594289956
0.8607917221877518	425615.91027860914
0.8610069201182988	426412.2036379024
0.8612221718483286	427137.7965556101
0.8614374773912907	427761.3596259422
0.8616528367606385	428385.0785870417
0.8618682499698288	429008.95347788185
0.8620837170323213	429632.98433744465
0.8622992379615795	430288.0064800819
0.8625148127710699	431095.78434244246
0.8627304414742627	431903.7641492687
0.8629461240846313	432711.9459510468
0.8631618606156526	433520.3297982753
0.8633776510808066	434328.9157414656
0.8635934954935769	435305.1478525333
0.8638093938674504	436295.3497109073
0.8640253462159173	437285.79911974585
0.8642413525524714	438276.4961409366
0.8644574128906095	439267.44083638245
0.8646735272438323	440085.7759090188
0.8648896956256433	440823.93210384576
0.8651059180495498	441562.2728377215
0.8653221945290621	442300.79815677996
0.8655385250776946	443039.50810716924
0.8657549097089641	443843.53891948954
0.8659713484363913	444731.15937418677
0.8661878412735006	445619.0017339981
0.866404388233819	446507.06605439924
0.8666209893308775	447395.3523908801
0.8668376445782103	448267.3460534958
0.8670543539893549	449072.1526547937
0.8672711175778525	449877.1604577425
0.8674879353572469	450682.3695126411
0.8677048073410862	451487.7798698038
0.8679217335429217	452293.3915795562
0.8681387139763074	453162.4041409757
0.8683557486548015	454034.7735431343
0.8685728375919655	454907.36103764456
0.8687899808013633	455780.16667902656
0.8690071782965637	456653.19052182
0.869224430091138	457504.39040789264
0.8694417361986609	458346.83414546086
0.8696590966327107	459189.48849396326
0.869876511406869	460032.3535060528
0.8700939805347206	460875.42923439504
0.8703115040298544	461720.366253017
0.870529081905862	462567.40152927244
0.8707467141763385	463414.6485643466
0.8709644008548827	464262.1074111795
0.8711821419550964	465109.7781227236
0.8713999374905854	465962.53885223716
0.871617787474958	466832.3487885443
0.8718356919218269	467702.37617733626
0.8720536508448075	468572.62107297545
0.8722716642575187	469443.08352983807
0.8724897321735832	470313.76360231533
0.8727078546066265	471187.1508206076
0.8729260315702784	472060.79425879905
0.873144263078171	472934.65610784915
0.8733625491439405	473808.7364223616
0.8735808897812266	474683.035256953
0.8737992850036719	475541.7941494464
0.874017734824923	476395.18632412475
0.8742362392586293	477248.79184684635
0.874454798318444	478102.61077094864
0.8746734120180236	478956.64314978186
0.8748920803710283	479822.5190284214
0.875110803391121	480700.29840951564
0.8753295810919689	481578.2972354558
0.875548413487242	482456.5155611023
0.8757673005906139	483334.95344133035
0.8759862424157616	484226.50730798976
0.8762052389763657	485155.6003384696
0.8764242902861098	486084.92564220645
0.8766433963586814	487014.48327726946
0.8768625572077712	487944.2733017416
0.8770817728470732	488873.7258599493
0.8773010432902849	489758.91335213056
0.8775203685511077	490644.32214118616
0.8777397486432454	491529.9522824379
0.8779591835804065	492415.803831226
0.8781786733763015	493301.8768429002
0.8783982180446457	494146.23112700443
0.878617817599157	494978.32006047067
0.8788374720535569	495810.61701616994
0.8790571814215703	496643.12204610795
0.8792769457169257	497475.8352023034
0.879496764953355	498321.57828282786
0.8797166391445934	499179.06039095926
0.8799365683043796	500036.75686961773
0.8801565524464557	500894.6677723959
0.8803765915845676	501752.79315290047
0.8805966857324639	502643.2161057547
0.880816834903897	503614.44464524934
0.881037039112623	504585.9159918792
0.8812572983724012	505557.63020634564
0.8814776126969944	506529.58734936616
0.8816979821001687	507502.1077702266
0.8819184065956938	508482.4109676809
0.8821388861973429	509462.9592409357
0.8823594209188923	510443.7526512578
0.882580010774122	511424.79125993204
0.8828006557768155	512406.07512825896
0.8830213559407598	513351.0893401922
0.8832421112797452	514287.1559182195
0.8834629218075651	515223.45651289064
0.8836837875380171	516159.99118271074
0.8839047084849018	517096.7599861985
0.884125684662023	517994.50489222567
0.8843467160831886	518861.0138894514
0.8845678027622095	519727.7395139264
0.8847889447129001	520594.6818198077
0.8850101419490785	521461.8408612653
0.8852313944845657	522365.6205440619
0.885452702333187	523349.3097379299
0.8856740655087704	524333.2448540962
0.8858954840251476	525317.4259540413
0.8861169578961539	526301.8530992611
0.886338487135628	527275.3230558805
0.886560071757412	528099.9495704784
0.8867817117753515	528924.7822417049
0.8870034072032955	529749.8211210996
0.8872251580550963	530575.0662602133
0.8874469643446101	531400.5177106122
0.8876688260856963	532215.819099476
0.8878907432922178	533029.1809189329
0.8881127159780409	533842.7460788442
0.8883347441570356	534656.5146300464
0.8885568278430749	535470.4866233857
0.8887789670500358	536406.2478642232
0.8890011617917983	537428.4927751736
0.8892234120822464	538450.9932473522
0.8894457179352669	539473.749344648
0.8896680793647509	540496.7611309689
0.8898904963845921	541390.0030735403
0.8901129690086883	542035.3760654526
0.8903354972509405	542680.9104006127
0.8905580811252535	543326.6061193573
0.8907807206455347	543972.4632620305
0.8910034158256963	544602.8309937489
0.8912261666796527	545093.485010874
0.8914489732213227	545584.2616915036
0.8916718354646282	546075.1610663038
0.8918947534234944	546566.1831659473
0.8921177271118502	547057.3280211154
0.8923407565436284	547964.1057060562
0.8925638417327644	548938.891071772
0.8927869826931977	549913.9201338295
0.8930101794388711	550889.1929531525
0.8932334319837308	551864.7095906801
0.8934567403417267	552480.3868498935
0.8936801045268123	552872.4686711181
0.8939035245529441	553264.6485127979
0.8941270004340824	553656.9263994382
0.894350532184191	554049.30235555
0.8945741198172371	555044.5378983449
0.8947977633471915	557039.6302860259
0.8950214627880284	559035.2214468038
0.8952452181537254	561031.3115053705
0.8954690294582639	563027.9005864532
0.8956928967156286	564878.26042098
0.8959168199398075	565776.8678383483
0.8961407991447926	566675.699907571
0.8963648343445789	567574.7566848111
0.896588925553165	568474.0382262449
0.8968130727845534	569373.5445880642
0.8970372760527496	569838.1287015707
0.8972615353717629	570248.3832927207
0.8974858507556059	570658.7404475185
0.8977102222182949	571069.200191605
0.8979346497738496	571479.7625506277
0.8981591334362931	572866.0601882603
0.8983836732196523	574786.2549494539
0.8986082691379572	576706.9297593366
0.8988329212052417	578628.0847379218
0.8990576294355432	580549.7200052533
0.8992823938429022	582169.1450742298
0.8995072144413631	583338.9125326945
0.8997320912449734	584508.9724330235
0.8999570242677847	585679.3248483273
0.9001820135238516	586849.969851735
0.9004070590272328	587984.4584083423
0.9006321607919896	588928.1519275823
0.9008573188321878	589872.0813702032
0.9010825331618959	590816.2467951842
0.9013078037951865	591760.6482615216
0.9015331307461353	592705.2858282251
0.9017585140288219	593617.6145607774
0.9019839536573292	594527.3681908626
0.9022094496457435	595437.3492593546
0.9024350020081551	596347.5578231148
0.9026606107586572	597257.9939390155
0.902886275911347	598495.7290111162
0.9031119974803249	599891.4446725933
0.9033377754796951	601287.5092629858
0.903563609923565	602683.9228695252
0.903789500826046	604080.6855794672
0.9040154482012526	605293.264147027
0.904241452063303	606267.0990387244
0.9044675124263188	607241.1773891444
0.9046936293044254	608215.4992591519
0.9049198027117517	609190.0647096274
0.9051460326624297	610186.4103165127
0.9053723191705955	611274.7125010404
0.9055986622503881	612363.2867611132
0.9058250619159507	613452.1331647511
0.9060515181814298	614541.2517799905
0.9062780310609752	615630.642674883
0.9065046005687405	616065.7068582227
0.906731226718883	616464.3616614252
0.9069579095255627	616863.1161283279
0.907184649002944	617261.9702838474
0.907411445165195	617660.9241529063
0.9076382980264862	618967.8392926643
0.907865207600993	620652.1143741062
0.9080921739028933	622336.8105243178
0.9083191969463691	624021.9278485668
0.9085462767456058	625707.4664521476
0.9087734133147922	627087.0853532093
0.9090006066681211	628113.2214061475
0.909227856819788	629139.6139930976
0.9094551637839932	630166.2631781958
0.9096825275749393	631193.16902559
0.9099099482068329	632270.4661740506
0.9101374256938848	633526.2117942628
0.9103649600503083	634782.2713508795
0.9105925512903209	636038.644922385
0.9108201994281437	637295.3325872847
0.9110479044780008	638552.3344240992
0.9112756664541204	639725.9778623425
0.911503485370734	640897.9994592599
0.9117313612420768	642070.3140615766
0.9119592940823873	643242.9217425435
0.912187283905908	644415.822575431
0.9124153307268845	644990.4293563804
0.9126434345595664	645347.927595787
0.9128715954182063	645705.5152097532
0.9130998133170609	646063.192220623
0.9133280882703902	646420.9586507455
0.913556420292458	647299.2488468074
0.9137848093975312	648714.4902185209
0.9140132555998806	650130.085400577
0.9142417589137806	651546.0344814289
0.9144703193535092	652962.3375495519
0.9146989369333476	654295.3654101093
