#wavelength	surface flux
0.676892	537729.064906653
0.678297	548152.1620995229
0.679702	556531.0284252109
0.681109	565348.3649513003
0.682517	578643.5131301164
0.683926	590966.5942681871
0.685337	601869.6280090812
0.686749	612944.0576907604
0.688164	623683.8539531016
0.689581	634103.7951034211
0.691	640551.7293026743
0.692422	648476.0659911247
0.693847	665187.1358916862
0.695274	681382.2369988845
0.696705	694403.0692585168
0.698139	706328.8927298941
0.699576	718675.1874409531
0.701017	730913.3234273723
0.702461	742202.980335862
0.70391	756307.8085939486
0.705362	770730.381343895
0.706819	783376.367632493
0.70828	796360.4275266685
0.709745	809476.4618265127
0.711216	824090.6876854462
0.71269	837845.2865032041
0.71417	851171.9648140323
0.715655	861427.8122980138
0.717145	869321.1527868592
0.71864	887753.4456208647
0.72014	902908.211607228
0.721647	916379.6245075135
0.723158	930253.637876633
0.724676	943023.1520013979
0.726199	956443.9549457899
0.727728	972881.9876701365
0.729264	983038.5193860241
0.730805	998252.8392029144
0.732353	1017534.8709141881
0.733907	1031725.2747065041
0.735468	1046505.1532630848
0.737035	1060221.1559671676
0.738609	1077182.8247696776
0.74019	1091603.6428678227
0.741777	1100645.6656801216
0.743372	1111723.4225841814
0.744973	1122514.1650829487
0.746582	1128770.2871042327
0.748197	1132195.5812866527
0.74982	1130718.571665331
0.751451	1121947.1115308506
0.753088	1102178.5992710325
0.754734	1068450.683225345
0.756386	1013858.6707531738
0.758047	924951.3447945889
0.759715	791177.7045975951
0.76139	594617.0399269557
0.763074	334108.1381505906
0.764765	109665.99733292163
0.766464	15715.501171631571
0.768172	22398.158149316863
0.769887	27609.803130108823
0.77161	192283.21639510524
0.773341	522838.80605170195
0.775081	824935.140801723
0.776829	1050179.7858423467
0.778585	1163017.350816505
0.780349	1226589.774594247
0.782121	1413260.2799201924
0.783902	1526609.1028917844
0.785691	1600327.4740255077
0.787489	1662736.6836398337
0.789295	1716065.4090596153
0.79111	1758503.3218764912
0.792933	1619982.3502815252
0.794764	1036209.1622847638
0.796604	1693478.1178364956
0.798453	1940273.4306701059
0.80031	1985059.816944708
0.802176	2026136.1714170969
0.804051	2065327.8065052542
0.805934	2103083.3445483325
0.807826	2138008.9320847844
0.809727	2158547.3237418495
0.811636	2183194.5134901255
0.813554	2219760.191020575
0.81548	2285056.8547996054
0.817416	2328772.957605835
0.81936	2369116.029305971
0.821313	2408872.691055186
0.823274	2436257.6922563193
0.825244	2496087.6120164716
0.827223	2537234.843143156
0.829211	2568073.33242363
0.831208	2606811.2107542222
0.833213	2659682.985679182
0.835227	2699488.8286485863
0.837249	2727670.272921032
0.83928	2774129.1614255123
0.841321	2841418.081225639
0.843369	2899220.8223318374
0.845427	2947546.5202861703
0.847493	2999866.2617775938
0.849567	3046290.5424237982
0.851651	3084990.663453308
0.853742	3145126.420508852
0.855843	3207108.7429076326
0.857952	3260987.769629889
0.86007	3308049.7461531553
0.862196	3268062.988371931
0.864331	3340137.621068174
0.866474	3418125.484385722
0.868626	3482969.480269237
0.870786	3535846.6420453885
0.872955	3594477.554394138
0.875132	3645598.498385031
0.877317	3711640.8373790113
0.879511	3732424.634975678
0.881713	3800525.7071394413
0.883923	3880549.116890622
0.886142	3928592.2158946004
0.888369	3976883.7782002087
0.890604	4000188.6442675604
0.892847	3978683.3036016575
0.895099	4063117.1647099997
0.897358	4169876.369260501
0.899626	4269058.230696742
0.901901	4353013.94055649
0.904185	4445773.811514391
0.906476	4505208.193460424
0.908776	4571722.428475241
0.911083	4658442.707992005
0.913398	4691435.652113067
0.915721	4720002.586056874
0.918051	4738383.773218136
0.92039	4892457.065102356
0.922736	4946654.893726252
0.925089	4830458.632603886
0.927451	4487197.795540833
0.929819	4076243.0724637136
0.932195	4472973.8184205
0.934579	4507934.567263608
0.93697	4712071.875536642
0.939369	5012799.351908928
0.941774	5097944.6328360895
0.944187	4831770.464397814
0.946607	4776036.738876114
0.949035	5122436.359513084
0.951469	5083195.396095509
0.953911	5228919.2934793215
0.956359	5612674.089939165
0.958814	5244218.816993561
0.961277	5098803.125942768
0.963746	5207075.690721448
0.966222	5326134.24281078
0.968705	5323420.210488838
0.971194	5912088.3258542335
0.97369	6233172.048018801
0.976193	6186433.648981788
0.978702	6392721.814274909
0.981217	6491620.87978939
0.983739	6614188.617204528
0.986268	6718407.256479267
0.988802	6884787.742154549
0.991343	7041303.620823859
0.99389	7134644.982539497
0.996444	7295339.848255356
0.999003	7384523.027383132
1.00157	7450648.884929797
1.00414	7557635.691727096
1.00672	7708588.067256735
1.0093	7840161.787917863
1.01189	7970723.263941375
1.01448	8125673.850586486
1.01708	8247471.712473779
1.01969	8364068.332167085
1.0223	8434790.210446263
1.02492	8447831.183015965
1.02754	8584000.439373272
1.03017	8580496.888068333
1.0328	8873222.566383006
1.03544	9013157.248627346
1.03808	9125229.072983801
1.04073	9237088.477310166
1.04339	9345804.399468184
1.04604	9455235.694042744
1.04871	9535399.71425732
1.05138	9629196.170752726
1.05405	9772224.556404877
1.05673	9902682.711029839
1.05941	10012789.905420845
1.0621	10116480.446708672
1.06479	10227131.79608089
1.06749	10337971.990533635
1.07019	10413842.059626838
1.07289	10540660.264171654
1.0756	10671346.21968321
1.07832	10767399.439579668
1.08104	10894800.218857715
1.08376	11011638.50517459
1.08649	11092459.659973852
1.08922	11095822.265496159
1.09195	11062643.76606471
1.09469	11075780.38185281
1.09743	11179091.607377563
1.10018	10178468.754780002
1.10293	9212036.587614996
1.10568	8545712.06801407
1.10844	9966845.657724239
1.1112	9513102.557326997
1.11396	8853751.261018347
1.11673	8844628.426710682
1.1195	9092339.880499255
1.12228	8472261.051216856
1.12505	9857798.347818239
1.12783	9954209.44788254
1.13062	9902396.794716202
1.13341	7543391.948721489
1.1362	9082802.574903496
1.13899	10971019.631396158
1.14178	10707429.382630393
1.14458	11271815.851543218
1.14738	11926103.935671167
1.15019	10311516.788561573
1.153	7867460.9351410745
1.1558	8780793.721230311
1.15862	8967668.363660784
1.16143	9170174.961519375
1.16425	10488129.829605797
1.16707	11813267.735447936
1.16989	11068110.896195704
1.17271	11442387.160427883
1.17554	12616483.997710623
1.17837	13386767.872993134
1.1812	13674949.891275348
1.18403	14391992.127204716
1.18686	14370313.630545273
1.1897	14395259.427267577
1.19253	15039728.814909058
1.19537	15361353.118236572
1.19822	15530700.258865803
1.20106	15799020.370557137
1.2039	15727112.84997441
1.20675	15980805.759274695
1.2096	16131978.372075085
1.21245	16206961.695583927
1.2153	16549058.679883165
1.21815	16753873.017369166
1.221	16921145.346562512
1.22385	17109272.023283992
1.22671	17304513.598446373
1.22957	17450904.47036129
1.23242	17547957.23868217
1.23528	17718906.58338826
1.23814	17897093.218011506
1.241	18036915.901933987
1.24387	18180743.94368628
1.24673	18315157.04648472
1.24959	18395220.26411704
1.25245	18349114.645967368
1.25532	18684009.69025779
1.25818	18876255.030641023
1.26105	18924964.011626206
1.26392	19001900.5233915
1.26678	19130041.23643412
1.26965	19221413.54592591
1.27252	19265416.440892756
1.27538	19486733.5144873
1.27825	19581110.123092424
1.28112	19553945.028100427
1.28399	19756018.08627653
1.28686	19762755.944931634
1.28973	19587206.059349485
1.2926	19545204.842841312
1.29546	19845899.929081783
1.29833	20052412.77095812
1.3012	19766103.43112514
1.30407	19782220.73614436
1.30694	19784637.910886083
1.30981	20178246.31128587
1.31267	20073108.383521177
1.31554	20525034.69456544
1.31841	20863089.061929885
1.32128	20326259.42714571
1.32414	19392978.00735898
1.32701	18985006.896367863
1.32987	17536555.742808927
1.33274	13057078.08994792
1.3356	9978738.915086223
1.33847	5260457.096693227
1.34133	2905930.9520531823
1.34419	5239096.127714984
1.34705	6758996.452825667
1.34991	5047600.368128828
1.35277	2977425.9146146392
1.35563	3038123.5663563116
1.35849	3879004.528660504
1.36135	2586455.0900833155
1.3642	4132718.691611399
1.36706	4492940.2203222085
1.36991	4143599.374936206
1.37277	7195647.170907995
1.37562	10202324.454592524
1.37847	10928910.985397939
1.38132	5679896.992560407
1.38417	1850032.5306769204
1.38701	3106765.9263567375
1.38986	2657008.7623764076
1.39271	2727997.128538402
1.39555	3625029.929255603
1.39839	2713009.3965986157
1.40123	4179117.4708042033
1.40407	6884437.351195837
1.40691	8595329.458584186
1.40974	5599397.2077187095
1.41258	2461542.015166993
1.41541	4401847.283766732
1.41824	5660457.949430577
1.42107	4210015.945831255
1.4239	3026590.9414353506
1.42673	5103906.889468888
1.42955	7025050.457797302
1.43237	4620365.912383188
1.43519	6091060.794334198
1.43801	5150570.013863652
1.44083	6090399.980589382
1.44365	8522161.552250909
1.44646	8766097.788903955
1.44927	12154204.52201277
1.45208	13874899.881975159
1.45489	12028055.913432015
1.45769	13685086.832229033
1.4605	14660426.07373357
1.4633	14831448.30559926
1.4661	15555866.624660324
1.4689	13308732.16128517
1.47169	13814409.716433913
1.47449	13848564.146320583
1.47728	14335399.727734216
1.48007	14212480.785478555
1.48286	16479655.885874001
1.48564	18353232.479830373
1.48842	18091246.175012726
1.4912	18308381.02986594
1.49398	18049224.66197356
1.49676	17237413.479436953
1.49953	19151371.199060794
1.5023	20869194.536223896
1.50507	20825039.889887817
1.50784	20117484.84837715
1.51061	20383740.477803268
1.51337	21069616.806653846
1.51613	21962451.011256363
1.51888	23065892.73241829
1.52164	24679148.103977546
1.52439	25437910.35944301
1.52714	24737054.025903124
1.52989	24522864.289444327
1.53263	25284131.407414127
1.53538	26195389.512135286
1.53812	26285866.90108258
1.54086	26141588.821818825
1.54359	26311334.612543017
1.54632	27037945.12292924
1.54905	27197517.430698045
1.55178	27806198.915959477
1.5545	27717568.863191128
1.55723	27180585.49435929
1.55995	27181975.530119617
1.56266	27717445.082857102
1.56538	28657340.364544697
1.56809	29148669.885747567
1.5708	29163427.44262091
1.57351	28801593.615525614
1.57621	28484211.099569052
1.57891	27708397.603949647
1.58161	28538007.46925621
1.5843	30017724.979750425
1.587	30299118.280564256
1.58969	30275599.525737632
1.59238	30326744.163905613
1.59506	30187303.070018183
1.59774	29974889.080848835
1.60042	30009630.49000019
1.6031	30322859.607197944
1.60577	30596218.005006175
1.60844	30710949.813499007
1.61111	30618016.860927228
1.61378	30495829.477623995
1.61644	30653956.828259703
1.6191	30542590.42968477
1.62176	30453295.410678066
1.62441	30823655.165689632
1.62707	30858566.630116485
1.62971	30497689.58845633
1.63236	30319990.833954733
1.635	31091853.125700682
1.63764	32075398.09859894
1.64028	32386169.23643927
1.64292	32429683.513448
1.64555	32259626.09262653
1.64818	31667481.436713815
1.65081	31561340.030094106
1.65343	32114900.36676975
1.65605	32387266.697613593
1.65867	32366095.3338297
1.66128	32071630.565639388
1.6639	31143434.23556394
1.66651	29174106.98141234
1.66911	28970704.039073925
1.67172	31019912.863281496
1.67432	32528338.297739778
1.67692	32627091.134926744
1.67951	32338320.0692329
1.68211	32477469.241561506
1.6847	32627598.757659107
1.68728	32408286.08033251
1.68987	32016759.773922417
1.69245	31182630.98112263
1.69503	29856568.380642656
1.6976	29312063.146561667
1.70018	30437800.70159309
1.70275	30648477.276165325
1.70531	30523556.325362958
1.70788	30869867.00437441
1.71044	30634297.326768637
1.713	30667976.9089507
1.71556	30913205.20407412
1.71811	31482011.12726889
1.72066	31869760.671737824
1.72321	31558056.834993847
1.72575	31335560.97286364
1.7283	30876674.892981797
1.73084	29958041.98275437
1.73337	28943516.882894605
1.73591	28113507.509967487
1.73844	27645659.697365146
1.74097	27476108.307118505
1.74349	26303016.830081843
1.74602	24817462.199667405
1.74854	24114215.58851022
1.75105	22645931.15466031
1.75357	20490818.190237377
1.75608	22161560.76858117
1.75859	26255618.762642667
1.7611	28134818.248242624
1.7636	27615710.931459386
1.7661	24206584.895430736
1.7686	20875218.400113944
1.7711	18040243.52351662
1.77359	14863272.566763239
1.77608	10870518.221910425
1.77857	8861066.489999803
1.78105	10118119.758014996
1.78354	11394475.890437486
1.78602	9529197.610640164
1.78849	8051953.056689359
1.79097	9551692.203958463
1.79344	11497909.718219046
1.79591	12472439.817536091
1.79837	13557606.908483475
1.80084	9757575.70549158
1.8033	6660440.818852217
1.80576	4021811.99752687
1.80821	2911324.7670820607
1.81067	5907646.301787838
1.81312	8762429.034274317
1.81557	5749153.888241776
1.81801	3684449.44582473
1.82046	6479880.715653478
1.8229	9445781.976391448
1.82533	7167304.386918104
1.82777	3480030.235633718
1.8302	3061849.3637887826
1.83263	4792031.092504792
1.83506	6525919.804549225
1.83749	8474502.118386002
1.83991	9795934.76616263
1.84233	8774677.166099008
1.84475	8299675.209585727
1.84716	8709645.523521762
1.84957	9267392.186192038
1.85198	8205226.464058225
1.85439	4853678.448616395
1.8568	4192760.084795773
1.8592	5287605.934944691
1.8616	4416487.54328256
1.864	3072563.9081677054
1.86639	3429354.6550446264
1.86878	4898322.282391856
1.87118	6833838.453584606
1.87356	8853707.972616356
1.87595	9684619.393098254
1.87833	11405833.878237039
1.88071	14750764.956855062
1.88309	14350122.200653287
1.88547	12140202.708247071
1.88784	11747417.387194743
1.89021	11231387.76535889
1.89258	14744180.578646755
1.89494	17177869.155537996
1.89731	12852079.69563752
1.89967	7421136.22495069
1.90203	4290770.460518576
1.90439	4050049.9133235347
1.90674	5866476.904478357
1.90909	6476075.302583354
1.91144	4680750.469102164
1.91379	2724844.1069073905
1.91613	2476802.5362420524
1.91848	3644651.792754172
1.92082	4996043.150426446
1.92315	4849279.778842071
1.92549	3790281.019984829
1.92782	4229036.95693499
1.93015	5588065.508761396
1.93248	6551138.41553539
1.93481	6616310.005141894
1.93713	5853089.999424587
1.93945	5526317.739622532
1.94177	6274438.187589209
1.94409	6948952.991734233
1.94641	6880177.755519868
1.94872	7466579.523285808
1.95103	8475850.9238493
1.95334	6318012.860736938
1.95564	5166077.2953912215
1.95795	6018728.907788727
1.96025	6358217.798782941
1.96255	6434222.038046137
1.96484	7088690.351074288
1.96714	8834403.27700894
1.96943	11090104.622243796
1.97172	12238175.719148496
1.97401	11399544.16258303
1.97629	11913808.640334373
1.97858	13924076.817844177
1.98086	15082750.856108882
1.98314	16298485.040944144
1.98541	17050976.64287816
1.98769	16085539.403485224
1.98996	13641196.203863282
1.99223	13066386.239876255
1.9945	14507610.373117756
1.99677	14028549.633078104
1.99903	13890085.399151476
2.00129	15894685.980609134
2.00355	18621229.764450807
2.00581	19952445.691326417
2.00806	20101130.75948045
2.01031	22350257.713647425
2.01256	23663699.480536275
2.01481	22432931.51599703
2.01706	20724456.31077834
2.0193	20643474.41155044
2.02154	22715602.142736323
2.02378	25116261.389886547
2.02602	25823509.669196054
2.02825	26351845.81318127
2.03049	27078517.32254297
2.03272	28031647.380600154
2.03494	28984030.67700977
2.03717	29586218.330695774
2.03939	29870140.950118966
2.04162	30789790.8767051
2.04384	31620909.153877437
2.04605	32539669.871296734
2.04827	33439154.797840297
2.05048	33599559.40988507
2.05269	32476383.695810135
2.0549	32211539.324925274
2.05711	32711236.427505627
2.05931	33514990.590929296
2.06151	34187175.90236089
2.06371	34750227.00840366
2.06591	35161548.81484496
2.06811	35480110.80512697
2.0703	35628660.86391432
2.07249	35552995.96299249
2.07468	35239817.319376335
2.07686	35234000.974258535
2.07905	35466838.18493574
2.08123	35752974.4712042
2.08341	36003033.33668051
2.08559	36234520.28965744
2.08776	36388404.58591049
2.08994	36326918.568291135
2.09211	36143592.616690725
2.09428	35996632.383644976
2.09645	36177125.62089406
2.09861	36276492.77735806
2.10077	36263908.98366494
2.10293	36133320.19569526
2.10509	35909138.348577164
2.10725	35745480.90846357
2.1094	36198450.05397347
2.11155	36689426.79883434
2.1137	36948073.67369483
2.11585	36737860.8814564
2.11799	36577099.05395498
2.12013	36642998.85452602
2.12227	36845430.75953802
2.12441	37081968.83385633
2.12655	37155509.1245391
2.12868	37166606.735396236
2.13081	37209748.39989091
2.13294	37282541.320407584
2.13507	37202332.72370127
2.13719	36925379.77576476
2.13931	36691962.4235673
2.14143	36540508.78830507
2.14355	36416094.81105244
2.14567	36348671.44769151
2.14778	36261113.46163179
2.14989	36116090.85826673
2.152	35847562.40709701
2.1541	35891161.67379575
2.15621	36018365.63122129
2.15831	36114140.22413077
2.16041	35934871.85614933
2.16251	35873315.28258103
2.1646	35820634.455177024
2.1667	35761419.90627013
2.16879	35748633.48246901
2.17087	35651675.184685215
2.17296	35489787.47522958
2.17504	35279499.42005051
2.17713	35234783.9255121
2.1792	35264582.17372887
2.18128	35283189.29859081
2.18336	35193709.91106167
2.18543	34969487.37659362
2.1875	34710291.36422702
2.18957	34345872.44275152
2.19163	33539740.119832065
2.1937	32030847.352210455
2.19576	30286649.57193632
2.19782	28487767.84099997
2.19987	27577254.41549287
2.20193	27072943.644630246
2.20398	26902504.931958612
2.20603	26941250.906479497
2.20808	27405992.674060713
2.21012	28042952.32833678
2.21217	28762542.02220098
2.21421	29013923.571581993
2.21625	28907353.974511907
2.21828	28510908.13458229
2.22032	28411655.958778393
2.22235	28295103.9570507
2.22438	27995533.431088097
2.22641	27069171.821873367
2.22843	26020789.916206162
2.23046	25109990.109578684
2.23248	24557755.66990964
2.2345	24463788.29843362
2.23651	24373567.685590576
2.23853	24215210.546785034
2.24054	23206744.231163826
2.24255	21996744.690766577
2.24456	20693914.293191362
2.24657	20645426.923174612
2.24857	21291516.39738576
2.25057	22349131.121913094
2.25257	22958754.3674889
2.25457	23387073.099123217
2.25656	23693504.697057936
2.25856	23898055.533049744
2.26055	23312552.70448011
2.26254	22253697.933738224
2.26453	20752402.234447315
2.26651	19765028.29742359
2.2685	19259207.848871417
2.27048	19793172.470681954
2.27246	20682236.014650106
2.27443	21540706.339175776
2.27641	21686615.685536128
2.27838	21195915.15124905
2.28036	20451559.956070233
2.28233	19907194.0350204
2.28429	19595285.596259855
2.28626	19355560.4958397
2.28823	18825371.519772008
2.29019	17948275.576310903
2.29215	16815852.102878224
2.29411	15301881.6764636
2.29607	13802849.207372706
2.29802	12326129.29723643
2.29998	11290870.10905794
2.30193	10500925.621445313
2.30388	9985304.294897996
2.30583	9812066.876870947
2.30778	9831729.706990194
2.30972	10127125.714603113
2.31167	10311907.04796315
2.31361	10189730.59933395
2.31555	9239323.491357366
2.31749	8245499.527841434
2.31943	7334368.5939129535
2.32137	7146682.666360906
2.32331	7070905.280075854
2.32524	7084171.513763499
2.32718	7104791.307216337
2.32911	7211325.087986535
2.33104	7441825.128870871
2.33297	7715170.972735869
2.3349	8000847.208277907
2.33683	8296365.695445067
2.33876	8602799.472539013
2.34068	8914089.337513676
2.34261	9239073.649652136
2.34453	9560587.401969563
2.34646	9881740.228182418
2.34838	9982214.67500986
2.3503	10075118.939591099
2.35223	10232694.697097942
2.35415	10382764.888729438
2.35607	10536851.765016872
2.35799	10800190.5395061
2.35991	11328759.609455427
2.36183	12177434.208407924
2.36375	12218568.15083639
2.36566	11707402.714051284
2.36758	9798123.840314202
2.3695	8558633.281780653
2.37142	7748494.207352189
2.37334	8536920.98405457
2.37526	8824772.008082896
2.37718	8264381.019790377
2.3791	7704378.196385679
2.38101	7319447.985502954
2.38293	8195627.838059515
2.38485	9484570.571039138
2.38677	11194965.9292925
2.3887	12311420.060570491
2.39062	13052905.332334187
2.39254	12930748.428193249
2.39446	12183877.587479677
2.39639	11030573.425886191
2.39831	10140371.20707948
2.40024	9432567.561479667
2.40216	9068058.04462135
2.40409	9110410.60770529
2.40602	9361717.506406954
2.40795	10109878.46663092
2.40989	10744178.581974676
2.41182	11231152.139645988
2.41376	11579932.780182092
2.4157	11963421.493791325
2.41764	12639956.179855887
2.41958	13111765.577791903
2.42152	13417116.09659543
2.42347	12949997.862486547
2.42542	12468631.361449735
