#wavelength	surface flux
0.676892	119447.99390390575
0.678297	122227.6987062467
0.679702	125009.89188265301
0.681109	127818.94391132204
0.682517	130689.33188106488
0.683926	133590.42823236802
0.685337	136508.41275902267
0.686749	139473.2126329263
0.688164	142465.4070724238
0.689581	145404.4474039263
0.691	147850.07812332961
0.692422	149598.22212445625
0.693847	153430.83405343018
0.695274	157688.94091461835
0.696705	161268.94295897085
0.698139	164442.30390395923
0.699576	167752.99195040978
0.701017	170982.8530509553
0.702461	173935.40845403136
0.70391	177965.0317084427
0.705362	182002.70271672198
0.706819	185410.1297505778
0.70828	188910.49277962008
0.709745	192411.6591213519
0.711216	196475.2844333489
0.71269	200229.3632191498
0.71417	203817.85438281647
0.715655	206318.86773619807
0.717145	207840.00681060067
0.71864	213139.50145397236
0.72014	217352.5518031967
0.721647	220769.5187387514
0.723158	223990.9348640584
0.724676	226847.98330271133
0.726199	230015.3909953217
0.727728	234284.59534496523
0.729264	236334.613238213
0.730805	240380.7461300529
0.732353	245938.1802806031
0.733907	249302.04955153735
0.735468	252871.00533961947
0.737035	255890.3682579968
0.738609	259714.40725396288
0.74019	262561.1470702344
0.741777	263277.88083686435
0.743372	264461.2956771169
0.744973	265311.17797909037
0.746582	264156.966423146
0.748197	261548.16020556953
0.74982	256845.42260074522
0.751451	249218.33990722118
0.753088	237569.86671964696
0.754734	221225.04096810133
0.756386	198957.59646849753
0.758047	168731.28644864523
0.759715	131359.34356802917
0.76139	87516.09154679663
0.763074	43365.94136438222
0.764765	12944.07275294373
0.766464	1921.8801857086269
0.768172	2621.8862728909
0.769887	3296.802984679022
0.77161	24281.113439995344
0.773341	74382.23301927722
0.775081	135204.6537960523
0.776829	192275.79802472313
0.778585	226020.43070795026
0.780349	248522.5143409589
0.782121	313508.8487955922
0.783902	356484.6543677313
0.785691	385879.50045164773
0.787489	410979.68606531544
0.789295	432428.04346731555
0.79111	448963.65928793355
0.792933	397860.4806368974
0.794764	234890.82655731108
0.796604	442265.21825080074
0.798453	519720.888933817
0.80031	537036.9113752326
0.802176	552328.9907940776
0.804051	566946.602274116
0.805934	581443.5382784889
0.807826	594404.8608216357
0.809727	601653.5013626553
0.811636	609200.0721937239
0.813554	620907.8281890985
0.81548	646335.0596770343
0.817416	662760.1091329815
0.81936	678173.3473868531
0.821313	691058.9837884179
0.823274	699212.8263875772
0.825244	721919.0624780334
0.827223	736798.4165858824
0.829211	746561.7613727542
0.831208	758768.6692399854
0.833213	778675.5919938497
0.835227	792690.021708162
0.837249	801690.2643135256
0.83928	819320.2984077611
0.841321	845721.5873078373
0.843369	867869.7323460066
0.845427	885754.3530339724
0.847493	904765.1915783018
0.849567	921270.392158038
0.851651	933043.9978260961
0.853742	956444.0192193468
0.855843	980652.5837177649
0.857952	1000180.1937178514
0.86007	1018650.2684194802
0.862196	1029483.397624569
0.864331	1050128.5328811884
0.866474	1072601.554677957
0.868626	1092859.2825183338
0.870786	1115851.5559442586
0.872955	1137674.5290520352
0.875132	1154005.2592664338
0.877317	1174294.7225265794
0.879511	1186272.2888166858
0.881713	1205786.3580405982
0.883923	1225669.2533099605
0.886142	1241700.6729097078
0.888369	1257859.3612590558
0.890604	1272396.0271847576
0.892847	1256816.4223768795
0.895099	1274599.3969603821
0.897358	1320562.436388102
0.899626	1372796.7726362878
0.901901	1407461.7371924995
0.904185	1446149.509621855
0.906476	1465876.224041563
0.908776	1490794.9048716063
0.911083	1529108.0252770798
0.913398	1538743.3096679084
0.915721	1549274.571456308
0.918051	1549064.8980571146
0.92039	1622323.3926266446
0.922736	1643081.1403894746
0.925089	1588160.1236508049
0.927451	1430042.686986083
0.929819	1222092.3087626728
0.932195	1382545.871041146
0.934579	1382635.4709473334
0.93697	1475983.6321160884
0.939369	1626806.0372616686
0.941774	1655667.1833234932
0.944187	1500704.9563362806
0.946607	1455451.3159883602
0.949035	1634407.0196984299
0.951469	1613993.6379218106
0.953911	1665504.5627189733
0.956359	1876290.9075769957
0.958814	1681994.4469585398
0.961277	1608770.1926672428
0.963746	1665839.4585887068
0.966222	1717308.567866353
0.968705	1727086.9154753592
0.971194	2015069.768275715
0.97369	2145224.2471850137
0.976193	2111600.3148653465
0.978702	2214211.277303577
0.981217	2253678.7636989756
0.983739	2315020.0960302884
0.986268	2358933.99662129
0.988802	2443663.6017936156
0.991343	2524671.5704188966
0.99389	2564827.501347011
0.996444	2634563.8166701123
0.999003	2684451.7293645735
1.00157	2719138.3164228564
1.00414	2766535.7486160547
1.00672	2829815.1178564564
1.0093	2883796.744860341
1.01189	2938377.9442702304
1.01448	3004030.890740197
1.01708	3053511.391314002
1.01969	3099963.8068385357
1.0223	3137849.4154534037
1.02492	3138927.6504036086
1.02754	3201051.570508609
1.03017	3175937.202677089
1.0328	3320632.916116495
1.03544	3384613.185600285
1.03808	3435901.0337918056
1.04073	3487880.6481743893
1.04339	3538707.5612686104
1.04604	3587442.113054984
1.04871	3621075.6531049563
1.05138	3663897.6149026235
1.05405	3728252.8891589525
1.05673	3787836.3947767657
1.05941	3839743.877533038
1.0621	3888471.1855780967
1.06479	3939232.3253081315
1.06749	3988167.869022179
1.07019	4022018.595818619
1.07289	4080199.8912085807
1.0756	4143026.817383089
1.07832	4188204.190674425
1.08104	4247506.328726113
1.08376	4305412.785266286
1.08649	4341925.452576072
1.08922	4347750.448748503
1.09195	4346396.762067204
1.09469	4349693.374343864
1.09743	4392006.828720527
1.10018	3882909.641310885
1.10293	3388169.4590656483
1.10568	3020254.4256032766
1.10844	3769494.7523529744
1.1112	3527019.7329518753
1.11396	3055429.8613625225
1.11673	3004849.263435424
1.1195	3084194.4419320696
1.12228	2645652.475026179
1.12505	3372624.8469490167
1.12783	3410844.7902814345
1.13062	3487665.814866297
1.13341	2319174.7109952834
1.1362	3132837.0532072387
1.13899	4059586.2028864524
1.14178	3870821.944927242
1.14458	4234850.985511538
1.14738	4558393.775463169
1.15019	3522072.8737441655
1.153	2181974.6858327417
1.1558	2606784.367399678
1.15862	2752693.0004552053
1.16143	2894519.8522361624
1.16425	3635512.0518994723
1.16707	4393718.827782336
1.16989	4018733.893797773
1.17271	4317622.726886896
1.17554	4978511.765594418
1.17837	5413359.759900979
1.1812	5573484.864162594
1.18403	5937596.182180108
1.18686	5954238.2128791455
1.1897	5992000.926140291
1.19253	6321799.487920998
1.19537	6497419.230940505
1.19822	6606268.060769884
1.20106	6733182.7319687
1.2039	6705635.825727213
1.20675	6853319.887752106
1.2096	6946166.140893926
1.21245	6984477.649135624
1.2153	7140448.950693862
1.21815	7245143.602654279
1.221	7329706.648226091
1.22385	7431310.685060216
1.22671	7537162.856167596
1.22957	7610540.4643780645
1.23242	7656303.924973251
1.23528	7744332.377653488
1.23814	7842825.752049773
1.241	7922231.1735443035
1.24387	8000908.287126872
1.24673	8070037.129132543
1.24959	8128096.490943922
1.25245	8167889.764763191
1.25532	8295408.312964543
1.25818	8387200.229911294
1.26105	8415355.61442073
1.26392	8466789.343197215
1.26678	8539143.52527837
1.26965	8582327.488214085
1.27252	8613685.399622368
1.27538	8735242.71119993
1.27825	8782457.024541589
1.28112	8760912.277826147
1.28399	8879303.060585525
1.28686	8858971.577909991
1.28973	8750849.776276859
1.2926	8713349.980809681
1.29546	8879371.046385482
1.29833	9001403.599260127
1.3012	8805009.342909554
1.30407	8814245.084166987
1.30694	8799415.034766799
1.30981	8978367.256739555
1.31267	8825829.257102486
1.31554	9164272.365506575
1.31841	9490416.097731058
1.32128	9095557.94633397
1.32414	8508371.530923728
1.32701	8373784.161781364
1.32987	7292150.74546243
1.33274	5154431.526803327
1.3356	3810942.770725859
1.33847	1630509.6866626488
1.34133	648417.31335811
1.34419	1442018.7039532063
1.34705	1933558.14449805
1.34991	1124098.4326563238
1.35277	518757.5810907483
1.35563	665275.069706571
1.35849	770910.166505054
1.36135	388984.71725201275
1.3642	812338.3139393068
1.36706	849472.3173472522
1.36991	710300.3296080461
1.37277	1797918.5815950832
1.37562	3133287.516507132
1.37847	3465701.386504179
1.38132	1441451.6968643388
1.38417	228712.9472193764
1.38701	506580.66607677203
1.38986	401057.6145513246
1.39271	473072.29988826136
1.39555	733465.3007217527
1.39839	546558.930395188
1.40123	1041625.6087252228
1.40407	1837459.8424163205
1.40691	2475828.354504156
1.40974	1368797.4379120464
1.41258	433668.7684251695
1.41541	1032147.8965640836
1.41824	1344491.188875812
1.42107	810375.4440327578
1.4239	547667.1656649145
1.42673	1171080.6180683584
1.42955	1835225.2592552893
1.43237	1178152.6582045248
1.43519	1912094.5189902275
1.43801	1398345.3856044123
1.44083	1745397.8806676352
1.44365	2695142.5999402287
1.44646	2936771.110327337
1.44927	4801419.025893593
1.45208	5772307.047332251
1.45489	4778687.2344958205
1.45769	5620111.448620641
1.4605	6181665.491745289
1.4633	6341517.170957093
1.4661	6666527.576460786
1.4689	5238484.182583092
1.47169	5468611.423529017
1.47449	5343680.689903461
1.47728	5384621.373894411
1.48007	5455508.3017312605
1.48286	7005521.909678085
1.48564	8250714.403726272
1.48842	8319194.779802351
1.4912	8484948.145732498
1.49398	8198429.592699929
1.49676	7429236.357410904
1.49953	8564317.861538589
1.5023	9707194.277722199
1.50507	9608067.11756654
1.50784	9212492.490283096
1.51061	9565330.394864254
1.51337	9988583.719723351
1.51613	10631011.602059571
1.51888	11317159.686617933
1.52164	12229947.350182744
1.52439	12773332.283256054
1.52714	12434422.990902217
1.52989	12311992.737437373
1.53263	12788736.706562059
1.53538	13316198.481294936
1.53812	13418096.225471683
1.54086	13381792.013740953
1.54359	13441424.898673635
1.54632	13848411.479844019
1.54905	13925364.646106716
1.55178	14310222.688005282
1.5545	14268449.336097164
1.55723	13997926.016075075
1.55995	14113667.003306137
1.56266	14395524.46321366
1.56538	14919311.643950557
1.56809	15205944.549259232
1.5708	15174711.835393175
1.57351	14847399.560971202
1.57621	14495911.682813384
1.57891	13738033.686133333
1.58161	14332935.463076675
1.5843	15544435.296825245
1.587	15798597.044363162
1.58969	15780546.792249838
1.59238	15711166.774867691
1.59506	15498800.389569718
1.59774	15257422.77830123
1.60042	15053805.56260983
1.6031	15119327.509265559
1.60577	15332896.417854546
1.60844	15385247.015547952
1.61111	15176074.60019599
1.61378	14869251.83612162
1.61644	14729479.162136385
1.6191	14390399.797019206
1.62176	13924405.635429073
1.62441	13645849.922301935
1.62707	13283649.657287167
1.62971	12485771.59992442
1.63236	12182690.707491307
1.635	13533469.544673549
1.63764	15391210.519186674
1.64028	15996979.869462376
1.64292	15872797.28649451
1.64555	15071721.079721173
1.64818	13582200.27016712
1.65081	13517039.837663969
1.65343	14794161.713549133
1.65605	15264240.85221225
1.65867	15420409.90995487
1.66128	15133881.051108312
1.6639	13362203.815396627
1.66651	9882060.781771839
1.66911	9630343.95544423
1.67172	12632172.329771446
1.67432	14553869.451449808
1.67692	14452435.546743881
1.67951	13637303.60135728
1.68211	13773035.86674072
1.6847	13919499.72948933
1.68728	13311839.626548132
1.68987	13025935.344253473
1.69245	12399318.03126585
1.69503	10698251.206940113
1.6976	9710076.616254002
1.70018	10739651.542163616
1.70275	10712987.412822308
1.70531	10981146.917442478
1.70788	12153299.069035571
1.71044	12137323.722672611
1.713	12762776.592235705
1.71556	13420067.06554912
1.71811	13819013.482316865
1.72066	14478142.589278914
1.72321	14358518.030777471
1.72575	14052431.561208861
1.7283	13825252.30271934
1.73084	13381480.445178317
1.73337	12816308.337873697
1.73591	12415161.889323002
1.73844	12375042.26008776
1.74097	12528292.47043821
1.74349	12052119.488226047
1.74602	11322201.14902061
1.74854	10965025.3733628
1.75105	10140459.176022515
1.75357	8893872.346113367
1.75608	9881776.44340972
1.75859	12127881.296179635
1.7611	12874727.779780528
1.7636	12352111.402680343
1.7661	10539868.679910952
1.7686	8996652.569213096
1.7711	7343445.052333023
1.77359	5495064.726746712
1.77608	3563804.36437215
1.77857	2665833.4235170116
1.78105	3202401.2133781454
1.78354	3767996.345289467
1.78602	2976560.3051831946
1.78849	2280943.468684027
1.79097	2919745.812815535
1.79344	3921002.8407721333
1.79591	4793119.161600465
1.79837	5811012.50088106
1.80084	3812820.4548800867
1.8033	1937790.7127739848
1.80576	960494.3422148647
1.80821	628079.5374278931
1.81067	1787243.9916841192
1.81312	2776338.4070795877
1.81557	1539576.2540484353
1.81801	831193.5299032333
1.82046	1953527.0593901626
1.8229	2988213.6739309262
1.82533	2058142.4035158942
1.82777	729200.9503063542
1.8302	488333.34635181207
1.83263	941240.630392275
1.83506	1553268.5582438349
1.83749	2394370.1494383984
1.83991	2837048.9098963654
1.84233	2326711.4182900083
1.84475	2181723.8964753733
1.84716	2474197.5639342708
1.84957	3022685.246297313
1.85198	2909773.626701258
1.85439	1526809.1588582927
1.8568	1112871.164699861
1.8592	1455582.1554066578
1.8616	1118999.2966274098
1.864	591486.9876353523
1.86639	538447.9075735342
1.86878	856387.6757539067
1.87118	1514916.6116334526
1.87356	2333377.6722570397
1.87595	2801119.4893316464
1.87833	4052959.2420070143
1.88071	6213037.864218161
1.88309	6094406.939643648
1.88547	4749172.21455173
1.88784	4306560.421687374
1.89021	3934652.933967248
1.89258	5951534.274762632
1.89494	7407986.094369438
1.89731	4838685.613472958
1.89967	1950425.9443284515
1.90203	702088.418944452
1.90439	661901.0724816914
1.90674	1127802.6212497351
1.90909	1238422.7028709783
1.91144	797041.9748265164
1.91379	367899.40558104496
1.91613	330715.7045069809
1.91848	600732.1711291381
1.92082	922316.2336444077
1.92315	903497.3152820424
1.92549	655531.278730939
1.92782	753856.2397019052
1.93015	1123820.8389723573
1.93248	1441238.7977402932
1.93481	1496498.0810447643
1.93713	1298885.6603266443
1.93945	1323413.8041297712
1.94177	1732404.7127790363
1.94409	2033936.2623892233
1.94641	2066826.820105646
1.94872	2480851.334095975
1.95103	3022450.8399779266
1.95334	2029250.4648137977
1.95564	1423519.981410252
1.95795	1691290.4360652969
1.96025	1777439.7964629175
1.96255	1814135.783501077
1.96484	2170320.662498669
1.96714	3104625.3113491544
1.96943	4354213.257394112
1.97172	5064398.774392542
1.97401	4649167.892019702
1.97629	4965546.614203266
1.97858	6158166.161890469
1.98086	6863582.194865722
1.98314	7620513.819144171
1.98541	8083034.654254887
1.98769	7484908.353316145
1.98996	6014957.489468156
1.99223	5781906.119398295
1.9945	6799107.082378404
1.99677	6487357.873543041
1.99903	6349351.614528257
2.00129	7575932.7018028535
2.00355	9340778.59113418
2.00581	10338100.40381295
2.00806	10642926.627843384
2.01031	12201480.896796431
2.01256	12911966.699329713
2.01481	11916642.663715255
2.01706	10753624.074493881
2.0193	10822212.180351987
2.02154	12341433.732015923
2.02378	13922486.985819481
2.02602	14246906.505369656
2.02825	14603526.098569483
2.03049	15144125.01657633
2.03272	15794951.943123568
2.03494	16411696.055491412
2.03717	16866907.232505806
2.03939	17136369.75944652
2.04162	17787283.305322044
2.04384	18424374.98417217
2.04605	19080891.082866006
2.04827	19613895.882371843
2.05048	19554008.957137384
2.05269	18785543.299838644
2.0549	18655025.587686747
2.05711	19027765.05083488
2.05931	19564274.38186071
2.06151	19970908.338673465
2.06371	20299919.215715505
2.06591	20514444.928397592
2.06811	20682607.010599073
2.0703	20781911.092809204
2.07249	20768141.01797722
2.07468	20572024.289303318
2.07686	20525139.52402489
2.07905	20649356.72040106
2.08123	20784213.439540207
2.08341	20853842.876918305
2.08559	20878276.846907184
2.08776	20943725.20023988
2.08994	20906679.424603097
2.09211	20772585.149655554
2.09428	20617695.331055205
2.09645	20643596.974895786
2.09861	20634073.093396015
2.10077	20564825.87748514
2.10293	20445449.77193473
2.10509	20292658.708800733
2.10725	20141472.22641336
2.1094	20254717.591705922
2.11155	20351560.63065016
2.1137	20293628.571843196
2.11585	19954218.413229667
2.11799	19705266.483050164
2.12013	19597644.288336705
2.12227	19612028.03117496
2.12441	19715695.705315296
2.12655	19788984.29107305
2.12868	19782745.9692505
2.13081	19790094.889790297
2.13294	19797534.6846077
2.13507	19575443.18639447
2.13719	19155663.327371933
2.13931	18794150.212676577
2.14143	18475346.58574312
2.14355	17968252.49602242
2.14567	17707993.16006228
2.14778	17508754.844687924
2.14989	17269471.034695752
2.152	16808746.28705709
2.1541	16950328.289273236
2.15621	17136936.098516215
2.15831	17142549.6939206
2.16041	16532557.730046814
2.16251	16249183.804357516
2.1646	16081507.975902928
2.1667	16006608.616135081
2.16879	16168139.817174053
2.17087	16325650.563923877
2.17296	16410904.220476238
2.17504	16385701.955927975
2.17713	16212377.237253146
2.1792	15906064.83049458
2.18128	15496895.43193293
2.18336	15003423.363526057
2.18543	14459501.825427368
2.1875	13880545.369682519
2.18957	13183119.330257492
2.19163	12004988.50060886
2.1937	10225424.217880363
2.19576	8349759.413541177
2.19782	6598524.434426808
2.19987	5658056.030264021
2.20193	5130645.750175322
2.20398	4950596.802941358
2.20603	5012462.220289228
2.20808	5351574.443089914
2.21012	5826370.907152189
2.21217	6400985.054650658
2.21421	6690761.285063647
2.21625	6663043.846630286
2.21828	6358526.358674483
2.22032	6200362.809107561
2.22235	6068095.619542026
2.22438	5842464.590192712
2.22641	5230622.853936531
2.22843	4554168.391910228
2.23046	3969744.4741939157
2.23248	3615104.5854109866
2.2345	3509986.5732548446
2.23651	3430395.487470241
2.23853	3343517.77931574
2.24054	3015101.0315024084
2.24255	2645483.760330833
2.24456	2269748.8040726255
2.24657	2338154.579916243
2.24857	2618171.889095829
2.25057	3008791.462312691
2.25257	3152516.110312774
2.25457	3280195.082830531
2.25656	3398078.2014112077
2.25856	3514681.7421962894
2.26055	3327778.4030430806
2.26254	2982854.3565379092
2.26453	2565332.636454917
2.26651	2317264.277620201
2.2685	2213112.2821948733
2.27048	2392357.820859515
2.27246	2662215.796709989
2.27443	2915620.703089872
2.27641	2953049.190142895
2.27838	2830073.0149679775
2.28036	2642170.32954881
2.28233	2499939.2115330407
2.28429	2377403.8674917053
2.28626	2259714.8845126107
2.28823	2114112.275640117
2.29019	2040889.735594553
2.29215	2022707.4015477712
2.29411	2113285.478799685
2.29607	2205240.005360095
2.29802	2297995.7388274744
2.29998	2416831.3105656956
2.30193	2638988.3642223766
2.30388	2979920.0302857454
2.30583	3595469.933235394
2.30778	4211065.981365283
2.30972	4781864.345324408
2.31167	4734626.073812446
2.31361	4305939.918903721
2.31555	3175877.6326748244
2.31749	2271946.8843698106
2.31943	1560332.7149891779
2.32137	1493752.7437043372
2.32331	1475216.8280642275
2.32524	1494836.559354248
2.32718	1464541.058024479
2.32911	1452453.597053502
2.33104	1467543.4966217997
2.33297	1463558.0147919524
2.3349	1450910.6238945394
2.33683	1424027.0007163922
2.33876	1393102.6983956476
2.34068	1356943.9347016811
2.34261	1270753.227590844
2.34453	1190179.0132805463
2.34646	1115074.8884295907
2.34838	1171482.6653966676
2.3503	1301528.9176403636
2.35223	1580848.0213035648
2.35415	1855717.9671272507
2.35607	2123895.8185169618
2.35799	2313682.979172036
2.35991	2500677.277402667
2.36183	2684300.8796037557
2.36375	2598711.7604498127
2.36566	2371162.97382155
2.36758	1821308.2141845012
2.3695	1362676.0592796402
2.37142	962519.9330493364
2.37334	993749.5155387539
2.37526	1055251.050785809
2.37718	1163441.5674289146
2.3791	1267254.8804982794
2.38101	1381654.3110075337
2.38293	1589009.8528449778
2.38485	1796663.0227247558
2.38677	2004620.0865003425
2.3887	2005234.351658101
2.39062	1969805.2349029512
2.39254	1918379.4020941365
2.39446	1934957.2016492928
2.39639	1995440.4579804589
2.39831	2075888.2213040516
2.40024	2108546.821384912
2.40216	2050034.448685018
2.40409	2084321.9674350298
2.40602	2179869.2307073493
2.40795	2550751.308870503
2.40989	2878213.8611172223
2.41182	3148511.449854829
2.41376	3284992.491996898
2.4157	3425669.552809042
2.41764	3719979.5255763195
2.41958	3907930.0723050702
2.42152	4009401.4595445734
