#wavelength	surface flux
0.8	15835578.296183262
0.8002000000000001	15921410.391812155
0.8004000500000003	15995461.263386529
0.8006001500125003	16069411.428968867
0.8008003000500035	16143380.082092606
0.8010005001250161	16217367.22737966
0.8012007502500472	16291372.869452927
0.8014010504376099	16365233.778462728
0.8016014007002193	16439058.47413791
0.8018018010503944	16512901.62598701
0.8020022515006572	16586763.238624107
0.8022027520635323	16660643.316664299
0.8024033027515483	16732147.38098862
0.8026039035772362	16801322.820588376
0.8028045545531306	16870515.554048035
0.8030052556917691	16939725.585691094
0.803206007005692	17008952.919842005
0.8034068085074435	17077099.7145767
0.8036076602095705	17142186.121934887
0.8038085621246229	17207288.800894864
0.8040095142651542	17272407.75552462
0.8042105166437206	17337542.98989301
0.8044115692728815	17402284.9145238
0.8046126721651998	17449425.684562426
0.8048138253332411	17496578.239793524
0.8050150287895745	17543742.583163474
0.805216282546772	17590918.71761925
0.8054175866174087	17638106.64610862
0.8056189410140631	17691144.600763824
0.8058203457493168	17745848.41242547
0.8060218008357541	17800565.900039963
0.8062233062859632	17855297.067026384
0.8064248621125346	17910041.916804515
0.806626468328063	17967804.495337807
0.8068281249451449	18028161.62364814
0.8070298319763813	18088533.841240626
0.8072315894343755	18148921.151887465
0.8074333973317341	18209323.55936199
0.8076352556810671	18265575.750403106
0.8078371644949874	18311815.390857134
0.8080391237861113	18358066.591221288
0.8082411335670578	18404329.354385506
0.8084431938504498	18450603.68324056
0.8086453046489125	18496745.051816504
0.8088474659750746	18540207.087273255
0.8090496778415686	18583679.988238927
0.809251940261029	18627163.757429812
0.8094542532460944	18670658.39756303
0.8096566168094059	18714163.91135623
0.8098590309636085	18757100.443234883
0.8100614957213493	18799911.988678277
0.8102640110952797	18842734.237008035
0.8104665770980536	18885567.19089989
0.8106691937423283	18928410.85303024
0.8108718610407639	18973751.155256975
0.8110745790060241	19021003.65212653
0.8112773476507757	19068267.962120343
0.8114801669876885	19115544.088191643
0.8116830370294355	19162832.033294432
0.8118859577886929	19210541.057835184
0.8120889292781401	19259112.05525512
0.8122919515104597	19307695.195424408
0.8124950244983374	19356290.48137874
0.8126981482544621	19404897.916154556
0.8129013227915257	19453725.13453036
0.8131045481222237	19504941.974892385
0.8133078242592543	19556171.619464505
0.8135111512153191	19607414.071447752
0.813714529003123	19658669.334044002
0.8139179576353739	19709937.41045591
0.8141214371247829	19784052.717661448
0.8143249674840641	19862614.530595347
0.814528548725935	19941195.983982433
0.8147321808631167	20019797.082732968
0.8149358639083326	20098417.83175817
0.8151395978743097	20153835.534384187
0.8153433827737784	20193576.85990361
0.8155472186194719	20233328.1207544
0.8157511054241268	20273089.319420394
0.815955043200483	20312860.458386082
0.8161590319612831	20327929.952474646
0.8163630717192736	20297722.241764843
0.8165671624872033	20267506.979127396
0.8167713042778252	20237284.16267426
0.8169754971038948	20207053.790517
0.8171797409781707	20142612.06457169
0.8173840359134155	19805094.729935102
0.8175883819223938	19467493.015965242
0.8177927790178745	19129806.901566695
0.8179972272126291	18792036.36563946
0.8182017265194322	18454181.387078587
0.8184062769510622	18363442.552803658
0.8186108785203001	18310721.54864341
0.8188155312399301	18257987.364232197
0.8190202351227402	18205239.996274818
0.819224990181521	18152479.441475485
0.8194297964290664	18469714.90370404
0.8196346538781738	19010052.068092983
0.8198395625416434	19550524.316772807
0.8200445224322789	20091131.68351503
0.820249533562887	20631874.202098776
0.8204545959462778	21007446.376859665
0.8206597095952644	21117057.657673325
0.8208648745226633	21226696.34130728
0.8210700907412941	21336362.434612118
0.8212753582639793	21446055.944440175
0.8214806771035456	21543741.08451896
0.8216860472728215	21567295.49646937
0.8218914687846397	21590855.79702277
0.822096941651836	21614421.98765132
0.822302465887249	21637994.069827512
0.8225080415037209	21661572.04502426
0.8227136685140968	21721185.59099158
0.8229193469312254	21784904.161619414
0.8231250767679583	21848638.661889926
0.8233308580371503	21912389.09578547
0.8235366907516598	21976155.467289533
0.8237425749243477	22040400.414011788
0.8239485105680789	22104906.625925083
0.824154497695721	22169428.964391317
0.824360536320145	22233967.43344218
0.8245666264542252	22298522.0371103
0.8247727681108388	22355326.503379207
0.8249789613028664	22401022.401748642
0.8251852060431922	22446729.724092714
0.825391502344703	22492448.47326735
0.8255978502202894	22538178.652129322
0.8258042496828445	22583240.06735401
0.8260107007452654	22625009.32727279
0.8262172034204517	22666789.029506512
0.8264237577213068	22708579.176665805
0.8266303636607373	22750379.771361902
0.8268370212516525	22792190.816206653
0.8270437305069654	22820018.445829358
0.8272504914395923	22846759.502524782
0.8274573040624523	22873507.244484387
0.8276641683884679	22900261.67337946
0.8278710844305652	22927022.790881786
0.8280780522016729	22966835.00459508
0.8282850717147234	23012619.745157067
0.8284921429826521	23058415.93190415
0.8286992660183978	23104223.567697953
0.8289064408349024	23150042.655400675
0.8291136674451112	23192570.406854816
0.8293209458619727	23230944.136270694
0.8295282760984382	23269327.459118877
0.829735658167463	23307720.377797816
0.8299430920820048	23346122.894706376
0.8301505778550254	23384500.380534247
0.8303581154994891	23422749.235437635
0.8305657050283641	23461007.652554788
0.8307733464546212	23499275.634276193
0.8309810397912352	23537553.182993088
0.8311887850511829	23575840.301097088
0.8313965822474458	23633954.62259356
0.8316044313930077	23693003.313783813
0.8318123325008561	23752066.767146923
0.8320202855839813	23811144.98637334
0.8322282906553774	23870237.97515457
0.8324363477280413	23913260.904983304
0.8326444568149735	23949818.893846016
0.8328526179291771	23986386.022205897
0.8330608310836596	24022962.292347927
0.8332690962914304	24059547.70655744
0.8334774135655034	24093668.310312487
0.833685782918895	24125033.953220934
0.8338942043646247	24156407.43754009
0.834102677915716	24187788.765230346
0.834311203585195	24219177.938252505
0.8345197813860912	24256445.297340997
0.8347284113314379	24313482.08255039
0.8349370934342709	24370533.126956057
0.8351458277076294	24427598.434122752
0.8353546141645565	24484678.007616337
0.8355634528180977	24541771.85100327
0.8357723436813022	24542038.406802844
0.8359812867672226	24541603.180795446
0.8361902820889144	24541167.845981542
0.8363993296594368	24540732.402333938
0.8366084294918518	24540296.84982542
0.8368175815992247	24579082.575446505
0.8370267859946247	24631386.24603679
0.8372360426911234	24683702.992544707
0.8374453517017962	24736032.81823924
0.8376547130397217	24788375.726390198
0.8378641267179816	24832372.35450182
0.8380735927496613	24868085.31790598
0.8382831111478488	24903807.209550977
0.8384926819256358	24939538.03166886
0.8387023050961173	24975277.786492307
0.8389119806723914	25010720.405114308
0.8391217086675596	25045310.50019079
0.8393314890947265	25079909.24279102
0.8395413219670003	25114516.6350769
0.8397512072974922	25149132.679210875
0.8399611450993165	25184225.9258418
0.8401711353855914	25242595.89614695
0.8403811781694378	25300980.45894466
0.8405912734639802	25359379.617883082
0.8408014212823464	25417793.376611266
0.8410116216376671	25476221.738779128
0.8412218745430766	25531665.78348941
0.8414321800117124	25586251.117891837
0.8416425380567154	25640850.098627895
0.8418529486912297	25695462.729109146
0.8420634119284025	25750089.012747973
0.8422739277813847	25797748.683802508
0.8424844962633302	25839270.3817886
0.842695117387396	25880802.46019914
0.8429057911667428	25922344.921629284
0.8431165176145345	25963897.768674802
0.8433272967439382	26001730.354215473
0.8435381285681244	26030472.308733992
0.8437490131002665	26059221.448741134
0.8439599503535415	26087977.77603326
0.84417094034113	26116741.29240723
0.8443819830762154	26145747.582945935
0.8445930785719846	26179506.97048617
0.8448042268416277	26213274.797873273
0.8450154278983382	26247051.06721722
0.8452266817553128	26280835.7806285
0.8454379884257517	26314628.940218132
0.8456493479228583	26360050.276730202
0.845860760259839	26408281.138882175
0.846072225449904	26456524.05874969
0.8462837435062666	26504779.03934718
0.8464953144421433	26553046.083689846
0.8467069382707537	26594186.73380526
0.8469186150053215	26629773.45797776
0.847130344659073	26665369.078831315
0.8473421272452377	26700973.598590046
0.8475539627770492	26736587.019478753
0.8477658512677435	26771507.607155338
0.8479777927305605	26804946.87978426
0.8481897871787432	26838394.51223133
0.848401834625538	26871850.506586533
0.8486139350841944	26905314.864940304
0.8488260885679657	26937128.721879542
0.8490382950901076	26948729.526307862
0.8492505546638802	26960333.230937295
0.8494628673025462	26971939.83649288
0.8496752330193721	26983549.343699872
0.8498876518276269	26995161.75328365
0.8501001237405839	26855423.176128194
0.8503126487715191	26685436.76971209
0.850525226933712	26515407.866694476
0.8507378582404455	26345336.45645111
0.8509505427050057	26175222.528355084
0.8511632803406821	26046027.960888945
0.8513760711607672	25944852.488013588
0.8515889151785576	25843651.721269853
0.8518018124073523	25742425.654334515
0.8520147628604541	25641174.280882508
0.8522277665511693	25660234.267211635
0.8524408234928071	25901847.148620162
0.8526539336986805	26143520.433249105
0.8528670971821053	26385254.13619922
0.8530803139564007	26627048.27257479
0.8532935840348901	26864359.9625205
0.8535069074308987	27063363.910990536
0.8537202841577566	27262417.610447858
0.8539337142287962	27461521.073330067
0.8541471976573534	27660674.312077872
0.8543607344567677	27859877.3391354
0.8545743246403821	27942782.926964797
0.8547879682215422	28007231.969699007
0.8550016652135977	28071697.124693893
0.8552154156299011	28136178.39597753
0.8554292194838088	28200675.787579034
0.8556430767886797	28250792.544404265
0.855856987557877	28292180.498519506
0.8560709518047664	28333578.79962325
0.8562849695427177	28374987.450302288
0.8564990407851035	28416406.453144003
0.8567131655452999	28456882.46045973
0.8569273438366862	28495806.49053291
0.8571415756726455	28534740.25161361
0.8573558610665638	28573683.746134598
0.8575702000318304	28612636.976529174
0.8577845925818384	28653579.314052556
0.857999038729984	28706895.754023146
0.8582135384896665	28760225.523103718
0.858428091874289	28813568.624626562
0.8586426988972576	28866925.061924774
0.8588573595719821	28920294.83833233
0.8590720739118751	28949124.7221525
0.8592868419303532	28975066.91366861
0.8595016636408359	29001015.5907326
0.8597165390567462	29026970.75496585
0.8599314681915105	29052932.407990165
0.8601464510585584	29025022.40674511
0.860361487671323	28968507.284907196
0.8605765780432408	28911978.034288842
0.8607917221877518	28855434.651357785
0.8610069201182988	28798877.13258101
0.8612221718483286	28398033.30124788
0.8614374773912907	27500774.330932982
0.8616528367606385	26603291.045875747
0.8618682499698288	25705583.389996685
0.8620837170323213	24807651.3072038
0.8622992379615795	24038785.111461412
0.8625148127710699	23909535.20710955
0.8627304414742627	23780252.990281582
0.8629461240846313	23650938.452899393
0.8631618606156526	23521591.586882845
0.8633776510808066	23392212.384149816
0.8635934954935769	24248623.296460792
0.8638093938674504	25186057.961527146
0.8640253462159173	26123726.985259734
0.8642413525524714	27061630.426248234
0.8644574128906095	27999768.343096785
0.8646735272438323	28036039.95535762
0.8648896956256433	27652818.749327768
0.8651059180495498	27269501.73799639
0.8653221945290621	26886088.897412546
0.8655385250776946	26502580.203618016
0.8657549097089641	26427934.82254331
0.8659713484363913	26748806.46025482
0.8661878412735006	27069758.315875903
0.866404388233819	27390790.409460854
0.8666209893308775	27711902.76106905
0.8668376445782103	27977596.71273225
0.8670543539893549	28016838.80945595
0.8672711175778525	28056090.71670386
0.8674879353572469	28095352.436928533
0.8677048073410862	28134623.97258328
0.8679217335429217	28173905.326121964
0.8681387139763074	28298478.609231014
0.8683557486548015	28427319.63357218
0.8685728375919655	28556192.86816959
0.8687899808013633	28685098.32107537
0.8690071782965637	28814036.00034454
0.869224430091138	28761239.459093954
0.8694417361986609	28634469.177972164
0.8696590966327107	28507667.204280123
0.869876511406869	28380833.530094653
0.8700939805347206	28253968.1474907
0.8703115040298544	28158727.60376855
0.870529081905862	28099655.850435816
0.8707467141763385	28040569.32916477
0.8709644008548827	27981468.036263406
0.8711821419550964	27922351.968038857
0.8713999374905854	27902485.376796655
0.871617787474958	28018128.389529347
0.8718356919218269	28133800.313015327
0.8720536508448075	28249501.154482186
0.8722716642575187	28365230.921159346
0.8724897321735832	28480989.620278224
0.8727078546066265	28596872.596370414
0.8729260315702784	28712785.99359985
0.873144263078171	28828728.36917847
0.8733625491439405	28944699.730351
0.8735808897812266	29060700.084363867
0.8737992850036719	29088232.87758293
0.874017734824923	29084428.52726454
0.8742362392586293	29080623.22585857
0.874454798318444	29076816.97312725
0.8746734120180236	29073009.768832747
0.8748920803710283	29090106.167928312
0.875110803391121	29128213.92716407
0.8753295810919689	29166331.21333966
0.875548413487242	29204458.02883679
0.8757673005906139	29242594.376037803
0.8759862424157616	29333532.69553069
0.8762052389763657	29577251.160968333
0.8764242902861098	29821030.556022163
0.8766433963586814	30064870.89592483
0.8768625572077712	30308772.19591254
0.8770817728470732	30550562.25915072
0.8773010432902849	30622811.932129547
0.8775203685511077	30695079.66752672
0.8777397486432454	30767365.46985765
0.8779591835804065	30839669.343639255
0.8781786733763015	30911991.29338921
0.8783982180446457	30681161.95308182
0.878617817599157	30360087.684371922
0.8788374720535569	30038933.147095
0.8790571814215703	29717698.321183834
0.8792769457169257	29396383.186566185
0.879496764953355	29229893.49421867
0.8797166391445934	29202632.642019443
0.8799365683043796	29175364.974607166
0.8801565524464557	29148090.490278035
0.8803765915845676	29120809.187327795
0.8805966857324639	29158638.37679678
0.880816834903897	29360032.191807576
0.881037039112623	29561476.355272204
0.8812572983724012	29762970.879777677
0.8814776126969944	29964515.777914368
0.8816979821001687	30163759.36655955
0.8819184065956938	30307693.453113526
0.8821388861973429	30451663.523189295
0.8823594209188923	30595669.58578244
0.882580010774122	30739711.649891168
0.8828006557768155	30883789.724516004
0.8830213559407598	31115594.900970407
0.8832421112797452	31369513.22604755
0.8834629218075651	31623495.03070581
0.8836837875380171	31877540.330815308
0.8839047084849018	32131649.142249875
0.884125684662023	32026380.03550985
0.8843467160831886	31633038.198978502
0.8845678027622095	31239598.026988022
0.8847889447129001	30846059.49495447
0.8850101419490785	30452422.57828798
0.8852313944845657	30353039.357206177
0.885452702333187	30897931.945273988
0.8856740655087704	31442960.756488733
0.8858954840251476	31988125.824906137
0.8861169578961539	32533427.18459039
0.886338487135628	33017023.252133105
0.886560071757412	32677788.65608249
0.8867817117753515	32338469.251382865
0.8870034072032955	31999065.016831916
0.8872251580550963	31659575.931222726
0.8874469643446101	31320001.973341927
0.8876688260856963	31453053.973151527
0.8878907432922178	31683972.80475609
0.8881127159780409	31914949.366068404
0.8883347441570356	32145983.67152133
0.8885568278430749	32377075.735550374
0.8887789670500358	32409879.706263307
0.8890011617917983	32301990.54787356
0.8892234120822464	32194074.41719417
0.8894457179352669	32086131.30748219
0.8896680793647509	31978161.211992703
0.8898904963845921	31903401.045079652
0.8901129690086883	31892039.108476084
0.8903354972509405	31880674.331388365
0.8905580811252535	31869306.713106368
0.8907807206455347	31857936.25291981
0.8910034158256963	31833278.732121114
0.8912261666796527	31689894.47069681
0.8914489732213227	31546474.36320711
0.8916718354646282	31403018.400690395
0.8918947534234944	31259526.574183192
0.8921177271118502	31115998.874719452
0.8923407565436284	31068682.553846136
0.8925638417327644	31037054.949168984
0.8927869826931977	31005419.437590647
0.8930101794388711	30973776.01713442
0.8932334319837308	30942124.685823087
0.8934567403417267	31059738.918196607
0.8936801045268123	31270138.448050752
0.8939035245529441	31480590.57778722
0.8941270004340824	31691095.32055621
0.894350532184191	31901652.68951083
0.8945741198172371	32159668.718312785
0.8947977633471915	32496366.481363248
0.8950214627880284	32833148.41885446
0.8952452181537254	33170014.551829845
0.8954690294582639	33506964.901338674
0.8956928967156286	33807411.78693726
0.8959168199398075	33870492.63511443
0.8961407991447926	33933589.25350366
0.8963648343445789	33996701.64604748
0.896588925553165	34059829.81668941
0.8968130727845534	34122973.769374
0.8970372760527496	34179292.37775657
0.8972615353717629	34234769.1026242
0.8974858507556059	34290259.69667305
0.8977102222182949	34345764.16337039
0.8979346497738496	34401282.506184444
0.8981591334362931	34478247.05965796
0.8983836732196523	34566951.692184076
0.8986082691379572	34655678.50086827
0.8988329212052417	34744427.491254635
0.8990576294355432	34833198.668888666
0.8992823938429022	34829454.06228261
0.8995072144413631	34688116.30745006
0.8997320912449734	34546743.21817886
0.8999570242677847	34405334.785635374
0.9001820135238516	34263891.000983745
0.9004070590272328	34163291.83720896
0.9006321607919896	34276974.3351054
0.9008573188321878	34390685.25362642
0.9010825331618959	34504424.59987702
0.9013078037951865	34618192.38096421
0.9015331307461353	34731988.603996605
0.9017585140288219	34901516.00208994
0.9019839536573292	35075883.60220493
0.9022094496457435	35250294.79421982
0.9024350020081551	35424749.58903291
0.9026606107586572	35599247.997544646
0.902886275911347	35714829.35003518
0.9031119974803249	35802016.44576041
0.9033377754796951	35889225.338259555
0.903563609923565	35976456.0329818
0.903789500826046	36063708.53537777
0.9040154482012526	36070493.93029153
0.904241452063303	35973014.652772725
0.9044675124263188	35875511.00543456
0.9046936293044254	35777982.98218457
0.9049198027117517	35680430.57692872
0.9051460326624297	35621344.87560816
0.9053723191705955	35726148.42716639
0.9055986622503881	35830978.1796124
0.9058250619159507	35935834.13949653
0.9060515181814298	36040716.3133707
0.9062780310609752	36145624.70778826
0.9065046005687405	36220536.89529901
0.906731226718883	36293792.94802539
0.9069579095255627	36367067.31476486
0.907184649002944	36440360.000096016
0.907411445165195	36513671.00859858
0.9076382980264862	36547863.009000674
0.907865207600993	36565809.89430913
0.9080921739028933	36583761.266338915
0.9083191969463691	36601717.126211695
0.9085462767456058	36619677.47504946
0.9087734133147922	36676422.73140933
0.9090006066681211	36777974.03691311
0.909227856819788	36879550.730243124
0.9094551637839932	36981152.81774662
0.9096825275749393	37082780.30577195
0.9099099482068329	37165093.73881956
0.9101374256938848	37178694.96747302
0.9103649600503083	37192299.59643364
0.9105925512903209	37205907.6265515
0.9108201994281437	37219519.0586769
0.9110479044780008	37233133.893660314
0.9112756664541204	37302043.16933114
0.911503485370734	37372235.274409756
0.9117313612420768	37442444.92751464
0.9119592940823873	37512672.133032784
0.912187283905908	37582916.89535233
0.9124153307268845	37589034.31107342
0.9126434345595664	37571872.403991565
0.9128715954182063	37554706.20643295
0.9130998133170609	37537535.71732494
0.9133280882703902	37520360.935594656
0.913556420292458	37500097.88531524
0.9137848093975312	37476649.22047053
0.9140132555998806	37453194.69345962
