#wavelength	surface flux
0.676892	400657.6342698327
0.678297	410297.090316306
0.679702	419265.53489242366
0.681109	428201.08032131684
0.682517	438002.6007576936
0.683926	447688.55447626946
0.685337	456985.68872970226
0.686749	466341.1651560901
0.688164	475618.59547947
0.689581	484405.80747410667
0.691	490453.1650307927
0.692422	495089.79479513125
0.693847	507996.46264321066
0.695274	522074.84692486067
0.696705	533201.9901553955
0.698139	542652.3034424575
0.699576	552440.6079226683
0.701017	561856.5486752543
0.702461	570004.4110333347
0.70391	581801.6137869795
0.705362	593650.1512004079
0.706819	603006.4439946652
0.70828	612585.4344681324
0.709745	622057.4277642996
0.711216	633361.4023473171
0.71269	643191.1333207788
0.71417	652112.9521322448
0.715655	656746.78679764
0.717145	657911.3189452896
0.71864	672467.3025957159
0.72014	682626.4574995155
0.721647	689940.5191022255
0.723158	696823.7623219709
0.724676	701742.5831500221
0.726199	707103.0992318793
0.727728	715876.1307568318
0.729264	716312.2262741401
0.730805	722400.5684971649
0.732353	732483.4215430937
0.733907	735055.5833300994
0.735468	737464.6528500223
0.737035	737063.2920255933
0.738609	738399.1813782356
0.74019	735005.5898929462
0.741777	723630.480217843
0.743372	711942.6347116648
0.744973	697446.7649301641
0.746582	675259.2997944291
0.748197	646801.5630956307
0.74982	610745.3376148522
0.751451	565662.8276491689
0.753088	510156.26863082405
0.754734	444804.5517761141
0.756386	370189.61852615146
0.758047	287605.9343231904
0.759715	204047.94629794665
0.76139	123932.36213330747
0.763074	57649.454989004866
0.764765	16773.648983633302
0.766464	2496.413845569929
0.768172	3427.8250865397613
0.769887	4264.365040819435
0.77161	31724.906669665877
0.773341	101360.93690565655
0.775081	200926.53927231496
0.776829	312146.14312644786
0.778585	384646.43631108326
0.780349	441640.6151777157
0.782121	632191.228307806
0.783902	773722.9602398404
0.785691	879022.473437229
0.787489	972237.1558519582
0.789295	1054162.0813570572
0.79111	1116115.3409884057
0.792933	939461.3219585165
0.794764	510243.51288515725
0.796604	1139262.6527139025
0.798453	1384435.1127253803
0.80031	1451454.3367795388
0.802176	1507585.0033732548
0.804051	1559437.9102126614
0.805934	1608412.6713387563
0.807826	1651542.0059490094
0.809727	1675095.3059405775
0.811636	1701035.0526068676
0.813554	1739974.684058214
0.81548	1819397.37545863
0.817416	1863722.863102717
0.81936	1904003.765252406
0.821313	1954787.232637281
0.823274	1979627.2297257571
0.825244	2048846.0948740523
0.827223	2091294.5297311335
0.829211	2117598.757030568
0.831208	2153678.2322236723
0.833213	2210131.1183086447
0.835227	2247920.4268965586
0.837249	2270662.223308131
0.83928	2318545.166919085
0.841321	2395314.3125286405
0.843369	2457814.9210995818
0.845427	2506325.183536087
0.847493	2558405.390059268
0.849567	2591420.4355548583
0.851651	2586651.3582503772
0.853742	2672018.148043047
0.855843	2762287.016731931
0.857952	2817232.1183322174
0.86007	2861306.9337404734
0.862196	2816789.6728690206
0.864331	2883492.0689540463
0.866474	2959884.1250833245
0.868626	3024269.1334525677
0.870786	3078952.2904649833
0.872955	3135876.6869371654
0.875132	3178052.1445089565
0.877317	3238473.2316532824
0.879511	3246460.2413130454
0.881713	3303075.8869683375
0.883923	3373183.44808116
0.886142	3410764.0565783484
0.888369	3446661.960699241
0.890604	3459277.9347463595
0.892847	3372517.0531041017
0.895099	3437758.801426748
0.897358	3584517.9077250967
0.899626	3721483.5528250807
0.901901	3816872.6052036323
0.904185	3922192.3763253586
0.906476	3972545.49094476
0.908776	4035582.6102832346
0.911083	4131195.871118088
0.913398	4140610.7326473524
0.915721	4146936.484762878
0.918051	4132472.535207629
0.92039	4330785.115162685
0.922736	4372735.222416407
0.925089	4168488.497810275
0.927451	3660686.691158313
0.929819	3087190.8764258036
0.932195	3557795.0112670567
0.934579	3542849.011693185
0.93697	3789484.798493724
0.939369	4189302.1638872763
0.941774	4265394.896458895
0.944187	3839244.911768132
0.946607	3713034.3066792
0.949035	4170728.7644414497
0.951469	4089257.621458406
0.953911	4243184.297525378
0.956359	4773308.331460728
0.958814	4213231.424568936
0.961277	3979697.4337567617
0.963746	4097771.269037865
0.966222	4219727.0015460765
0.968705	4200351.698173849
0.971194	4983852.352251715
0.97369	5375620.670804898
0.976193	5258295.177720005
0.978702	5519903.869962084
0.981217	5613920.227707113
0.983739	5753200.796970552
0.986268	5856008.331046061
0.988802	6069024.554809511
0.991343	6275540.5211544465
0.99389	6356451.960366743
0.996444	6530755.120818193
0.999003	6624919.425080641
1.00157	6682832.942280106
1.00414	6794075.811358359
1.00672	6961735.349208644
1.0093	7093128.117842002
1.01189	7232426.056592253
1.01448	7407597.715821896
1.01708	7520171.610001005
1.01969	7630045.937143205
1.0223	7692638.305414485
1.02492	7654206.579983089
1.02754	7805646.391801811
1.03017	7711251.689688
1.0328	8105755.165693646
1.03544	8254509.361847835
1.03808	8364902.692631702
1.04073	8475484.171610452
1.04339	8581888.666855345
1.04604	8684455.965638014
1.04871	8737207.250405574
1.05138	8816935.174280709
1.05405	8973694.046212904
1.05673	9106948.717917537
1.05941	9214637.399576185
1.0621	9311734.802432694
1.06479	9414185.373543587
1.06749	9515163.385820244
1.07019	9564549.626817416
1.07289	9690942.520032791
1.0756	9826212.11495558
1.07832	9906163.491665857
1.08104	10032342.902876187
1.08376	10147032.635436371
1.08649	10201662.38335909
1.08922	10146629.042768482
1.09195	10051044.524099743
1.09469	10002863.7596514
1.09743	10091594.348976687
1.10018	8625859.589962397
1.10293	7267515.169083852
1.10568	6389049.8326339545
1.10844	8234993.45603774
1.1112	7562378.374537184
1.11396	6593859.4148138305
1.11673	6549767.840343176
1.1195	6697729.458532594
1.12228	5782920.245467703
1.12505	7419328.310113963
1.12783	7476476.958542611
1.13062	7493975.355811041
1.13341	4857423.584904926
1.1362	6649798.603526975
1.13899	8761701.891281929
1.14178	8333781.588576433
1.14458	9097334.166205706
1.14738	9905999.19714158
1.15019	7642291.246556573
1.153	4652344.669893635
1.1558	5555981.915640039
1.15862	5795234.643498771
1.16143	5995240.001076359
1.16425	7584239.337140089
1.16707	9239232.86672435
1.16989	8268358.586579763
1.17271	8830932.967138184
1.17554	10325651.139549362
1.17837	11365578.192735502
1.1812	11779704.188373713
1.18403	12740136.387016917
1.18686	12673040.80929093
1.1897	12680204.194565726
1.19253	13560298.15629648
1.19537	13983526.744868938
1.19822	14190351.819119588
1.20106	14507160.763517551
1.2039	14333587.522411339
1.20675	14661520.270969853
1.2096	14838490.675272321
1.21245	14881101.529187402
1.2153	15302604.179788336
1.21815	15536372.769735146
1.221	15714656.538404599
1.22385	15930728.39661108
1.22671	16157003.435061324
1.22957	16302228.387173282
1.23242	16374095.872522485
1.23528	16559202.581806725
1.23814	16761129.334347766
1.241	16898427.826855972
1.24387	17036945.94817467
1.24673	17172035.84683851
1.24959	17196659.7045867
1.25245	17007525.407232508
1.25532	17506142.801406823
1.25818	17748345.94830703
1.26105	17752111.507285573
1.26392	17806308.518111654
1.26678	17930538.22559562
1.26965	17992844.78977281
1.27252	17993480.35715449
1.27538	18256643.721034717
1.27825	18322160.336785156
1.28112	18199564.015848957
1.28399	18441288.324858103
1.28686	18359339.280604906
1.28973	18013120.65094418
1.2926	17863473.615461215
1.29546	18245377.134819616
1.29833	18494794.90694999
1.3012	17961196.095949918
1.30407	17917722.614780065
1.30694	17838432.484992843
1.30981	18305608.33705967
1.31267	17957021.471446984
1.31554	18628026.80401979
1.31841	19225756.604312904
1.32128	18298175.286504455
1.32414	16804471.202234928
1.32701	16262186.312501606
1.32987	14156492.097993273
1.33274	9093681.952024745
1.3356	6244865.370059318
1.33847	2582658.62028892
1.34133	1058937.662840665
1.34419	2362229.784992686
1.34705	3194367.870118712
1.34991	1941826.221288669
1.35277	955929.9679983284
1.35563	1154583.1008483395
1.35849	1373589.675805032
1.36135	748587.4762705838
1.3642	1496607.3673586915
1.36706	1581332.5671345156
1.36991	1337065.8672475384
1.37277	3178650.249828078
1.37562	5453081.618467548
1.37847	6093199.386867143
1.38132	2587599.6373774046
1.38417	458641.8893377305
1.38701	943789.5174521252
1.38986	753414.9626177498
1.39271	882429.9899722163
1.39555	1326724.011358731
1.39839	924617.909399519
1.40123	1722933.9929424673
1.40407	3149958.3748537097
1.40691	4214938.547217601
1.40974	2332853.960785447
1.41258	777924.852927881
1.41541	1749572.3483045308
1.41824	2273107.8005820154
1.42107	1419062.03044682
1.4239	967101.3494895301
1.42673	2008898.0002149134
1.42955	3099798.80808997
1.43237	1969879.2617072063
1.43519	3066997.7650622516
1.43801	2280485.766910609
1.44083	2836772.167077518
1.44365	4328338.012189725
1.44646	4580409.926951115
1.44927	7556013.232689149
1.45208	9162046.585724657
1.45489	7423398.276599442
1.45769	8931116.083842635
1.4605	9876272.69568911
1.4633	10116427.83880961
1.4661	10773323.60242662
1.4689	8368771.636205368
1.47169	8803847.086810976
1.47449	8684187.987518383
1.47728	8902963.909548312
1.48007	8885612.673093863
1.48286	11452652.015681438
1.48564	13541213.052718738
1.48842	13379924.103674669
1.4912	13630363.776047993
1.49398	13231629.509976953
1.49676	12103059.518412292
1.49953	14241042.776852759
1.5023	16322035.14935227
1.50507	16186678.492846806
1.50784	15307843.150422603
1.51061	15734898.389826683
1.51337	16571207.817756426
1.51613	17733147.423954953
1.51888	19123771.007153742
1.52164	21181136.523261227
1.52439	22247105.49035796
1.52714	21318702.370579056
1.52989	20993526.482847866
1.53263	22014178.97750599
1.53538	23204584.402013984
1.53812	23341707.220220584
1.54086	23171172.878947236
1.54359	23336929.80535084
1.54632	24272855.28115152
1.54905	24414411.46606587
1.55178	25255789.115812734
1.5545	25138582.671631355
1.55723	24507200.641495373
1.55995	24754545.807750132
1.56266	25410577.304515462
1.56538	26551423.199433096
1.56809	27138709.989490926
1.5708	27029238.765729878
1.57351	26322988.403915048
1.57621	25763360.319329627
1.57891	24592901.26876713
1.58161	25746121.398687743
1.5843	27869211.13328527
1.587	28295462.969402168
1.58969	28224569.571798887
1.59238	28099597.638762012
1.59506	27657417.828834344
1.59774	27168120.736692347
1.60042	26959029.674744826
1.6031	27111591.81284923
1.60577	27399757.640149135
1.60844	27487530.588790298
1.61111	27173894.664493553
1.61378	26627068.530845363
1.61644	26429155.87324288
1.6191	25901607.064870358
1.62176	25192702.328160726
1.62441	24934651.11262771
1.62707	24440735.01856099
1.62971	23168715.42071294
1.63236	22675289.13345615
1.635	24887994.17301955
1.63764	27876163.207632393
1.64028	28811559.59141694
1.64292	28620348.61402004
1.64555	27432105.724487886
1.64818	25131795.777002726
1.65081	24938123.891142465
1.65343	26835432.1643419
1.65605	27540626.654522143
1.65867	27685148.19882128
1.66128	27115235.311761998
1.6639	24224787.803144317
1.66651	18487777.30741042
1.66911	17901353.200530846
1.67172	22886804.24072354
1.67432	26271693.75873957
1.67692	26245337.40660561
1.67951	25003685.856142264
1.68211	25170662.153323654
1.6847	25376289.93232805
1.68728	24408475.75209507
1.68987	23756784.23781421
1.69245	22460046.90609426
1.69503	19570573.2711266
1.6976	18027226.355295803
1.70018	19860382.111392464
1.70275	19852765.50160419
1.70531	20186902.439034123
1.70788	21914555.181365423
1.71044	21655706.889442675
1.713	22439623.159114037
1.71556	23387239.96921066
1.71811	24058845.44394478
1.72066	25070350.966007326
1.72321	24744307.86009313
1.72575	24204006.154922567
1.7283	23645406.03899352
1.73084	22588855.85311086
1.73337	21340076.86121469
1.73591	20437012.321507696
1.73844	20154665.577302855
1.74097	20219042.68104872
1.74349	19136418.533917695
1.74602	17663681.169782016
1.74854	16951355.063358694
1.75105	15496751.754052494
1.75357	13369756.772133332
1.75608	15088041.630405053
1.75859	19174448.352873728
1.7611	20852868.479853526
1.7636	20129764.94473312
1.7661	16554110.005757257
1.7686	13501311.88520815
1.7711	10874747.544367217
1.77359	8180889.1423196215
1.77608	5314886.623426377
1.77857	3977579.5181029835
1.78105	4765866.04346205
1.78354	5612324.580820796
1.78602	4480111.792909023
1.78849	3466174.0945831775
1.79097	4380684.282985813
1.79344	5831951.705588275
1.79591	7186430.59433476
1.79837	8760867.112802338
1.80084	5796924.682912197
1.8033	3011617.4144321987
1.80576	1539099.536567504
1.80821	1039149.7932195574
1.81067	2806015.6555452063
1.81312	4334180.144485492
1.81557	2469877.8381450437
1.81801	1357422.8332085186
1.82046	2987438.7463899013
1.8229	4525403.484998288
1.82533	3166042.067050675
1.82777	1199403.3400231947
1.8302	873277.6895238117
1.83263	1598697.1362803488
1.83506	2535441.8102881266
1.83749	3801824.7990028462
1.83991	4486896.473856752
1.84233	3699799.253096344
1.84475	3419144.892472592
1.84716	3801934.676738652
1.84957	4502089.080937114
1.85198	4250068.709642193
1.85439	2268135.4417856466
1.8568	1686430.092600944
1.8592	2180194.2597842147
1.8616	1712523.3407916545
1.864	983800.0046654856
1.86639	974093.3779568358
1.86878	1509435.1172530563
1.87118	2491786.9469154933
1.87356	3666288.643613273
1.87595	4300342.5590704335
1.87833	5937101.607299687
1.88071	8758940.144000195
1.88309	8491726.003369972
1.88547	6709497.993160636
1.88784	6248721.049674029
1.89021	5827544.422711701
1.89258	8736635.810007151
1.89494	10891105.787935717
1.89731	7307485.7366191875
1.89967	3157398.0383016425
1.90203	1278709.8457452264
1.90439	1216581.8670943065
1.90674	1999249.036989011
1.90909	2195766.3915723707
1.91144	1446003.326641014
1.91379	702721.2524035792
1.91613	625599.5281272491
1.91848	1066473.6055661
1.92082	1587175.6966087783
1.92315	1548325.7682988313
1.92549	1144700.599125055
1.92782	1305121.4923838417
1.93015	1878677.9078307105
1.93248	2343534.0379125713
1.93481	2407676.911594681
1.93713	2092977.0362954177
1.93945	2070857.4736270513
1.94177	2596560.459085954
1.94409	3002485.6941724303
1.94641	3040796.1917917044
1.94872	3585607.746285778
1.95103	4312498.199991652
1.95334	2953985.52353204
1.95564	2130751.263310627
1.95795	2510552.7725438704
1.96025	2642885.2717575245
1.96255	2688498.2673443975
1.96484	3141509.494487954
1.96714	4344607.22315119
1.96943	5948093.325711116
1.97172	6835808.078760186
1.97401	6272140.9147281265
1.97629	6700177.0255091665
1.97858	8257148.728589199
1.98086	9160643.427632926
1.98314	10181311.800377024
1.98541	10853816.472500827
1.98769	10097982.16527903
1.98996	8104194.241404176
1.99223	7696708.142247356
1.9945	8948949.15515576
1.99677	8538251.709669169
1.99903	8420221.860547613
2.00129	10121875.783804743
2.00355	12484278.841988513
2.00581	13750607.808550963
2.00806	14085715.461276526
2.01031	16325898.394568136
2.01256	17474693.656752408
2.01481	16109865.191893829
2.01706	14400045.089045597
2.0193	14407155.101444189
2.02154	16545467.487025602
2.02378	18913714.722250663
2.02602	19515388.085494205
2.02825	20094846.552686036
2.03049	20935264.09577436
2.03272	21991139.912933767
2.03494	23026848.81411712
2.03717	23749790.389937665
2.03939	24189082.136371464
2.04162	25331018.085300393
2.04384	26395303.553781476
2.04605	27557440.780950032
2.04827	28625049.830905702
2.05048	28682698.767398253
2.05269	27222678.750164576
2.0549	26884354.12297119
2.05711	27513648.914144725
2.05931	28509143.91565554
2.06151	29316135.059520397
2.06371	29986377.81422686
2.06591	30451315.267493706
2.06811	30796565.05400349
2.0703	30949672.729305543
2.07249	30841305.920336954
2.07468	30415212.340959318
2.07686	30355712.701591004
2.07905	30617294.222113576
2.08123	30920085.24590862
2.08341	31132997.09994271
2.08559	31292058.51755741
2.08776	31442971.889219403
2.08994	31340623.9597605
2.09211	31047591.387485012
2.09428	30744606.064688195
2.09645	30832373.116116498
2.09861	30844593.29324567
2.10077	30738887.18226451
2.10293	30518417.32792957
2.10509	30210076.882862035
2.10725	29929217.381651692
2.1094	30265301.156676788
2.11155	30609752.353679817
2.1137	30661117.878106162
2.11585	30140197.978450827
2.11799	29749660.6653055
2.12013	29637854.05895923
2.12227	29736334.71783937
2.12441	29955467.765880983
2.12655	30061836.734050337
2.12868	30040468.60380279
2.13081	30045843.950346164
2.13294	30061981.60519884
2.13507	29736354.494950842
2.13719	29084026.51433363
2.13931	28523382.42571048
2.14143	28055002.21686849
2.14355	27380646.91151964
2.14567	27009698.39850797
2.14778	26728429.894556556
2.14989	26399927.89830641
2.152	25762129.171850737
2.1541	25933403.437309057
2.15621	26175066.158283234
2.15831	26181857.24561472
2.16041	25359903.71676165
2.16251	24962137.77675312
2.1646	24699294.75147791
2.1667	24536927.509347074
2.16879	24658362.94743288
2.17087	24733079.0963395
2.17296	24695059.59249424
2.17504	24508958.018283408
2.17713	24202124.73186623
2.1792	23763867.060659442
2.18128	23205452.295260224
2.18336	22524068.012617894
2.18543	21749816.360189475
2.1875	20927358.661303855
2.18957	19942704.4938288
2.19163	18292845.38111972
2.1937	15792834.735979576
2.19576	13150636.00193888
2.19782	10673855.631381858
2.19987	9324388.900424344
2.20193	8508201.282338023
2.20398	8137942.868345052
2.20603	8069343.300059647
2.20808	8459049.595638506
2.21012	9109904.617934493
2.21217	9994399.75604023
2.21421	10511687.676506838
2.21625	10554295.814201005
2.21828	10176542.11580591
2.22032	9995846.06894212
2.22235	9821122.81168498
2.22438	9484025.03096943
2.22641	8550277.12631204
2.22843	7536608.560157021
2.23046	6670719.054514383
2.23248	6159043.046392702
2.2345	6023187.908912188
2.23651	5920247.468380618
2.23853	5799419.715489878
2.24054	5279647.54807072
2.24255	4689548.780601189
2.24456	4085158.2851414415
2.24657	4181203.1898232726
2.24857	4611587.907961914
2.25057	5218958.756746569
2.25257	5452953.246604219
2.25457	5656579.038401531
2.25656	5842171.255388697
2.25856	6026752.408327936
2.26055	5738974.907418702
2.26254	5195414.313710844
2.26453	4498428.426146571
2.26651	4074908.7680634456
2.2685	3883185.490546178
2.27048	4147815.821621135
2.27246	4557308.536369709
2.27443	4943146.710274662
2.27641	4993940.305607843
2.27838	4795530.132380156
2.28036	4494346.794166272
2.28233	4255596.686552582
2.28429	4050072.1347381477
2.28626	3855550.7723839157
2.28823	3631686.900158151
2.29019	3511060.28457304
2.29215	3468007.1173710036
2.29411	3570186.390353704
2.29607	3674613.5230729864
2.29802	3780559.8079752172
2.29998	3924443.170315741
2.30193	4190470.33275261
2.30388	4596929.379628041
2.30583	5317045.588896645
2.30778	6043615.6271319315
2.30972	6729778.52724599
2.31167	6690011.7188659245
2.31361	6172747.058407182
2.31555	4744783.729353825
2.31749	3553599.007913164
2.31943	2587364.5708080204
2.32137	2463551.0539506306
2.32331	2412418.6641123355
2.32524	2419127.227136069
2.32718	2374277.596840235
2.32911	2361688.832716228
2.33104	2396483.4700295255
2.33297	2406154.266012796
2.3349	2403596.162358818
2.33683	2379739.1255031
2.33876	2345950.692786263
2.34068	2302048.4993774393
2.34261	2180199.3472073884
2.34453	2066731.0243677213
2.34646	1961500.2156264323
2.34838	2048862.661823572
2.3503	2244855.447481835
2.35223	2661609.2556971163
2.35415	3069320.7622726024
2.35607	3465819.9997205194
2.35799	3744556.8508892343
2.35991	4023622.09957002
2.36183	4303083.690075654
2.36375	4190892.2264680956
2.36566	3862308.6628183587
2.36758	3030924.6444376255
2.3695	2323904.4530897513
2.37142	1696604.6636861362
2.37334	1740988.0383685986
2.37526	1824096.1591976886
2.37718	1965884.413970205
2.3791	2090673.0687586113
2.38101	2230908.804672591
2.38293	2531462.9303314267
2.38485	2849649.3637249237
2.38677	3185839.311331631
2.3887	3229887.1509612706
2.39062	3214490.2677936205
2.39254	3150629.4320959453
2.39446	3161839.2524137865
2.39639	3221480.3091455204
2.39831	3310909.789756142
2.40024	3338521.509452408
2.40216	3248262.5371773224
2.40409	3287378.461843965
2.40602	3410993.4630729156
2.40795	3907503.6289530513
2.40989	4344337.500791184
2.41182	4702755.31131534
2.41376	4890249.628308379
2.4157	5083465.630092376
2.41764	5474574.051313141
2.41958	5716735.126406823
2.42152	5837789.480817764
2.42347	5342524.174836238
2.42542	4920062.730715748
