#wavelength	surface flux
0.7	703508.6353443773
0.7001166666666666	704600.3856369837
0.7002333527777778	705534.6406233077
0.700350058336574	706469.0513187955
0.7004667833462966	707403.6177493981
0.7005835278101878	708338.339941075
0.7007002917314895	709273.2179197824
0.7008170751134447	710208.251711486
0.7009338779592968	711143.4413421545
0.7010507002722901	711927.2721140888
0.7011675420556689	712526.8501789124
0.701284403312678	713126.5281734127
0.7014012840465635	713726.3061142461
0.7015181842605713	714326.1840180696
0.701635103957948	714926.1619015435
0.701752043141941	715526.239781331
0.701869001815798	716126.4176740993
0.7019859799827672	716845.8504967059
0.7021029776460976	717648.3283259728
0.7022199948090387	718450.9399015455
0.7023370314748403	719253.6852457139
0.7024540876467528	720056.5643807729
0.702571163328027	720859.5773290197
0.7026882585219152	721662.72411276
0.7028053732316688	722466.0047542965
0.7029225074605406	723737.7148797212
0.7030396612117841	725190.4673660401
0.7031568344886527	726643.4619777738
0.7032740272944008	728096.6987552751
0.7033912396322832	729550.1777389067
0.7035084715055552	731003.8989690342
0.7036257229174727	732457.8624860339
0.7037429938712924	733912.0683302878
0.7038602843702709	735240.5330411531
0.7039775944176659	736547.8514391019
0.7040949240167356	737855.3877234508
0.7042122731707383	739163.1419305131
0.7043296418829335	740471.1140966107
0.7044470301565806	741779.304258069
0.70456443799494	743087.7124512199
0.7046818654012724	744396.3387124038
0.7047993123788394	745478.7423409439
0.7049167789309024	746561.066519292
0.7050342650607243	747643.5710850048
0.7051517707715678	748726.2560681447
0.7052692960666963	749809.1214987813
0.705386840949374	750892.1674069891
0.7055044054228656	751975.3938228502
0.7056219894904361	753011.5176559507
0.7057395931553511	753747.3349791224
0.705857216420877	754483.2749385152
0.7059748592902804	755219.3375545674
0.7060925217668288	755955.522847723
0.70621020385379	756691.8308384273
0.7063279055544321	757428.2615471293
0.7064456268720246	758164.8149942837
0.7065633678098366	758952.0975237972
0.7066811283711383	759878.8820098432
0.7067989085592001	760805.8209599704
0.7069167083772933	761732.9143999218
0.7070345278286895	762660.1623554473
0.707152366916661	763587.5648522988
0.7072702256444803	764515.121916232
0.7073881040154211	765442.8335730106
0.7075060020327569	766480.4886433538
0.7076239196997625	767678.2072784267
0.7077418570197124	768876.1255332709
0.7078598139958823	770074.2434411575
0.7079777906315483	771272.5610353632
0.7080957869299869	772471.078349167
0.7082138028944751	773669.795415856
0.7083318385282908	774868.7122687234
0.7084498938347124	775678.790013372
0.708567968817018	776159.1676187882
0.7086860634784875	776639.6252871392
0.7088041778224007	777120.1630317688
0.7089223118520377	777600.7808660216
0.7090404655706796	778081.4788032467
0.709158638981608	778562.2568567952
0.709276832088105	779043.1150400193
0.7093950448934531	780065.8658692113
0.7095132774009353	781347.1833846091
0.7096315296138355	782628.7144529265
0.7097498015354378	783910.459109755
0.7098680931690269	785192.4173906917
0.7099864045178884	786474.5893313435
0.7101047355853081	787756.9749673186
0.7102230863745722	789039.5743342321
0.7103414568889679	790246.1275738
0.7104598471317828	791435.553860997
0.7105782571063047	792625.1783859074
0.7106966868158224	793815.0011815721
0.710815136263625	795005.0222810357
0.7109336054530023	796195.24171735
0.7110520943872445	797385.65952357
0.7111706030696424	798576.2757327583
0.7112891315034873	799484.9224672847
0.7114076796920712	800380.2575992816
0.7115262476386865	801275.7419538005
0.7116448353466263	802171.3755557113
0.711763442819184	803067.1584298895
0.711882070059654	803963.0906012142
0.7120007170713306	804859.1720945669
0.7121193838575091	805759.3950999666
0.7122380704214853	806701.4054029768
0.7123567767665555	807643.5727077032
0.7124755028960166	808585.8970403143
0.7125942488131658	809528.37842698
0.7127130145213015	810471.0168938794
0.7128318000237216	811413.8124671871
0.7129506053237256	812356.7651730917
0.7130694304246129	813285.6989253924
0.7131882753296837	814165.2228170972
0.7133071400422386	815044.8932961175
0.7134260245655789	815924.7103868838
0.7135449289030065	816804.6741138322
0.7136638530578235	817684.7845014011
0.7137827970333332	818565.041574036
0.7139017608328388	819445.4453561828
0.7140207444596443	820318.2505832167
0.7141397479170543	821177.3844507855
0.7142587712083737	822036.6615073311
0.7143778143369084	822896.08177672
0.7144968773059646	823755.6452828207
0.7146159601188489	824615.3520495056
0.7147350627788687	825475.2021006515
0.7148541852893318	826335.195460139
0.7149733276535467	826963.0916445865
0.7150924898748222	827356.9063417444
0.715211671956468	827750.7866746853
0.7153308739017941	828144.7326543486
0.715450095714111	828538.744291675
0.71556933739673	828932.8215976077
0.7156885989529628	829326.9645830913
0.7158078803861218	829721.1732590732
0.7159271816995193	829324.175430625
0.7160465028964692	828462.6840172776
0.7161658439802853	827601.049022028
0.7162852049542819	826739.2704209461
0.7164045858217744	825877.3481900968
0.716523986586078	825015.2823055427
0.7166434072505089	824153.0727433417
0.716762847818384	823290.7194795465
0.7168823082930204	823406.5029175152
0.7170017886777359	823810.1115912707
0.7171212889758488	824213.7875331381
0.7172408091906781	824617.5307543292
0.7173603493255433	825021.3412660573
0.7174799093837642	825425.2190795372
0.7175994893686615	825829.1642059862
0.7177190892835562	826233.1766566227
0.7178387091317702	829180.941577128
0.7179583489166254	832384.5402119046
0.7180780086414448	835588.6727797893
0.7181976883095517	838793.3393697687
0.7183173879242699	841998.5400708468
0.718437107488924	845204.2749720424
0.7185568470068389	848410.5441623895
0.7186766064813399	851516.9472887724
0.7187963859157535	852113.6358311492
0.7189161853134061	852710.4238216162
0.719036004677625	853307.3112767484
0.7191558440117378	853904.2982131229
0.7192757033190732	854501.3846473207
0.7193955826029597	855098.5705959237
0.7195154818667269	855695.8560755185
0.7196354011137046	856207.3842983375
0.7197553403472235	856323.6977016369
0.7198752995706147	856440.0304905036
0.7199952787872098	856556.3826681685
0.720115278000341	856672.754237863
0.7202352972133411	856789.1452028191
0.7203553364295432	856905.5555662693
0.7204753956522815	857021.9853314467
0.7205954748848902	857555.8953395949
0.7207155741307044	859010.2394564106
0.7208356933930594	860464.82596391
0.7209558326752915	861919.6549024943
0.7210759919807375	863374.7263125702
0.7211961713127342	864830.040234546
0.7213163706746197	866285.5967088443
0.7214365900697322	867741.3957758868
0.7215568295014103	868530.3268308311
0.721677088972994	868523.4139910348
0.7217973684878227	868516.4999990986
0.7219176680492374	868509.5848548303
0.7220379876605789	868502.6685580381
0.722158327325189	868495.7511085296
0.7222786870464099	868488.832506113
0.7223990668275843	868481.912750596
0.7225194666720555	868939.2093223833
0.7226398865831676	869725.5846604002
0.7227603265642646	870512.0910609715
0.722880786618692	871298.7285459446
0.7230012667497951	872085.4971371647
0.7231217669609201	872872.3968564833
0.7232422872554135	873659.4277257546
0.7233628276366229	874446.5897668387
0.7234833881078956	875753.8103417164
0.7236039686725803	877258.6451328077
0.7237245693340255	878763.7307296951
0.7238451900955812	880269.0671741848
0.7239658309605971	881774.6545080802
0.7240864919324239	883280.4927731998
0.7242071730144127	884786.5820113638
0.724327874209915	886292.9222643976
0.7244485955222832	885004.9835300795
0.7245693369548704	883254.7782060881
0.7246900985110294	881504.2811812119
0.7248108801941148	879753.492406827
0.7249316820074803	878002.411834319
0.7250525039544815	876251.0394150459
0.7251733460384739	874499.3751003693
0.7252942082628137	872753.7930354082
0.7254150906308574	874701.329797916
0.7255359931459625	876649.1911498844
0.7256569158114868	878597.3771454119
0.7257778586307888	880545.8878386064
0.7258988216072273	882494.7232835825
0.7260198047441617	884443.8835344639
0.7261408080449525	886393.3686453906
0.72626183151296	888208.4233581779
0.7263828751515454	889128.2542130747
0.7265039389640706	890048.2383731138
0.726625022953898	890968.3758638467
0.7267461271243904	891888.6667108287
0.7268672514789111	892809.1109396179
0.7269883960208241	893729.7085757776
0.7271095607534942	894650.4596448774
0.7272307456802866	895488.1196281125
0.7273519508045666	896101.0556139878
0.7274731761297006	896714.0937558605
0.7275944216590555	897327.2340707567
0.7277156873959987	897940.4765757056
0.7278369733438982	898553.8212877397
0.727958279506122	899167.2682238908
0.7280796058860397	899780.8174011988
0.7282009524870207	899854.9989108244
0.7283223193124353	899131.2566883606
0.7284437063656539	898407.3938421946
0.7285651136500483	897683.4103522197
0.7286865411689898	896959.3061983313
0.7288079889258514	896235.0813604154
0.7289294569240056	895510.7358183617
0.7290509451668262	894786.26955205
0.7291724536576875	894409.6417554364
0.7292939823999636	894321.272853405
0.7294155313970303	894232.889223223
0.7295371006522632	894144.4908624359
0.7296586901690385	894056.0777685888
0.7297802999507332	893967.6499392261
0.7299019300007252	893879.2073718916
0.7300235803223919	893790.7500641295
0.7301452509191123	894522.0527843102
0.7302669417942654	895631.860377791
0.7303886529512311	896741.8529392043
0.7305103843933897	897852.0304993782
0.7306321361241218	898962.3930891446
0.7307539081468093	900072.9407393447
0.7308757004648336	901183.6734808173
0.7309975130815778	902294.5913444149
0.7311193460004248	903955.518319858
0.7312411992247582	905741.1952416783
0.7313630727579622	907527.1697763185
0.7314849666034219	909313.441973383
0.7316068807645224	911100.0118824792
0.7317288152446498	912886.8795532277
0.7318507700471907	914674.0450352556
0.7319727451755319	916461.5083781965
0.732094740633061	916312.707428324
0.7322167564231665	916076.6970345875
0.7323387925492371	915840.6473057854
0.7324608490146619	915604.5582353619
0.732582925822831	915368.42981676
0.7327050229771347	915132.2620434219
0.7328271404809642	914896.054908788
0.7329492783377112	914632.7801851609
0.7330714365507675	914103.7455645344
0.7331936151235259	913574.6227714715
0.7333158140593796	913045.4117912769
0.7334380333617229	912516.1126092514
0.7335602730339499	911986.7252106954
0.7336825330794556	911457.2495809061
0.7338048135016354	910927.6857051796
0.7339271143038857	910854.7461146915
0.734049435489603	912312.0945660445
0.7341717770621846	913769.6859088063
0.7342941390250283	915227.5201834579
0.7344165213815324	916685.597430488
0.734538924135096	918143.9176903948
0.7346613472891185	919602.4810036763
0.734783790847	921061.2874108439
0.7349062548121412	921590.802731958
0.7350287391879431	920477.416608106
0.7351512439778078	919363.8449198977
0.7352737691851374	918250.0876364093
0.735396314813335	917136.1447267062
0.7355188808658037	916022.0161598532
0.7356414673459482	914907.7019049034
0.7357640742571725	913793.201930912
0.7358867016028818	913213.6882654482
0.7360093493864824	913162.6086841665
0.7361320176113801	913111.520589621
0.736254706280982	913060.4239803933
0.7363774153986956	913009.3188550639
0.7365001449679286	912958.2052122138
0.7366228949920899	912907.0830504231
0.7367456654745885	912855.9523682721
0.7368684564188344	912961.9971837908
0.7369912678282374	913156.8967686708
0.7371140997062088	913351.8288368151
0.7372369520561599	913546.7933936375
0.7373598248815024	913741.7904445523
0.7374827181856494	913936.8199949759
0.7376056319720137	914131.8820503247
0.7377285662440091	914326.976616016
0.7378515210050496	914227.0831952703
0.7379744962585505	914038.4104314707
0.738097492007927	913849.7062222105
0.7382205082565949	913660.970562249
0.738343545007971	913472.203446344
0.7384666022654723	913283.404869253
0.7385896800325165	913094.5748257327
0.7387127783125219	912905.7133105383
0.7388358971089073	912696.9832166556
0.7389590364250921	912486.2286238794
0.7390821962644963	912275.4389053375
0.7392053766305403	912064.6140551763
0.7393285775266454	911853.7540675398
0.7394517989562333	911642.8589365719
0.7395750409227259	911431.9286564158
0.7396983034295463	911195.8984213935
0.739821586480118	910402.243722555
0.7399448900778645	909608.4567479349
0.7400682142262109	908814.5374754833
0.740191558928582	908020.4858831537
0.7403149241884034	907226.3019488928
0.7404383100091014	906431.9856506427
0.7405617163941028	905637.5369663433
0.7406851433468352	904680.0187058887
0.7408085908707264	902976.9425001777
0.7409320589692048	901273.5824484332
0.7410555476456997	899569.9385033454
0.7411790569036406	897866.0106176013
0.7413025867464579	896161.7987438758
0.7414261371775823	894457.3028348376
0.7415497082004452	892752.5228431491
0.7416732998184786	891065.4318756065
0.741796912035115	889416.6156805271
0.7419205448537874	887767.5246827487
0.7420441982779297	886118.1588364709
0.742167872310976	884468.5180958838
0.7422915669563612	882818.6024151733
0.7424152822175206	881168.4117485165
0.7425390180978901	879517.9460500829
0.7426627746009065	878260.3686984341
0.7427865517300065	877481.8761186546
0.7429103494886282	876703.2537901109
0.7430341678802096	875924.5016911798
0.7431580069081896	875145.6198002322
0.7432818665760077	874366.6080956351
0.7434057468871037	873587.4665557545
0.7435296478449182	872808.195158951
0.7436535694528923	871564.2694954432
0.7437775117144678	870002.1553189087
0.7439014746330868	868439.780790014
0.7440254582121922	866877.1458653631
0.7441494624552276	865314.2505015574
0.7442734873656368	863751.0946551913
0.7443975329468645	862187.6782828497
0.7445215992023557	860624.0013411129
0.7446456861355559	858665.9612537923
0.7447697937499119	856562.4179175788
0.7448939220488703	854458.5239908098
0.7450180710358784	852354.279415055
0.7451422407143843	850249.6841318705
0.7452664310878367	848144.7380828036
0.7453906421596846	846039.4412093973
0.7455148739333779	843933.7934531781
0.7456391264123667	841457.0372283728
0.7457633996001021	838920.5861324063
0.7458876935000356	836383.7122945858
0.7460120081156189	833846.4156444639
0.7461363434503048	831308.6961115657
0.7462606995075466	828770.5536254098
0.7463850762907978	826231.98811551
0.7465094738035127	823692.2902543776
0.7466338920491467	820966.6314293295
0.746758331031155	818240.5183278078
0.7468827907529935	815513.9508741058
0.7470072712181189	812786.9289924947
0.7471317724299886	810059.4526072362
0.7472562943920602	807331.5216425821
0.7473808371077922	804603.1360227647
0.7475054005806435	801815.9217061339
0.7476299848140736	798668.6821167908
0.7477545898115426	795520.9179875155
0.7478792155765113	792372.6292308845
0.7480038621124406	789223.8157594631
0.7481285294227926	786074.4774857974
0.7482532175110298	782924.6143224159
0.7483779263806148	779774.2261818451
0.7485026560350116	776508.1087614907
0.7486274064776842	772929.6510945542
0.748752177712097	769350.5970180131
0.7488769697417158	765770.9464324517
0.749001782570006	762190.6992384637
0.7491266162004343	758609.855336611
0.7492514706364677	755028.4146274398
0.7493763458815739	751446.37701148
0.7495012419392209	747629.380653664
0.7496261588128773	743474.8252060856
0.7497510965060128	739319.5773325963
0.7498760550220971	735163.6369177963
0.7500010343646007	731007.00384626
0.7501260345369949	726849.6780025429
0.750251055542751	722691.65927119
0.7503760973853414	718532.9475367125
0.7505011600682389	714085.3734021151
0.750626243594917	709396.4432443954
0.7507513479688495	704706.7315983232
0.7508764731935109	700016.2383336417
0.7510016192723765	695324.9633200816
0.7511267862089218	690632.9064273569
0.7512519740066232	685940.0675251484
0.7513771826689577	681246.4464831202
0.7515024121994025	676256.6709945211
0.7516276626014359	671128.3447690232
0.751752933878536	665999.1638224967
0.7518782260341824	660869.1280124773
0.7520035390718548	655738.2371964874
0.7521288729950334	650606.4912320308
0.7522542278071992	645473.8899765797
0.7523796035118337	640340.4332875835
0.7525050001124189	634710.0445222636
0.7526304176124378	628970.8318144691
0.7527558560153731	623230.6625712307
0.752881315324709	617489.5366331128
0.7530067955439299	611747.4538406698
0.7531322966765205	606004.4140344358
0.7532578187259665	600260.4170548989
0.7533833616957542	594515.4627425324
0.75350892558937	588264.4966245278
0.7536345104103016	581988.7395815586
0.7537601161620366	575711.9365790855
0.7538857428480638	569434.0874427726
0.7540113904718717	563155.1919982784
0.7541370590369503	556875.2500712114
0.7542627485467898	550594.2614871527
0.7543884590048808	544279.8766489037
0.7545141904147151	537641.8473037911
0.7546399427797842	531002.711620465
0.7547657161035808	524362.4694145239
0.754891510389598	517721.120501549
0.7550173256413296	511078.6646970858
0.7551431618622698	504435.1018166568
0.7552690190559135	497790.4316757492
0.7553948972257561	491027.54240919824
0.7555207963752938	483870.4261730489
0.755646716508023	476712.1170841976
0.755772657627441	469552.6149438291
0.7558986197370455	462391.9195531027
0.756024602840335	455230.03071314644
0.7561506069408084	448066.9482250502
0.7562766320419653	440902.6718898661
0.7564026781473054	433527.9634854296
0.75652874526033	425783.82286509237
0.7566548333845401	418038.39155464777
0.7567809425234375	410291.66933898744
0.7569070726805247	402543.6560029623
0.7570332238593047	394794.35133138223
0.7571593960632813	387043.75510901614
0.7572855892959586	379291.8671206126
0.7574118035608413	371642.02457970515
0.7575380388614347	364092.00544412446
0.7576642952012449	356540.7279720183
0.7577905725837782	348988.1919536777
0.7579168710125422	341434.3971793206
0.7580431904910444	333879.34343916486
0.7581695310227928	326323.0305233954
0.7582958926112967	318765.45822213043
0.7584222752600652	311177.1359194589
0.7585486789726085	303570.60778362106
0.7586751037524372	295962.8118930911
0.7588015496030628	288353.7480365645
0.7589280165279966	280743.4160027435
0.7590545045307512	273131.81558025023
0.7591810136148396	265518.9465576867
0.7593075437837755	257904.8087236082
0.7594340950410726	250494.99641082098
0.7595606673902461	243143.59962555423
0.7596872608348112	235790.97760748255
0.7598138753782836	228437.13015241595
0.75994051102418	221082.0570561
0.7600671677760173	213725.75811427372
0.7601938456373134	206368.23312261817
0.7603205446115863	199009.4818768015
0.7604472647023548	192008.75605108004
0.7605740059131385	185042.57303153983
0.7607007682474575	178075.22898148958
0.7608275517088319	171106.72370744645
0.7609543563007835	164137.05701584218
0.7610811820268336	157166.22871312685
0.7612080288905045	150194.23860570777
0.7613348968953197	143243.05193049158
0.7614617860448022	136741.38885885067
0.7615886963424764	130238.64217668894
0.7617156277918667	123734.81170341981
0.7618425803964988	117229.89725839978
0.7619695541598982	110723.898660974
0.7620965490855914	104216.81573045343
0.7622235651771058	97708.64828610358
0.7623506024379685	91456.09538651502
0.7624776608717082	86327.64118172866
0.7626047404818536	81198.33223457458
0.7627318412719337	76068.1684026048
0.762858963245479	70937.14954332646
0.7629861064060198	65805.27551423779
0.7631132707570876	60672.54617280561
0.7632404563022137	55538.961376487794
0.7633676630449308	50847.74789837411
0.7634948909887717	47099.235494855675
0.7636221401372697	43350.09833927486
0.7637494104939593	39600.33632749791
0.7638767020623748	35849.94935539109
0.7640040148460518	32098.937318784632
0.7641313488485262	28347.30011350555
0.7642587040733344	24595.037635354664
0.7643860805240132	21558.676632079536
0.7645134782041005	19376.840896764235
0.7646408971171346	17194.64152215881
0.764768337266654	15012.078447658412
0.7648957986561985	12829.151612644897
0.7650232812893079	10645.860956492501
0.7651507851695227	8462.206418564057
0.7652783103003843	6278.187938212897
0.7654058566854343	5042.4009269484395
0.7655334243282153	4452.90056860513
0.7656610132322699	3863.3019602028635
0.765788623401142	3273.6050853653096
0.7659162548383754	2683.8099277156216
0.7660439075475152	2093.916470872849
0.7661715815321064	1503.92469845399
