#wavelength	surface flux
0.7	29304688.272041723
0.7001166666666666	29469549.14506257
0.7002333527777778	29503690.891970795
0.700350058336574	29537838.329170156
0.7004667833462966	29571991.457609005
0.7005835278101878	29606150.278236024
0.7007002917314895	29640314.791999757
0.7008170751134447	29674484.99984911
0.7009338779592968	29708660.902733095
0.7010507002722901	29712443.04747896
0.7011675420556689	29679231.707959805
0.701284403312678	29646014.833217446
0.7014012840465635	29612792.422329254
0.7015181842605713	29579564.474372584
0.701635103957948	29546330.98842461
0.701752043141941	29513091.96356232
0.701869001815798	29479847.398862503
0.7019859799827672	29349358.969344757
0.7021029776460976	29151176.39348142
0.7022199948090387	28952960.787188515
0.7023370314748403	28754712.14496132
0.7024540876467528	28556430.461293783
0.702571163328027	28358115.730679296
0.7026882585219152	28159767.94760918
0.7028053732316688	27961387.1065755
0.7029225074605406	27934564.61590352
0.7030396612117841	27973996.969081413
0.7031568344886527	28013435.894318175
0.7032740272944008	28052881.39270912
0.7033912396322832	28092333.46534982
0.7035084715055552	28131792.113335915
0.7036257229174727	28171257.337763358
0.7037429938712924	28210729.139728244
0.7038602843702709	28299838.799111865
0.7039775944176659	28397381.138180833
0.7040949240167356	28494939.73430635
0.7042122731707383	28592514.59019784
0.7043296418829335	28690105.708565366
0.7044470301565806	28787713.092119265
0.70456443799494	28885336.743570354
0.7046818654012724	28982976.665630072
0.7047993123788394	29024369.911963657
0.7049167789309024	29065705.492940713
0.7050342650607243	29107047.963181328
0.7051517707715678	29148397.323833633
0.7052692960666963	29189753.576046027
0.705386840949374	29231116.720967103
0.7055044054228656	29272486.759745736
0.7056219894904361	29309162.19116834
0.7057395931553511	29315966.18814691
0.705857216420877	29322771.319124985
0.7059748592902804	29329577.58429155
0.7060925217668288	29336384.98383565
0.70621020385379	29343193.517946336
0.7063279055544321	29350003.186812703
0.7064456268720246	29356813.99062389
0.7065633678098366	29374099.282761686
0.7066811283711383	29420231.262529008
0.7067989085592001	29466370.930959623
0.7069167083772933	29512518.289334945
0.7070345278286895	29558673.338936698
0.707152366916661	29604836.081046723
0.7072702256444803	29651006.51694705
0.7073881040154211	29697184.647920087
0.7075060020327569	29716570.706004366
0.7076239196997625	29696930.221783187
0.7077418570197124	29677286.464147992
0.7078598139958823	29657639.432553194
0.7079777906315483	29637989.12645311
0.7080957869299869	29618335.545302026
0.7082138028944751	29598678.68855409
0.7083318385282908	29579018.55566335
0.7084498938347124	29609778.083416604
0.708567968817018	29683292.334327545
0.7086860634784875	29756818.83761372
0.7088041778224007	29830357.59531717
0.7089223118520377	29903908.609480143
0.7090404655706796	29977471.88214543
0.709158638981608	30051047.41535625
0.709276832088105	30124635.21115595
0.7093950448934531	30179474.337540288
0.7095132774009353	30225375.311938163
0.7096315296138355	30271283.936498452
0.7097498015354378	30317200.212496158
0.7098680931690269	30363124.141206484
0.7099864045178884	30409055.72390499
0.7101047355853081	30454994.961867265
0.7102230863745722	30500941.856369175
0.7103414568889679	30449811.32400594
0.7104598471317828	30376612.251322206
0.7105782571063047	30303400.978793077
0.7106966868158224	30230177.5043852
0.710815136263625	30156941.826064937
0.7109336054530023	30083693.941798236
0.7110520943872445	30010433.849550854
0.7111706030696424	29937161.547288053
0.7112891315034873	29954033.503188767
0.7114076796920712	29975209.895923413
0.7115262476386865	29996389.818056848
0.7116448353466263	30017573.270177294
0.711763442819184	30038760.2528731
0.711882070059654	30059950.76673271
0.7120007170713306	30081144.81234462
0.7121193838575091	30109586.613917686
0.7122380704214853	30213588.55381898
0.7123567767665555	30317607.827376813
0.7124755028960166	30421644.437480293
0.7125942488131658	30525698.38701871
0.7127130145213015	30629769.678882334
0.7128318000237216	30733858.31596095
0.7129506053237256	30837964.301145893
0.7130694304246129	30913076.17968924
0.7131882753296837	30886766.300782863
0.7133071400422386	30860452.036896665
0.7134260245655789	30834133.387299832
0.7135449289030065	30807810.351261396
0.7136638530578235	30781482.9280503
0.7137827970333332	30755151.116935294
0.7139017608328388	30728814.917185113
0.7140207444596443	30723383.32717504
0.7141397479170543	30755250.411123086
0.7142587712083737	30787122.806251746
0.7143778143369084	30819000.513446283
0.7144968773059646	30850883.533592027
0.7146159601188489	30882771.867574453
0.7147350627788687	30914665.516279213
0.7148541852893318	30946564.480592076
0.7149733276535467	31014100.67070614
0.7150924898748222	31117578.537777845
0.715211671956468	31221073.651160747
0.7153308739017941	31324586.013729293
0.715450095714111	31428115.62835822
0.71556933739673	31531662.497922935
0.7156885989529628	31635226.625299226
0.7158078803861218	31738808.01336357
0.7159271816995193	31705569.915696267
0.7160465028964692	31592011.643543307
0.7161658439802853	31478434.445011657
0.7162852049542819	31364838.316946942
0.7164045858217744	31251223.256194144
0.716523986586078	31137589.25959794
0.7166434072505089	31023936.324002355
0.716762847818384	30910264.4462508
0.7168823082930204	30892209.256808452
0.7170017886777359	30902286.65459281
0.7171212889758488	30912365.73194346
0.7172408091906781	30922446.489140335
0.7173603493255433	30932528.926463418
0.7174799093837642	30942613.044192713
0.7175994893686615	30952698.8426083
0.7177190892835562	30962786.321990285
0.7178387091317702	31104009.043076854
0.7179583489166254	31258418.86474216
0.7180780086414448	31412854.421377864
0.7181976883095517	31567315.717273004
0.7183173879242699	31721802.756717473
0.718437107488924	31876315.544001885
0.7185568470068389	32030854.083417572
0.7186766064813399	32181802.41661737
0.7187963859157535	32242368.872990444
0.7189161853134061	32302945.42377291
0.719036004677625	32363532.07064718
0.7191558440117378	32424128.81529589
0.7192757033190732	32484735.65940213
0.7193955826029597	32545352.604648978
0.7195154818667269	32605979.652720086
0.7196354011137046	32651362.19821093
0.7197553403472235	32626517.36965216
0.7198752995706147	32601668.40028864
0.7199952787872098	32576815.289430216
0.720115278000341	32551958.036386646
0.7202352972133411	32527096.640467566
0.7203553364295432	32502231.100982536
0.7204753956522815	32477361.41724089
0.7205954748848902	32449631.97178149
0.7207155741307044	32415602.337043084
0.7208356933930594	32381567.030698948
0.7209558326752915	32347526.05180375
0.7210759919807375	32313479.39941202
0.7211961713127342	32279427.072578274
0.7213163706746197	32245369.070356667
0.7214365900697322	32211305.39180139
0.7215568295014103	32194792.723038916
0.721677088972994	32199225.38749407
0.7217973684878227	32203658.790726624
0.7219176680492374	32208092.932859723
0.7220379876605789	32212527.814016506
0.722158327325189	32216963.43432015
0.7222786870464099	32221399.793893844
0.7223990668275843	32225836.892860804
0.7225194666720555	32221850.845495917
0.7226398865831676	32211893.914998014
0.7227603265642646	32201935.325011715
0.722880786618692	32191975.075260397
0.7230012667497951	32182013.165467463
0.7231217669609201	32172049.595356226
0.7232422872554135	32162084.36464998
0.7233628276366229	32152117.473071933
0.7234833881078956	32168638.863213282
0.7236039686725803	32195220.215932325
0.7237245693340255	32221805.998876777
0.7238451900955812	32248396.2127851
0.7239658309605971	32274990.858395714
0.7240864919324239	32301589.936447296
0.7242071730144127	32328193.447678555
0.724327874209915	32354801.392828297
0.7244485955222832	32387982.617093664
0.7245693369548704	32422255.474497404
0.7246900985110294	32456534.04404399
0.7248108801941148	32490818.3266856
0.7249316820074803	32525108.323374197
0.7250525039544815	32559404.0350623
0.7251733460384739	32593705.462702353
0.7252942082628137	32628142.680296198
0.7254150906308574	32737954.081920214
0.7255359931459625	32847783.785444513
0.7256569158114868	32957631.793919437
0.7257778586307888	33067498.110395823
0.7258988216072273	33177382.737924922
0.7260198047441617	33287285.679558493
0.7261408080449525	33397206.938349187
0.72626183151296	33488239.256121293
0.7263828751515454	33453637.146935884
0.7265039389640706	33419029.27073228
0.726625022953898	33384415.626549292
0.7267461271243904	33349796.213425588
0.7268672514789111	33315171.03039972
0.7269883960208241	33280540.076510046
0.7271095607534942	33245903.3507947
0.7272307456802866	33215707.1324569
0.7273519508045666	33197516.357354704
0.7274731761297006	33179322.55045667
0.7275944216590555	33161125.711257484
0.7277156873959987	33142925.839251757
0.7278369733438982	33124722.933934003
0.727958279506122	33106516.994798742
0.7280796058860397	33088308.02134027
0.7282009524870207	33120250.316930868
0.7283223193124353	33226381.736849695
0.7284437063656539	33332530.845338292
0.7285651136500483	33438697.645345144
0.7286865411689898	33544882.13981845
0.7288079889258514	33651084.33170775
0.7289294569240056	33757304.22396213
0.7290509451668262	33863541.819532
0.7291724536576875	33948632.1226004
0.7292939823999636	34016199.12754293
0.7294155313970303	34083777.39365308
0.7295371006522632	34151366.92280756
0.7296586901690385	34218967.71688352
0.7297802999507332	34286579.77775846
0.7299019300007252	34354203.107310385
0.7300235803223919	34421837.707417056
0.7301452509191123	34435670.54439198
0.7302669417942654	34424667.23364923
0.7303886529512311	34413662.08902135
0.7305103843933897	34402655.11020269
0.7306321361241218	34391646.29688758
0.7307539081468093	34380635.64877022
0.7308757004648336	34369623.16554487
0.7309975130815778	34358608.846905634
0.7311193460004248	34386684.353997484
0.7312411992247582	34423614.393447526
0.7313630727579622	34460550.58790413
0.7314849666034219	34497492.93839319
0.7316068807645224	34534441.44594064
0.7317288152446498	34571396.1115727
0.7318507700471907	34608356.936315715
0.7319727451755319	34645323.92119618
0.732094740633061	34682448.02603687
0.7322167564231665	34719585.11444123
0.7323387925492371	34756728.39236033
0.7324608490146619	34793877.86082574
0.732582925822831	34831033.52086923
0.7327050229771347	34868195.37352269
0.7328271404809642	34905363.4198183
0.7329492783377112	34937170.44156163
0.7330714365507675	34916217.31932189
0.7331936151235259	34895260.70489512
0.7333158140593796	34874300.5976993
0.7334380333617229	34853336.99715225
0.7335602730339499	34832369.90267176
0.7336825330794556	34811399.31367552
0.7338048135016354	34790425.229581155
0.7339271143038857	34768523.428155005
0.734049435489603	34743521.200154796
0.7341717770621846	34718514.80511659
0.7342941390250283	34693504.24234588
0.7344165213815324	34668489.51114805
0.734538924135096	34643470.610828325
0.7346613472891185	34618447.540691905
0.734783790847	34593420.30004379
0.7349062548121412	34580262.67230602
0.7350287391879431	34588090.24999146
0.7351512439778078	34595919.1322732
0.7352737691851374	34603749.31936864
0.735396314813335	34611580.81149527
0.7355188808658037	34619413.60887057
0.7356414673459482	34627247.71171212
0.7357640742571725	34635083.12023747
0.7358867016028818	34676168.202301495
0.7360093493864824	34750095.89327058
0.7361320176113801	34824035.905521385
0.736254706280982	34897988.241107576
0.7363774153986956	34971952.90208312
0.7365001449679286	35045929.89050201
0.7366228949920899	35119919.20841903
0.7367456654745885	35193920.85788904
0.7368684564188344	35228651.29124775
0.7369912678282374	35241185.27858986
0.7371140997062088	35253721.354929864
0.7372369520561599	35266259.52061594
0.7373598248815024	35278799.775996275
0.7374827181856494	35291342.121419184
0.7376056319720137	35303886.557233006
0.7377285662440091	35316433.08378613
0.7378515210050496	35289965.67754257
0.7379744962585505	35251755.12540305
0.738097492007927	35213538.20483819
0.7382205082565949	35175314.914786585
0.738343545007971	35137085.254186645
0.7384666022654723	35098849.22197657
0.7385896800325165	35060606.81709452
0.7387127783125219	35022358.03847827
0.7388358971089073	35124609.45213261
0.7389590364250921	35240971.06511261
0.7390821962644963	35357352.071694866
0.7392053766305403	35473752.47511137
0.7393285775266454	35590172.2785952
0.7394517989562333	35706611.485379726
0.7395750409227259	35823070.09869853
0.7396983034295463	35937059.55566133
0.739821586480118	35995708.00540139
0.7399448900778645	36054366.229882956
0.7400682142262109	36113034.23073545
0.740191558928582	36171712.009588026
0.7403149241884034	36230399.56807036
0.7404383100091014	36289096.907812454
0.7405617163941028	36347804.03044447
0.7406851433468352	36385384.80596152
0.7408085908707264	36326279.12575598
0.7409320589692048	36267163.59460377
0.7410555476456997	36208038.21086299
0.7411790569036406	36148902.97289163
0.7413025867464579	36089757.87904725
0.7414261371775823	36030602.92768722
0.7415497082004452	35971438.11716867
0.7416732998184786	35947665.33484113
0.741796912035115	35999832.612379685
0.7419205448537874	36052008.58446449
0.7420441982779297	36104193.252544634
0.742167872310976	36156386.61806951
0.7422915669563612	36208588.682488635
0.7424152822175206	36260799.44725182
0.7425390180978901	36313018.91380909
0.7426627746009065	36366651.65896607
0.7427865517300065	36422005.6208511
0.7429103494886282	36477368.808396496
0.7430341678802096	36532741.22313977
0.7431580069081896	36588122.866618834
0.7432818665760077	36643513.74037189
0.7434057468871037	36698913.84593719
0.7435296478449182	36754323.18485339
0.7436535694528923	36749444.45178107
0.7437775117144678	36703289.549523175
0.7439014746330868	36657126.95478164
0.7440254582121922	36610956.66627427
0.7441494624552276	36564778.682718806
0.7442734873656368	36518593.00283275
0.7443975329468645	36472399.62533335
0.7445215992023557	36426198.5489377
0.7446456861355559	36398843.430646755
0.7447697937499119	36378428.940279566
0.7448939220488703	36358011.04749732
0.7450180710358784	36337589.75173295
0.7451422407143843	36317165.0524193
0.7452664310878367	36296736.94898907
0.7453906421596846	36276305.440874964
0.7455148739333779	36255870.52750949
0.7456391264123667	36302663.36773084
0.7457633996001021	36360213.89738349
0.7458876935000356	36417774.01879118
0.7460120081156189	36475343.73355232
0.7461363434503048	36532923.04326596
0.7462606995075466	36590511.949531265
0.7463850762907978	36648110.45394753
0.7465094738035127	36705796.05070843
0.7466338920491467	36783762.89321331
0.746758331031155	36861742.73019201
0.7468827907529935	36939735.563810125
0.7470072712181189	37017741.39623385
0.7471317724299886	37095760.22962965
0.7472562943920602	37173792.0661643
0.7473808371077922	37251836.9080051
0.7475054005806435	37321818.44066057
0.7476299848140736	37342064.69361574
0.7477545898115426	37362314.3209464
0.7478792155765113	37382567.32321496
0.7480038621124406	37402823.70098388
0.7481285294227926	37423083.45481575
0.7482532175110298	37443346.58527329
0.7483779263806148	37463613.09291921
0.7485026560350116	37479626.57775274
0.7486274064776842	37484122.942779325
0.748752177712097	37488620.057200074
0.7488769697417158	37493117.9211399
0.749001782570006	37497616.53472372
0.7491266162004343	37502115.89807647
0.7492514706364677	37506616.01132311
0.7493763458815739	37511116.87458862
0.7495012419392209	37521890.796065636
0.7496261588128773	37541683.70351199
0.7497510965060128	37561479.909776255
0.7498760550220971	37581279.41540823
0.7500010343646007	37601082.220957816
0.7501260345369949	37620888.326975
0.750251055542751	37640697.73400983
0.7503760973853414	37660510.442612514
0.7505011600682389	37672565.67465311
0.750626243594917	37678142.8431595
0.7507513479688495	37683720.94119396
0.7508764731935109	37689299.968911424
0.7510016192723765	37694879.926466845
0.7511267862089218	37700460.81401519
0.7512519740066232	37706042.63171145
0.7513771826689577	37711625.379710674
0.7515024121994025	37722897.74059579
0.7516276626014359	37736824.36364206
0.751752933878536	37750753.30779215
0.7518782260341824	37764684.57343294
0.7520035390718548	37778618.16095133
0.7521288729950334	37792554.07073431
0.7522542278071992	37806492.303168915
0.7523796035118337	37820432.85864227
0.7525050001124189	37832244.85761049
0.7526304176124378	37843595.40651609
0.7527558560153731	37854947.84717982
0.752881315324709	37866302.179917015
0.7530067955439299	37877658.405043006
0.7531322966765205	37889016.52287316
0.7532578187259665	37900376.53372296
0.7533833616957542	37911738.437907904
0.75350892558937	37899035.74305068
0.7536345104103016	37885199.25580843
0.7537601161620366	37871360.46248498
0.7538857428480638	37857519.36269596
0.7540113904718717	37843675.956057
0.7541370590369503	37829830.242183596
0.7542627485467898	37815982.220691204
0.7543884590048808	37806329.22845756
0.7545141904147151	37838530.95018199
0.7546399427797842	37870738.03886
0.7547657161035808	37902950.495386116
0.754891510389598	37935168.320654996
0.7550173256413296	37967391.515561424
0.7551431618622698	37999620.081000336
0.7552690190559135	38031854.017866805
0.7553948972257561	38049311.49966801
0.7555207963752938	38017154.86160007
0.755646716508023	37984992.86409248
0.755772657627441	37952825.506251946
0.7558986197370455	37920652.78718511
0.756024602840335	37888474.705998436
0.7561506069408084	37856291.261798225
0.7562766320419653	37824102.453690626
0.7564026781473054	37792397.899618946
0.75652874526033	37761549.659982
0.7566548333845401	37730696.27897177
0.7567809425234375	37699837.755731374
0.7569070726805247	37668974.08940379
0.7570332238593047	37638105.27913183
0.7571593960632813	37607231.32405812
0.7572855892959586	37576352.22332523
0.7574118035608413	37574256.02608772
0.7575380388614347	37600323.7683203
0.7576642952012449	37626395.85517659
0.7577905725837782	37652472.28738066
0.7579168710125422	37678553.0656568
0.7580431904910444	37704638.190729335
0.7581695310227928	37730727.66332269
0.7582958926112967	37756821.484161496
0.7584222752600652	37741222.02788943
0.7585486789726085	37701666.276880175
0.7586751037524372	37662103.93324573
0.7588015496030628	37622534.99588728
0.7589280165279966	37582959.46370601
0.7590545045307512	37543377.33560271
0.7591810136148396	37503788.61047806
0.7593075437837755	37464193.287232496
0.7594340950410726	37401501.20560868
0.7595606673902461	37332099.375684194
0.7596872608348112	37262685.97878799
0.7598138753782836	37193261.012992375
0.75994051102418	37123824.47636907
0.7600671677760173	37054376.36698971
0.7601938456373134	36984916.682925396
0.7603205446115863	36915445.42224712
0.7604472647023548	36783325.49400656
0.7605740059131385	36644957.426611744
0.7607007682474575	36506566.297872216
0.7608275517088319	36368152.103944875
0.7609543563007835	36229714.84098491
0.7610811820268336	36091254.50514787
0.7612080288905045	35952771.09258845
0.7613348968953197	35810938.88455143
0.7614617860448022	35600846.7112215
0.7615886963424764	35390719.522529066
0.7617156277918667	35180557.31263872
0.7618425803964988	34970360.075713225
0.7619695541598982	34760127.80591496
0.7620965490855914	34549860.497405216
0.7622235651771058	34339558.14434381
0.7623506024379685	34095896.86258266
0.7624776608717082	33706132.77438693
0.7626047404818536	33316303.725509807
0.7627318412719337	32926409.705125213
0.762858963245479	32536450.702403646
0.7629861064060198	32146426.70651492
0.7631132707570876	31756337.706626475
0.7632404563022137	31366183.691905066
0.7633676630449308	30838995.575248443
0.7634948909887717	30020157.90693215
0.7636221401372697	29201183.7656722
0.7637494104939593	28382073.12872127
0.7638767020623748	27562825.97333203
0.7640040148460518	26743442.27674929
0.7641313488485262	25923922.016217154
0.7642587040733344	25104265.168973997
0.7643860805240132	23899234.30226254
0.7645134782041005	22234298.884063955
0.7646408971171346	20569085.97662831
0.764768337266654	18903595.533708703
0.7648957986561985	17237827.50904807
0.7650232812893079	15571781.856383549
0.7651507851695227	13905458.529443568
0.7652783103003843	12238857.481949301
