#wavelength	surface flux
0.676892	117193.68955648025
0.678297	120201.40750158804
0.679702	123170.70645637573
0.681109	126147.96512429976
0.682517	129192.5422817637
0.683926	132251.74643429928
0.685337	135292.7088032018
0.686749	138376.70232499365
0.688164	141462.13366050398
0.689581	144389.11816234738
0.691	146308.55828332834
0.692422	146825.75157524264
0.693847	151315.75648251243
0.695274	156602.07392082093
0.696705	160528.2039705599
0.698139	163593.68718857042
0.699576	166867.10828335184
0.701017	169918.26621186687
0.702461	172356.21572979502
0.70391	176838.70176667956
0.705362	181265.98212571492
0.706819	184411.55502106497
0.70828	187702.79095619556
0.709745	190926.6637019961
0.711216	195168.62334018815
0.71269	198664.07381254132
0.71417	201698.03406491122
0.715655	202560.16276426136
0.717145	201501.3229962317
0.71864	207622.68561137136
0.72014	211642.79462146625
0.721647	214109.8142363405
0.723158	216055.2639615871
0.724676	217215.21602567728
0.726199	218883.67353267918
0.727728	222538.43939470037
0.729264	222027.9790474243
0.730805	225038.69929595973
0.732353	230662.06128198528
0.733907	232171.1042977854
0.735468	234006.65366885095
0.737035	234750.9299079751
0.738609	236779.39117171278
0.74019	237048.58196539344
0.741777	233618.68631412354
0.743372	230981.36308337803
0.744973	227896.2388212784
0.746582	221702.9250894746
0.748197	213599.38009855486
0.74982	202968.0504837548
0.751451	189080.7237609028
0.753088	171499.69527163057
0.754734	150472.81747051096
0.756386	125976.9564356371
0.758047	98331.72996816375
0.759715	69893.48696160005
0.76139	42309.68765202875
0.763074	19547.345815652847
0.764765	5773.448029014013
0.766464	995.7741606217975
0.768172	1330.5700408262064
0.769887	1544.8217300274523
0.77161	10915.1957375961
0.773341	35006.72856830766
0.775081	70122.44720112205
0.776829	109522.8963225048
0.778585	135861.93810146156
0.780349	156760.17794962903
0.782121	221957.34926881304
0.783902	270304.80098165787
0.785691	306744.9975201106
0.787489	339326.42366110464
0.789295	367620.2071921088
0.79111	389376.6285483644
0.792933	330075.39027071605
0.794764	180886.53541337576
0.796604	399504.8983843775
0.798453	484734.6101412493
0.80031	508560.3245423459
0.802176	528496.424461153
0.804051	547024.7588636385
0.805934	565146.0227492604
0.807826	580150.0600550744
0.809727	584225.4906478486
0.811636	588773.2799714406
0.813554	600995.9533734252
0.81548	639238.1913775282
0.817416	659956.3114371328
0.81936	678629.162854792
0.821313	692560.7013850304
0.823274	696590.2879667707
0.825244	728756.132982584
0.827223	745244.304572303
0.829211	751443.7111818385
0.831208	762352.9244049554
0.833213	788176.2408065473
0.835227	802211.2883145171
0.837249	806101.1832189189
0.83928	826644.8992972233
0.841321	864588.6071551865
0.843369	894026.100903906
0.845427	914489.4739736369
0.847493	937056.788490204
0.849567	953457.4740251136
0.851651	958191.7929227425
0.853742	990088.0808355908
0.855843	1023671.1188839647
0.857952	1045954.5201250716
0.86007	1065645.0163843352
0.862196	1070539.062373275
0.864331	1093823.2807937234
0.866474	1120516.523077785
0.868626	1142795.8797206136
0.870786	1170164.3648028176
0.872955	1194543.7376262685
0.875132	1207474.5218892358
0.877317	1228227.6691227998
0.879511	1232274.4347567747
0.881713	1250224.0347272255
0.883923	1268704.189137046
0.886142	1279892.0040973064
0.888369	1290420.6373728432
0.890604	1298125.697915284
0.892847	1245355.4543824035
0.895099	1257624.0097984457
0.897358	1325830.6808255974
0.899626	1408326.397806837
0.901901	1454852.6512016577
0.904185	1509472.1993434436
0.906476	1524892.8831628563
0.908776	1550876.20337463
0.911083	1603972.735702717
0.913398	1597117.7584277145
0.915721	1592473.1599198661
0.918051	1566122.0528062838
0.92039	1686611.3566780398
0.922736	1700626.0101434735
0.925089	1567729.4778039583
0.927451	1271363.3300946923
0.929819	956377.1570733341
0.932195	1176725.4086087982
0.934579	1131930.8032160369
0.93697	1260111.7181019618
0.939369	1496667.5569877273
0.941774	1522933.0278480593
0.944187	1252272.3123282176
0.946607	1160063.0631609445
0.949035	1424587.9250164018
0.951469	1379362.4423912365
0.953911	1445077.7959664783
0.956359	1774278.2191674297
0.958814	1433430.1284251453
0.961277	1292812.3066541883
0.963746	1356970.6920257122
0.966222	1415123.445430883
0.968705	1413031.9375858537
0.971194	1866638.2211448113
0.97369	2066355.645070004
0.976193	1976716.6612219545
0.978702	2135174.5696287225
0.981217	2177333.8451401484
0.983739	2261275.50529992
0.986268	2309770.7110904343
0.988802	2438816.2006549523
0.991343	2561552.95552314
0.99389	2603229.260748511
0.996444	2704363.4399077822
0.999003	2766084.2252188823
1.00157	2796569.5783436745
1.00414	2852611.789746623
1.00672	2939039.1266643913
1.0093	3006524.2495758166
1.01189	3074199.232520601
1.01448	3165756.621287319
1.01708	3223347.0349921845
1.01969	3274301.4916177103
1.0223	3307717.815195593
1.02492	3267496.98800883
1.02754	3348902.3101042835
1.03017	3263298.2440530886
1.0328	3504034.62306265
1.03544	3585835.1728299805
1.03808	3643304.2206710186
1.04073	3701313.5038915225
1.04339	3756135.2464230144
1.04604	3806580.445795387
1.04871	3825451.1106387153
1.05138	3863125.853176816
1.05405	3944815.898528167
1.05673	4017064.191814075
1.05941	4074099.0024641966
1.0621	4123831.8241147664
1.06479	4176756.642882349
1.06749	4225267.70127851
1.07019	4241615.888963413
1.07289	4307518.769809405
1.0756	4381589.0485246135
1.07832	4418265.256278804
1.08104	4484519.638561986
1.08376	4548381.920151167
1.08649	4567227.776502983
1.08922	4521378.699218282
1.09195	4461986.001113734
1.09469	4414402.0059996685
1.09743	4449394.323063393
1.10018	3513445.0849572555
1.10293	2685881.8010786343
1.10568	2191818.5096469605
1.10844	3272504.464529369
1.1112	2855824.690915746
1.11396	2219143.6417622003
1.11673	2205182.6455723927
1.1195	2181675.3299785997
1.12228	1630441.4250344038
1.12505	2433647.325551349
1.12783	2446662.8619992007
1.13062	2562331.9496409236
1.13341	1370197.6890252908
1.1362	2320394.597450181
1.13899	3306722.8258400448
1.14178	2957310.4416012
1.14458	3466771.9356591282
1.14738	3932704.7546865833
1.15019	2539722.859730915
1.153	1062530.124629827
1.1558	1405682.2603504905
1.15862	1541906.125901819
1.16143	1680158.7589336045
1.16425	2509230.2317328663
1.16707	3433480.6907636854
1.16989	2908915.2163217785
1.17271	3299332.523158052
1.17554	4227561.909131619
1.17837	4879400.62556339
1.1812	5113210.65897467
1.18403	5717216.252618371
1.18686	5690686.74685324
1.1897	5708420.413335896
1.19253	6274069.846513518
1.19537	6549227.930766132
1.19822	6699986.576948968
1.20106	6887309.595173547
1.2039	6774814.212670337
1.20675	6997434.985355731
1.2096	7110710.279665394
1.21245	7118925.517305628
1.2153	7365636.858486028
1.21815	7508145.046122523
1.221	7612812.007474012
1.22385	7753222.421204447
1.22671	7901961.503188554
1.22957	7984708.985480252
1.23242	8010433.637074739
1.23528	8123347.1821289705
1.23814	8256234.3099525515
1.241	8344921.629805605
1.24387	8431130.387004029
1.24673	8498401.57445886
1.24959	8540566.348257884
1.25245	8543357.984776031
1.25532	8733787.914629007
1.25818	8848703.885725416
1.26105	8834033.270693574
1.26392	8867163.120818758
1.26678	8943502.282588836
1.26965	8960514.956997862
1.27252	8951067.197546357
1.27538	9128058.008934774
1.27825	9152035.878068699
1.28112	9034464.585332667
1.28399	9202890.703561667
1.28686	9094620.651845645
1.28973	8808413.016595133
1.2926	8666623.564997196
1.29546	8922956.560755346
1.29833	9095476.806088869
1.3012	8648111.029561205
1.30407	8608388.657878106
1.30694	8518659.072414346
1.30981	8785529.93897998
1.31267	8432528.747238567
1.31554	9003285.393836252
1.31841	9569307.426107954
1.32128	8780371.655559473
1.32414	7658520.889198033
1.32701	7388452.151755229
1.32987	5927617.8894393705
1.33274	3329705.950161295
1.3356	2118637.500112771
1.33847	698225.422109073
1.34133	206106.1452494441
1.34419	532912.1942083186
1.34705	735587.5835766683
1.34991	334718.5480809312
1.35277	131258.2958475652
1.35563	216790.66011482856
1.35849	228423.1785273911
1.36135	85253.38396568417
1.3642	219677.8271253031
1.36706	232241.9711798642
1.36991	175066.6286956395
1.37277	613623.4019282608
1.37562	1327435.8048709915
1.37847	1552100.4074438564
1.38132	553393.8820528039
1.38417	52555.89912613903
1.38701	121643.80973143695
1.38986	93488.94356830946
1.39271	123181.2088911245
1.39555	204348.17020553554
1.39839	162424.78708875587
1.40123	360606.34960565023
1.40407	682391.2366013146
1.40691	959277.4293580849
1.40974	454780.1756226901
1.41258	117412.8177807699
1.41541	339481.9562107346
1.41824	433269.67608561966
1.42107	214621.46171671213
1.4239	142837.43269142194
1.42673	358318.20161623525
1.42955	622758.6872713708
1.43237	430070.57491661946
1.43519	840741.2737125473
1.43801	543481.4992157528
1.44083	680886.1151066329
1.44365	1134620.7344898914
1.44646	1302339.4788096992
1.44927	2622962.1518939445
1.45208	3392015.0047604344
1.45489	2583773.481127773
1.45769	3253132.9297957327
1.4605	3735336.6413378157
1.4633	3926040.9257234503
1.4661	4179709.143936423
1.4689	2871719.7035916694
1.47169	3048508.1696256143
1.47449	2855718.4682663307
1.47728	2768580.6447176975
1.48007	2876009.80187805
1.48286	4375203.776882564
1.48564	5603380.8178179
1.48842	5697635.3959292155
1.4912	5873812.391725349
1.49398	5552952.419104255
1.49676	4711461.787218634
1.49953	5887985.3734102305
1.5023	7207926.937021867
1.50507	7087418.168514175
1.50784	6579466.913679594
1.51061	6990535.021522399
1.51337	7538672.127085669
1.51613	8380476.307090116
1.51888	9301338.734258033
1.52164	10629538.132215021
1.52439	11456251.232581414
1.52714	10891081.62633737
1.52989	10659934.373141918
1.53263	11381011.122386781
1.53538	12179409.843254855
1.53812	12323761.535156509
1.54086	12256668.714459633
1.54359	12327105.199789692
1.54632	12970819.325008122
1.54905	13043671.56958992
1.55178	13658912.58888372
1.5545	13554157.847210629
1.55723	13052211.143395996
1.55995	13226559.246907914
1.56266	13677556.73755507
1.56538	14555722.909780066
1.56809	15024414.093184203
1.5708	14921239.106282616
1.57351	14283636.743016126
1.57621	13662556.148259364
1.57891	12407828.399631815
1.58161	13357775.003675079
1.5843	15369689.66335402
1.587	15777670.543196505
1.58969	15689359.263427515
1.59238	15499923.696396692
1.59506	15053748.481047198
1.59774	14560249.90294744
1.60042	14149455.674682666
1.6031	14197987.688525727
1.60577	14510775.708809648
1.60844	14553479.132007118
1.61111	14146794.132300746
1.61378	13562811.909997726
1.61644	13262302.541817315
1.6191	12663541.353312079
1.62176	11856554.81362674
1.62441	11353793.699420597
1.62707	10792399.936732303
1.62971	9599516.681227712
1.63236	9074459.110192277
1.635	11190732.309562646
1.63764	14176301.78465712
1.64028	15123056.787238555
1.64292	14846680.317296542
1.64555	13446092.313192023
1.64818	11007001.61953448
1.65081	10865011.718054393
1.65343	12841835.054956472
1.65605	13544532.21525823
1.65867	13770553.618171308
1.66128	13308966.76742615
1.6639	11087538.237370323
1.66651	6839150.369864654
1.66911	6012857.3511046795
1.67172	9571801.88810702
1.67432	12184672.482286679
1.67692	11928343.423127865
1.67951	10637142.229607029
1.68211	10793526.068516895
1.6847	10984167.464872336
1.68728	10050102.971842544
1.68987	9624345.619996814
1.69245	8844992.20996213
1.69503	6815306.703063719
1.6976	5683833.242783347
1.70018	6782605.7325999215
1.70275	6767319.003969893
1.70531	7178778.2456168365
1.70788	8524013.08169009
1.71044	8475254.073319413
1.713	9286124.551139383
1.71556	10066636.436202995
1.71811	10628292.905125987
1.72066	11565895.370521195
1.72321	11330146.283404905
1.72575	10837504.932890149
1.7283	10506071.548216324
1.73084	9914304.239425015
1.73337	9175706.81049727
1.73591	8685088.863598749
1.73844	8664889.124347055
1.74097	8877811.05197556
1.74349	8358863.277372493
1.74602	7553494.892002806
1.74854	7182689.3564742245
1.75105	6454594.887610937
1.75357	5379162.976557763
1.75608	6383112.077382327
1.75859	8573254.772699045
1.7611	9264492.621791951
1.7636	8753466.058227258
1.7661	6842172.7658399865
1.7686	5367541.271912301
1.7711	4000674.399457869
1.77359	2701036.807214254
1.77608	1577509.327398198
1.77857	1092164.8009927683
1.78105	1354200.3429705747
1.78354	1648334.811722081
1.78602	1273219.2533605907
1.78849	908891.1049470215
1.79097	1225514.0937171965
1.79344	1820555.0902853264
1.79591	2664701.2692513512
1.79837	3639972.9519988582
1.80084	2242677.8371852357
1.8033	819297.8364735985
1.80576	348334.4876649138
1.80821	236152.95133894286
1.81067	762289.9535029478
1.81312	1194534.6279103013
1.81557	628720.1382293976
1.81801	323001.2773624767
1.82046	833665.9626217126
1.8229	1265168.316095344
1.82533	821506.639008583
1.82777	254173.1954943934
1.8302	143734.2745383469
1.83263	296452.5406587109
1.83506	554052.3805887911
1.83749	960262.0857904856
1.83991	1146340.0938426945
1.84233	873746.9163426424
1.84475	792751.3771193706
1.84716	983360.1470365229
1.84957	1383665.1960553597
1.85198	1419544.3386276083
1.85439	715963.3472328092
1.8568	454564.2257206478
1.8592	588693.8319280669
1.8616	440119.4089377365
1.864	205961.60382707624
1.86639	155059.64748645062
1.86878	251631.58204270876
1.87118	501376.2436777182
1.87356	834528.9841861359
1.87595	1108907.096991187
1.87833	1994874.6428438385
1.88071	3388606.4149584332
1.88309	3293559.709370163
1.88547	2410361.831583157
1.88784	2100999.066901946
1.89021	1904149.302551799
1.89258	3265746.6840740168
1.89494	4394803.065202147
1.89731	2758083.49074922
1.89967	921224.1093698042
1.90203	220914.97587411196
1.90439	178262.4914164612
1.90674	317436.10968225857
1.90909	347243.3804078466
1.91144	217794.4993352638
1.91379	96670.48934029894
1.91613	91670.64979498445
1.91848	179738.61003040773
1.92082	285891.78668032825
1.92315	283330.28834297205
1.92549	203149.53352379467
1.92782	236000.6962458135
1.93015	367733.146302149
1.93248	492953.9797463826
1.93481	524326.137873563
1.93713	460978.6448847081
1.93945	501796.0767737705
1.94177	702653.5810206437
1.94409	845998.1956937547
1.94641	893384.8980522386
1.94872	1158028.3603660434
1.95103	1461974.1107683096
1.95334	948183.9649482042
1.95564	610521.7043563086
1.95795	712887.9534062262
1.96025	743300.1922218081
1.96255	765797.2848704061
1.96484	964926.3176646447
1.96714	1494479.0414071374
1.96943	2227581.827227927
1.97172	2669504.5042714844
1.97401	2425358.901248338
1.97629	2630995.0089618014
1.97858	3395986.95093442
1.98086	3864223.9009079603
1.98314	4406356.903832907
1.98541	4758052.960179478
1.98769	4366289.466963898
1.98996	3359661.8554109004
1.99223	3228035.9422426936
1.9945	3965847.5093820198
1.99677	3735585.8381882985
1.99903	3642565.6994798435
2.00129	4546269.750620683
2.00355	5871759.524367867
2.00581	6701361.576500484
2.00806	7104188.687822945
2.01031	8575422.313356124
2.01256	9156813.359448714
2.01481	8152316.081428323
2.01706	7056601.071369119
2.0193	7143041.352187124
2.02154	8554317.121171234
2.02378	9980219.58195907
2.02602	10229288.448419336
2.02825	10662770.858006872
2.03049	11322208.347941313
2.03272	12073758.541613957
2.03494	12770806.865774428
2.03717	13336427.537623588
2.03939	13807179.586162979
2.04162	14745468.093663558
2.04384	15650191.359713733
2.04605	16597515.84715339
2.04827	17369394.63015614
2.05048	17239172.17424895
2.05269	16046851.264990246
2.0549	15801885.804532418
2.05711	16338078.086983804
2.05931	17146615.50919702
2.06151	17774115.01769057
2.06371	18287185.67177542
2.06591	18619475.41281806
2.06811	18878687.231390763
2.0703	19028589.127587233
2.07249	18996010.206015423
2.07468	18664559.30222204
2.07686	18574256.20098274
2.07905	18763710.62407687
2.08123	18966495.155033667
2.08341	19057554.271967754
2.08559	19072321.310303345
2.08776	19167057.49024801
2.08994	19099392.393802904
2.09211	18869660.072711118
2.09428	18597723.98572335
2.09645	18613222.94181555
2.09861	18574684.19308948
2.10077	18443536.097765967
2.10293	18239137.90333771
2.10509	17989643.131298244
2.10725	17739855.276464384
2.1094	17886136.817227665
2.11155	18001039.636586465
2.1137	17871793.701958735
2.11585	17301801.12486329
2.11799	16882444.470561963
2.12013	16684588.997478418
2.12227	16680181.891291399
2.12441	16820416.24074255
2.12655	16922865.51891728
2.12868	16898887.554546785
2.13081	16897650.26043817
2.13294	16900747.679766115
2.13507	16554522.218309347
2.13719	15903793.51496887
2.13931	15348374.310140103
2.14143	14865574.631521113
2.14355	14099523.624098184
2.14567	13695007.465718802
2.14778	13397896.86385579
2.14989	13062008.207202323
2.152	12419918.368991211
2.1541	12621014.334127774
2.15621	12904773.117508134
2.15831	12947224.578764321
2.16041	12107677.884774202
2.16251	11685873.182531705
2.1646	11431899.708798895
2.1667	11319729.303091941
2.16879	11529247.47646091
2.17087	11753900.48922052
2.17296	11894563.708619842
2.17504	11896192.290211981
2.17713	11684542.928220332
2.1792	11295421.816504484
2.18128	10781441.277786119
2.18336	10183078.924168363
2.18543	9557081.444178818
2.1875	8919792.125084978
2.18957	8201458.685113721
2.19163	7100984.413622404
2.1937	5583722.438020992
2.19576	4083559.3408196503
2.19782	2806849.462915051
2.19987	2218553.0603002124
2.20193	1923813.8381739617
2.20398	1870267.0382356604
2.20603	1974528.3813509773
2.20808	2201819.6997667644
2.21012	2478730.533117233
2.21217	2780607.448186935
2.21421	2909934.880112816
2.21625	2856091.274858755
2.21828	2643991.100915569
2.22032	2523785.377350371
2.22235	2443167.777983026
2.22438	2330818.0193453333
2.22641	2027997.716592576
2.22843	1694499.7600248351
2.23046	1407227.7625390054
2.23248	1234257.9275176527
2.2345	1178696.8334716351
2.23651	1138432.580920183
2.23853	1098926.6655199365
2.24054	970522.6297642977
2.24255	827367.9354189495
2.24456	682853.7874872428
2.24657	709899.1050747505
2.24857	821125.8008051561
2.25057	976376.0866808908
2.25257	1033594.911056759
2.25457	1088318.7472135318
2.25656	1140990.281067807
2.25856	1191841.8848098642
2.26055	1115210.3825912809
2.26254	976565.769304213
2.26453	825300.7733633495
2.26651	739871.2957378672
2.2685	708864.6164317164
2.27048	781895.5953625963
2.27246	889680.647067684
2.27443	990922.6781512512
2.27641	1008489.6229094722
2.27838	961526.5504690297
2.28036	889520.890729414
2.28233	840774.9898042295
2.28429	801389.459396945
2.28626	763540.0826491193
2.28823	706675.1359105788
2.29019	677301.8651384076
2.29215	669384.3718474273
2.29411	709022.8476423243
2.29607	747765.3388561895
2.29802	785626.7818744814
2.29998	835006.4093336813
2.30193	946942.6128251718
2.30388	1130659.973924723
2.30583	1495362.3337856545
2.30778	1865739.925696612
2.30972	2216368.8968482446
2.31167	2199286.7552226502
2.31361	1967881.0337863406
2.31555	1356746.559579939
2.31749	896246.4475047474
2.31943	550054.1581978274
2.32137	535784.0420637793
2.32331	540502.8655862822
2.32524	560240.2452122016
2.32718	547685.0877700049
2.32911	539827.4055365162
2.33104	539385.4291101374
2.33297	530807.6039249732
2.3349	518805.14613420295
2.33683	501568.7704968033
2.33876	484504.8743039463
2.34068	466425.94954756706
2.34261	430270.4944712863
2.34453	396450.8331777227
2.34646	364902.63082351384
2.34838	385778.0512723314
2.3503	435548.862220522
2.35223	543574.6124205705
2.35415	649556.0613460417
2.35607	752879.7718236289
2.35799	827212.8345114636
2.35991	900562.7916776598
2.36183	972726.2421797935
2.36375	934249.8322624727
2.36566	840939.4555710786
2.36758	627248.015409138
2.3695	456237.8184887938
2.37142	312587.39287719526
2.37334	331174.89475347975
2.37526	363071.1213934427
2.37718	415732.8672513286
2.3791	471022.1565910872
2.38101	530716.3063673432
2.38293	618782.9895404129
2.38485	699190.8806944588
2.38677	771778.742102747
2.3887	753777.8252527469
2.39062	723406.0211438861
2.39254	696126.8429997821
2.39446	705665.8584057669
2.39639	738978.8862957236
2.39831	781606.4598420532
2.40024	802280.5351584186
2.40216	780980.7523572599
2.40409	802807.5692340555
2.40602	853179.6851536921
2.40795	1032560.9996844911
2.40989	1191273.2905569442
2.41182	1322740.778874116
2.41376	1386005.2314484234
2.4157	1452837.3714010043
2.41764	1604211.909285834
2.41958	1707271.0164370188
2.42152	1771045.6144870291
2.42347	1593853.6287270137
2.42542	1456991.6703707534
