#wavelength	surface flux
0.7	22149.148648803784
0.7001166666666666	22190.6017083064
0.7002333527777778	22230.094992994873
0.700350058336574	22269.594859897443
0.7004667833462966	22309.10131011111
0.7005835278101878	22348.614344733254
0.7007002917314895	22388.133964861107
0.7008170751134447	22427.660171592306
0.7009338779592968	22467.192966024613
0.7010507002722901	22504.57608862976
0.7011675420556689	22539.34141592764
0.701284403312678	22574.11253744668
0.7014012840465635	22608.889454152686
0.7015181842605713	22643.672167011475
0.701635103957948	22678.460676989045
0.701752043141941	22713.254985051608
0.701869001815798	22748.055092165563
0.7019859799827672	22785.537260224548
0.7021029776460976	22824.88820222271
0.7022199948090387	22864.245702711258
0.7023370314748403	22903.609762783202
0.7024540876467528	22942.98038353182
0.702571163328027	22982.357566050498
0.7026882585219152	23021.741311433034
0.7028053732316688	23061.131620773074
0.7029225074605406	23107.250245304163
0.7030396612117841	23155.97213226893
0.7031568344886527	23204.702139548197
0.7032740272944008	23253.440268495313
0.7033912396322832	23302.186520463943
0.7035084715055552	23350.940896807857
0.7036257229174727	23399.703398881178
0.7037429938712924	23448.474028038225
0.7038602843702709	23495.40976728925
0.7039775944176659	23542.04073976538
0.7040949240167356	23588.67948407027
0.7042122731707383	23635.326001499194
0.7043296418829335	23681.98029334771
0.7044470301565806	23728.64236091153
0.70456443799494	23775.31220548657
0.7046818654012724	23821.98982836907
0.7047993123788394	23866.23988541571
0.7049167789309024	23910.494522804805
0.7050342650607243	23954.756535966862
0.7051517707715678	23999.025926131097
0.7052692960666963	24043.302694527
0.705386840949374	24087.586842384284
0.7055044054228656	24131.87837093295
0.7056219894904361	24175.570407522635
0.7057395931553511	24215.413107213295
0.705857216420877	24255.262447353933
0.7059748592902804	24295.11842905124
0.7060925217668288	24334.981053412204
0.70621020385379	24374.850321543887
0.7063279055544321	24414.726234553542
0.7064456268720246	24454.60879354876
0.7065633678098366	24495.380837230914
0.7066811283711383	24538.591027175986
0.7067989085592001	24581.808418819382
0.7069167083772933	24625.033013361357
0.7070345278286895	24668.264812002453
0.707152366916661	24711.503815943328
0.7072702256444803	24754.75002638481
0.7073881040154211	24798.00344452809
0.7075060020327569	24843.082774567265
0.7076239196997625	24890.818281139185
0.7077418570197124	24938.561743628823
0.7078598139958823	24986.313163362207
0.7079777906315483	25034.07254166559
0.7080957869299869	25081.83987986532
0.7082138028944751	25129.615179288063
0.7083318385282908	25177.398441260742
0.7084498938347124	25219.756813991065
0.708567968817018	25257.516162565193
0.7086860634784875	25295.28180436413
0.7088041778224007	25333.053740436728
0.7089223118520377	25370.831971831958
0.7090404655706796	25408.616499599062
0.709158638981608	25446.407324787506
0.709276832088105	25484.204448446824
0.7093950448934531	25530.249142293418
0.7095132774009353	25580.23186114355
0.7096315296138355	25630.222910446846
0.7097498015354378	25680.222291591675
0.7098680931690269	25730.23000596665
0.7099864045178884	25780.24605496075
0.7101047355853081	25830.270439963006
0.7102230863745722	25880.303162362725
0.7103414568889679	25929.748350343867
0.7104598471317828	25979.06638275864
0.7105782571063047	26028.392634845444
0.7106966868158224	26077.727107974264
0.710815136263625	26127.06980351526
0.7109336054530023	26176.420722838877
0.7110520943872445	26225.779867315698
0.7111706030696424	26275.147238316626
0.7112891315034873	26320.98392957056
0.7114076796920712	26366.659408797543
0.7115262476386865	26412.342500604398
0.7116448353466263	26458.033206259857
0.711763442819184	26503.73152703295
0.711882070059654	26549.437464192877
0.7120007170713306	26595.15101900897
0.7121193838575091	26640.966612284148
0.7122380704214853	26687.774613055328
0.7123567767665555	26734.590415159924
0.7124755028960166	26781.414019898228
0.7125942488131658	26828.24542857062
0.7127130145213015	26875.08464247792
0.7128318000237216	26921.931662920724
0.7129506053237256	26968.786491200335
0.7130694304246129	27015.642308976094
0.7131882753296837	27062.48209218421
0.7133071400422386	27109.329682022875
0.7134260245655789	27156.185079793144
0.7135449289030065	27203.04828679639
0.7136638530578235	27249.919304334115
0.7137827970333332	27296.798133708162
0.7139017608328388	27343.684776220427
0.7140207444596443	27390.658707824794
0.7141397479170543	27437.782243308782
0.7142587712083737	27484.913632715285
0.7143778143369084	27532.05287735339
0.7144968773059646	27579.199978532284
0.7146159601188489	27626.354937561355
0.7147350627788687	27673.51775575027
0.7148541852893318	27720.68843440886
0.7149733276535467	27765.100298854955
0.7150924898748222	27806.729711046526
0.715211671956468	27848.36606147347
0.7153308739017941	27890.009351292185
0.715450095714111	27931.659581659183
0.71556933739673	27973.31675373125
0.7156885989529628	28014.980868665323
0.7158078803861218	28056.651927618615
0.7159271816995193	28085.810794285582
0.7160465028964692	28107.62656812279
0.7161658439802853	28129.445977922303
0.7162852049542819	28151.26902429011
0.7164045858217744	28173.095707832326
0.716523986586078	28194.926029155125
0.7166434072505089	28216.7599888648
0.716762847818384	28238.59758756777
0.7168823082930204	28276.127261332
0.7170017886777359	28318.278660990978
0.7171212889758488	28360.437085883204
0.7172408091906781	28402.602537179595
0.7173603493255433	28444.775016051215
0.7174799093837642	28486.954523669287
0.7175994893686615	28529.141061205315
0.7177190892835562	28571.33462983091
0.7178387091317702	28652.7484075212
0.7179583489166254	28738.11208549536
0.7180780086414448	28823.489990749244
0.7181976883095517	28908.882125654003
0.7183173879242699	28994.288492581254
0.718437107488924	29079.709093903013
0.7185568470068389	29165.143931991694
0.7186766064813399	29249.132629014057
0.7187963859157535	29296.622600599094
0.7189161853134061	29344.12048717939
0.719036004677625	29391.62629007412
0.7191558440117378	29439.140010602638
0.7192757033190732	29486.661650084647
0.7193955826029597	29534.191209839842
0.7195154818667269	29581.72869118837
0.7196354011137046	29628.052476986883
0.7197553403472235	29668.759433644984
0.7198752995706147	29709.473174795847
0.7199952787872098	29750.19370157026
0.720115278000341	29790.92101509914
0.7202352972133411	29831.655116513608
0.7203553364295432	29872.396006944917
0.7204753956522815	29913.14368752469
0.7205954748848902	29960.346209112166
0.7207155741307044	30021.772137505875
0.7208356933930594	30083.208303554213
0.7209558326752915	30144.65470896357
0.7210759919807375	30206.11135544058
0.7211961713127342	30267.578244691922
0.7213163706746197	30329.055378424902
0.7214365900697322	30390.542758346775
0.7215568295014103	30440.264568111954
0.721677088972994	30475.94413011871
0.7217973684878227	30511.62963871907
0.7219176680492374	30547.321094904244
0.7220379876605789	30583.018499665424
0.722158327325189	30618.72185399408
0.7222786870464099	30654.43115888177
0.7223990668275843	30690.14641532029
0.7225194666720555	30737.61665899616
0.7226398865831676	30793.42164940327
0.7227603265642646	30849.23594064198
0.722880786618692	30905.059534262684
0.7230012667497951	30960.89243181562
0.7231217669609201	31016.734634851487
0.7232422872554135	31072.586144921144
0.7233628276366229	31128.446963575912
0.7234833881078956	31192.480813152983
0.7236039686725803	31259.624784768166
0.7237245693340255	31326.77994704518
0.7238451900955812	31393.946301849362
0.7239658309605971	31461.123851045933
0.7240864919324239	31528.312596500793
0.7242071730144127	31595.5125400799
0.724327874209915	31662.723683649463
0.7244485955222832	31684.41832333057
0.7245693369548704	31698.58895728044
0.7246900985110294	31712.761953002613
0.7248108801941148	31726.93731089078
0.7249316820074803	31741.115031338544
0.7250525039544815	31755.295114739743
0.7251733460384739	31769.477561488176
0.7252942082628137	31783.769370412047
0.7254150906308574	31860.061843098298
0.7255359931459625	31936.367031196674
0.7256569158114868	32012.68493682642
0.7257778586307888	32089.015562107146
0.7258988216072273	32165.358909158727
0.7260198047441617	32241.7149801014
0.7261408080449525	32318.083777056025
0.72626183151296	32392.20384610234
0.7263828751515454	32451.307595577393
0.7265039389640706	32510.421195677347
0.726625022953898	32569.54464804402
0.7267461271243904	32628.67795431945
0.7268672514789111	32687.821116145886
0.7269883960208241	32746.974135165907
0.7271095607534942	32806.137013022475
0.7272307456802866	32864.034529917175
0.7273519508045666	32918.497015480134
0.7274731761297006	32972.968578124
0.7275944216590555	33027.44921936163
0.7277156873959987	33081.93894070615
0.7278369733438982	33136.43774367099
0.727958279506122	33190.94562976951
0.7280796058860397	33245.46260051578
0.7282009524870207	33292.468848217584
0.7283223193124353	33328.3602950731
0.7284437063656539	33364.25772383635
0.7285651136500483	33400.16113550446
0.7286865411689898	33436.07053107443
0.7288079889258514	33471.98591154376
0.7289294569240056	33507.90727790974
0.7290509451668262	33543.83463117016
0.7291724536576875	33585.84363548871
0.7292939823999636	33632.89398227215
0.7294155313970303	33679.952170780154
0.7295371006522632	33727.01820231956
0.7296586901690385	33774.092078197515
0.7297802999507332	33821.17379972144
0.7299019300007252	33868.26336819906
0.7300235803223919	33915.36078493798
0.7301452509191123	33977.74599960966
0.7302669417942654	34047.19436916831
0.7303886529512311	34116.65431345525
0.7305103843933897	34186.12583439958
0.7306321361241218	34255.608933930685
0.7307539081468093	34325.10361397851
0.7308757004648336	34394.609876472845
0.7309975130815778	34464.127723344354
0.7311193460004248	34546.11173708015
0.7312411992247582	34630.928972860514
0.7313630727579622	34715.760344846814
0.7314849666034219	34800.6058553952
0.7316068807645224	34885.46550686196
0.7317288152446498	34970.339301604006
0.7318507700471907	35055.22724197855
0.7319727451755319	35140.12933034312
0.732094740633061	35193.085254020305
0.7322167564231665	35244.611140180095
0.7323387925492371	35296.14561398759
0.7324608490146619	35347.68867687403
0.732582925822831	35399.24033027097
0.7327050229771347	35450.800575610076
0.7328271404809642	35502.36941432347
0.7329492783377112	35553.50035359309
0.7330714365507675	35600.250303678484
0.7331936151235259	35647.00804542222
0.7333158140593796	35693.773580122855
0.7334380333617229	35740.54690907935
0.7335602730339499	35787.32803359069
0.7336825330794556	35834.116954956124
0.7338048135016354	35880.91367447503
0.7339271143038857	35935.90258271688
0.734049435489603	36018.32397190039
0.7341717770621846	36100.75909798211
0.7342941390250283	36183.20796325147
0.7344165213815324	36265.67056999835
0.734538924135096	36348.146920513136
0.7346613472891185	36430.63701708623
0.734783790847	36513.14086200878
0.7349062548121412	36579.93261366609
0.7350287391879431	36618.93942592269
0.7351512439778078	36657.95273931475
0.7352737691851374	36696.972554925655
0.735396314813335	36735.9988738392
0.7355188808658037	36775.031697139166
0.7356414673459482	36814.07102590976
0.7357640742571725	36853.116861235125
0.7358867016028818	36903.177381746835
0.7360093493864824	36964.117813727935
0.7361320176113801	37025.06840244762
0.736254706280982	37086.02914959876
0.7363774153986956	37147.0000568745
0.7365001449679286	37207.981125968
0.7366228949920899	37268.97235857306
0.7367456654745885	37329.97375638355
0.7368684564188344	37397.59235209817
0.7369912678282374	37468.95637226279
0.7371140997062088	37540.33228643081
0.7372369520561599	37611.72009658458
0.7373598248815024	37683.119804706555
0.7374827181856494	37754.53141278
0.7376056319720137	37825.95492278813
0.7377285662440091	37897.390336714605
0.7378515210050496	37962.96820208658
0.7379744962585505	38026.791056814385
0.738097492007927	38090.62454868463
0.7382205082565949	38154.46867947014
0.738343545007971	38218.32345094411
0.7384666022654723	38282.18886488005
0.7385896800325165	38346.064923051556
0.7387127783125219	38409.95162723283
0.7388358971089073	38478.78143540545
0.7389590364250921	38548.11745281306
0.7390821962644963	38617.46502622361
0.7392053766305403	38686.82415756297
0.7393285775266454	38756.1948487576
0.7394517989562333	38825.57710173416
0.7395750409227259	38894.97091841944
0.7396983034295463	38963.941246977294
0.739821586480118	39023.244975847025
0.7399448900778645	39082.55858867145
0.7400682142262109	39141.88208709818
0.740191558928582	39201.215472774595
0.7403149241884034	39260.55874734857
0.7404383100091014	39319.911912468335
0.7405617163941028	39379.27496978224
0.7406851433468352	39436.43603100576
0.7408085908707264	39483.48775456723
0.7409320589692048	39530.5473200826
0.7410555476456997	39577.614728858935
0.7411790569036406	39624.68998220336
0.7413025867464579	39671.77308142336
0.7414261371775823	39718.86402782657
0.7415497082004452	39765.96282272081
0.7416732998184786	39814.274084946795
0.741796912035115	39865.17754082846
0.7419205448537874	39916.08948061943
0.7420441982779297	39967.009905733685
0.742167872310976	40017.93881758551
0.7422915669563612	40068.87621758932
0.7424152822175206	40119.82210715977
0.7425390180978901	40170.776487711795
0.7426627746009065	40231.94965284298
0.7427865517300065	40305.58009081316
0.7429103494886282	40379.22280052308
0.7430341678802096	40452.877784017895
0.7431580069081896	40526.545043343285
0.7432818665760077	40600.224580545335
0.7434057468871037	40673.91639767019
0.7435296478449182	40747.620496764524
0.7436535694528923	40815.53982052061
0.7437775117144678	40879.50219922188
0.7439014746330868	40943.47523831951
0.7440254582121922	41007.45893959038
0.7441494624552276	41071.45330481148
0.7442734873656368	41135.458335760115
0.7443975329468645	41199.47403421395
0.7445215992023557	41263.500401950856
0.7446456861355559	41320.8407126967
0.7447697937499119	41375.72368335795
0.7448939220488703	41430.615801180975
0.7450180710358784	41485.51706769025
0.7451422407143843	41540.42748441061
0.7452664310878367	41595.347052867146
0.7453906421596846	41650.27577458503
0.7455148739333779	41705.21365108989
0.7456391264123667	41759.51794984491
0.7457633996001021	41813.728529693864
0.7458876935000356	41867.94814463956
0.7460120081156189	41922.17679618764
0.7461363434503048	41976.41448584434
0.7462606995075466	42030.66121511603
0.7463850762907978	42084.91698550918
0.7465094738035127	42139.18200211047
0.7466338920491467	42193.509318214055
0.746758331031155	42247.84568887037
0.7468827907529935	42302.1911155884
0.7470072712181189	42356.54559987755
0.7471317724299886	42410.90914324743
0.7472562943920602	42465.281747207824
0.7473808371077922	42519.663413268936
0.7475054005806435	42573.93175142793
0.7476299848140736	42627.455250588115
0.7477545898115426	42680.9876703315
0.7478792155765113	42734.52901214486
0.7480038621124406	42788.07927751515
0.7481285294227926	42841.63846792965
0.7482532175110298	42895.20658487595
0.7483779263806148	42948.78362984166
0.7485026560350116	43001.31945986651
0.7486274064776842	43051.021869241835
0.748752177712097	43100.73256235197
0.7488769697417158	43150.45154057773
0.749001782570006	43200.1788052998
0.7491266162004343	43249.91435789931
0.7492514706364677	43299.65819975761
0.7493763458815739	43349.410332256266
0.7495012419392209	43396.572208763486
0.7496261588128773	43440.00622314602
0.7497510965060128	43483.44747653098
0.7498760550220971	43526.895970124824
0.7500010343646007	43570.35170513427
0.7501260345369949	43613.81468276624
0.750251055542751	43657.284904227774
0.7503760973853414	43700.76237072624
0.7505011600682389	43740.57903353828
0.750626243594917	43777.33959464244
0.7507513479688495	43814.10628250673
0.7508764731935109	43850.87909815234
0.7510016192723765	43887.658042600575
0.7511267862089218	43924.44311687284
0.7512519740066232	43961.234321990836
0.7513771826689577	43998.031658976375
0.7515024121994025	44029.356733594366
0.7516276626014359	44058.13269332039
0.751752933878536	44086.913449039654
0.7518782260341824	44115.69900155155
0.7520035390718548	44144.48935165553
0.7521288729950334	44173.28450015119
0.7522542278071992	44202.084447838264
0.7523796035118337	44230.88919551664
0.7525050001124189	44252.23519062019
0.7526304176124378	44271.96158745047
0.7527558560153731	44291.69127201353
0.752881315324709	44311.42424485737
0.7530067955439299	44331.160506530025
0.7531322966765205	44350.9000575796
0.7532578187259665	44370.64289855435
0.7533833616957542	44390.3890300026
0.75350892558937	44400.67076505293
0.7536345104103016	44410.509016004355
0.7537601161620366	44420.348906664265
0.7538857428480638	44430.190437305966
0.7540113904718717	44440.03360820276
0.7541370590369503	44449.878419628025
0.7542627485467898	44459.72487185521
0.7543884590048808	44468.00554389456
0.7545141904147151	44460.65709360105
0.7546399427797842	44453.30741856583
0.7547657161035808	44445.956518584775
0.754891510389598	44438.60439345372
0.7550173256413296	44431.25104296848
0.7551431618622698	44423.896466924816
0.7552690190559135	44416.54066511849
0.7553948972257561	44404.06353957826
0.7555207963752938	44374.39809393833
0.755646716508023	44344.727704057485
0.755772657627441	44315.05236911164
0.7558986197370455	44285.37208827664
0.756024602840335	44255.68686072817
0.7561506069408084	44225.99668564178
0.7562766320419653	44196.30156219285
0.7564026781473054	44154.626034826695
0.75652874526033	44091.86995616964
0.7566548333845401	44029.103418166116
0.7567809425234375	43966.32641907295
0.7569070726805247	43903.53895714664
0.7570332238593047	43840.74103064334
0.7571593960632813	43777.9326378189
0.7572855892959586	43715.113776928985
0.7574118035608413	43636.06622977484
0.7575380388614347	43541.13869758462
0.7576642952012449	43446.195344138985
0.7577905725837782	43351.23616680125
0.7579168710125422	43256.2611629338
0.7580431904910444	43161.270329898995
0.7581695310227928	43066.2636650588
0.7582958926112967	42971.24116577435
0.7584222752600652	42840.19683006386
0.7585486789726085	42688.446581147764
0.7586751037524372	42536.67104052346
0.7588015496030628	42384.87020397542
0.7589280165279966	42233.044067288254
0.7590545045307512	42081.19262624498
0.7591810136148396	41929.3158766282
0.7593075437837755	41777.41381421959
0.7594340950410726	41567.69333942613
0.7595606673902461	41341.170020654296
0.7596872608348112	41114.60894799578
0.7598138753782836	40888.01011515873
0.75994051102418	40661.37351584934
0.7600671677760173	40434.69914377356
0.7601938456373134	40207.986992635604
0.7603205446115863	39981.237056139245
0.7604472647023548	39648.76598045723
0.7605740059131385	39305.73458080907
0.7607007682474575	38962.64600926062
0.7608275517088319	38619.50025628435
0.7609543563007835	38276.297312348484
0.7610811820268336	37933.03716792217
0.7612080288905045	37589.719813472446
0.7613348968953197	37237.18760458802
0.7614617860448022	36696.702193182
0.7615886963424764	36156.126700873334
0.7617156277918667	35615.461112649806
0.7618425803964988	35074.70541349447
0.7619695541598982	34533.859588389416
0.7620965490855914	33992.92362231391
0.7622235651771058	33451.89750024343
0.7623506024379685	32868.90798675729
0.7624776608717082	32102.286412521345
0.7626047404818536	31335.53706802299
0.7627318412719337	30568.659931968537
0.762858963245479	29801.654983057597
0.7629861064060198	29034.52219998843
0.7631132707570876	28267.261561454627
0.7632404563022137	27499.87304614842
0.7633676630449308	26628.770596382677
0.7634948909887717	25537.022684014457
0.7636221401372697	24445.092813662257
0.7637494104939593	23352.980954997307
0.7638767020623748	22260.687077690818
0.7640040148460518	21168.21115140354
0.7641313488485262	20075.55314579525
0.7642587040733344	18982.71303051812
0.7643860805240132	17760.603181806968
0.7645134782041005	16384.249452497887
0.7646408971171346	15007.666330900016
0.764768337266654	13630.853778782383
0.7648957986561985	12253.81175790562
0.7650232812893079	10876.540230025557
0.7651507851695227	9499.039156890836
0.7652783103003843	8121.308500244097
