#wavelength	surface flux
0.6450077295303345	30384.698302978693
0.6472567915916443	31951.2262911967
0.6494921445846558	33777.18861769154
0.6517150402069092	35629.56748343615
0.6539263725280762	37360.77575132691
0.6561272740364075	39092.24895643786
0.6583186388015747	40818.537550894085
0.6605015397071838	42763.012977704166
0.6626768708229065	44745.93212333041
0.6648455858230591	46686.25665801506
0.6670085787773132	48551.163708047854
0.6691668033599854	47419.12544277052
0.6713210344314575	45746.29637811232
0.6734722256660461	54375.15742768613
0.6756211519241333	57067.35988685587
0.6777685880661011	59364.34798092361
0.6799154281616211	61646.91809222559
0.6820623278617859	63966.9702239762
0.6842101216316223	66340.59843322255
0.6863595843315125	68725.98022914947
0.688511312007904	71142.53504448035
0.6906660795211792	73097.08346164771
0.6928245425224304	73609.57977878347
0.6949873566627502	78089.16978184551
0.6971551775932312	81252.5065810388
0.6993286609649658	83699.15602503956
0.7015084028244019	85958.9240202289
0.7036949396133423	88968.53316744283
0.7058889269828796	92493.59422174038
0.7080909013748169	95123.01884657607
0.710301399230957	97994.02219911745
0.712520956993103	101300.47384932659
0.7147500514984131	103728.08678694577
0.7169892191886902	102835.54499993782
0.7192389369010925	107822.21198678888
0.7214996814727783	110389.79293436465
0.723771870136261	112057.21679293488
0.7260559797286987	113274.27190141674
0.7283523678779602	116032.98507872956
0.7306615710258484	117652.7732158913
0.7329838871955872	122855.50200173436
0.7353196740150452	125268.8348910218
0.7376693487167358	127575.39191064004
0.7400332689285278	130300.8112930747
0.7424117922782898	129290.33615780572
0.7448052167892456	129876.83588405175
0.7472138404846191	127317.56120941888
0.7496379613876343	122592.11049386532
0.7520779371261597	113741.00781168794
0.7545340061187744	100048.24853385332
0.7570064663887024	80133.71625370334
0.7594954967498779	54566.837899782855
0.7620013952255249	26418.710111924116
0.7645244002342224	5840.555944977841
0.7670646905899048	890.6536119817605
0.7696225643157959	1035.5639440994098
0.7721980810165405	14482.714534931194
0.7747915983200073	49110.608314971745
0.7774031162261963	87960.23030581548
0.7800329327583313	105571.71790260136
0.7826811671257019	155589.74783836654
0.7853479981422424	185705.96376991668
0.7880334854125977	209545.50374846853
0.7907378077507019	228136.3419189204
0.7934610247612	162209.04802345217
0.7962033748626709	206807.4704908799
0.7989648580551147	278499.2962970057
0.801745593547821	293956.9738800614
0.8045456409454346	307447.5417093247
0.8073651194572449	320122.901146759
0.8102040886878967	321759.37803160347
0.8130625486373901	324534.5143370291
0.8159406185150146	355072.7032708861
0.8188382983207703	368919.78268919047
0.8217556476593018	378009.00434536266
0.8246926665306091	393292.2545554511
0.8276493549346924	407402.9855126891
0.8306257724761963	412113.5545562225
0.8336219191551208	431556.3249699454
0.8366377949714661	436077.25357516215
0.8396733403205872	452850.5193615599
0.8427285552024841	485945.0838632142
0.8458034992218018	503990.61208463303
0.8488980531692505	522427.24178404134
0.8520121574401855	533524.6786963507
0.8551458716392517	559406.2305339873
0.8582990765571594	578467.2815621276
0.8614717125892639	592217.8731415403
0.8646637797355652	608751.3483060836
0.8678751587867737	628936.7355266316
0.8711057901382446	652368.5517785922
0.8743556141853333	668030.5175173363
0.87762451171875	682494.1721453569
0.8809124231338501	685818.8244091293
0.8842192888259888	701542.4741244266
0.8875449895858765	706586.737119453
0.8908893465995789	716500.753227129
0.894252359867096	675262.027798273
0.8976338505744934	734014.0943257523
0.9010337591171265	802363.2534528857
0.9044519662857056	847785.0337456771
0.9078882932662964	854005.0661020305
0.9113426208496094	902564.1478638622
0.914814829826355	897230.8614301918
0.9183048605918884	875786.2367415065
0.9218124747276306	968596.8901839778
0.925337553024292	862587.375968328
0.9288799166679382	530060.664470708
0.9324395060539246	617567.1970357645
0.9360161423683167	639232.3217544232
0.9396095871925354	832664.9509947399
0.943219780921936	745204.564727593
0.9468464851379395	613737.8710421444
0.9504896402359009	801469.3503232987
0.9541489481925964	809568.5732688967
0.9578243494033813	892252.6171543082
0.9615156054496765	690820.5112877407
0.9652225375175476	774336.3637931094
0.9689450263977051	780952.82965039
0.9726828336715698	1172761.717435692
0.9764357805252075	1113091.5790324071
0.9802037477493286	1222214.7025253677
0.983986496925354	1298915.3985443579
0.9877838492393494	1369995.3929220107
0.9915955662727356	1494336.5377180073
0.9954215884208679	1559094.8211538016
0.9992615580558777	1631239.7061078567
1.0031154155731201	1661174.0313269587
1.0069829225540161	1740249.9594301428
1.0108637809753418	1804757.5007935986
1.0147579908370972	1883252.175863708
1.018665075302124	1934678.688200176
1.022585153579712	1967397.042625695
1.0265177488327026	1973234.139001312
1.0304628610610962	1919446.0195706268
1.0344202518463135	2138403.308381737
1.0383895635604858	2189756.7572504655
1.0423706769943237	2245484.1065766453
1.0463634729385376	2294609.1173055926
1.0503677129745483	2309226.037240776
1.0543830394744873	2385661.0510828174
1.058409333229065	2449667.6542489245
1.0624464750289917	2501868.1233864236
1.0664942264556885	2554829.1402105647
1.0705522298812866	2577155.1591118597
1.0746204853057861	2657603.4517022236
1.0786986351013184	2696565.372276373
1.0827864408493042	2763903.3775488925
1.086883783340454	2791775.087351435
1.0909905433654785	2735538.9175810954
1.0951062440872192	2709458.931633238
1.0992310047149658	2389196.061755978
1.10336434841156	1506494.3517929525
1.1075061559677124	1702873.424660087
1.1116561889648438	1573526.9652583324
1.115814208984375	1150252.0715121718
1.1199802160263062	1046636.1653035852
1.124153733253479	1205943.9832395553
1.1283347606658936	1360730.6589742496
1.1325229406356812	972726.2673433251
1.1367181539535522	1626867.9952169773
1.1409201622009277	1671117.899558976
1.145128846168518	2133658.1046909783
1.1493438482284546	1750167.5299119567
1.1535650491714478	443562.8073233855
1.1577922105789185	827616.7818400615
1.1620250940322876	977406.0648369199
1.1662636995315552	1889757.311984063
1.170507550239563	1646171.3408031305
1.174756646156311	2402261.6707941703
1.1790107488632202	3059712.8217408853
1.1832695007324219	3452416.022155205
1.1875330209732056	3548265.6388841374
1.191800832748413	3863024.5276416107
1.1960728168487549	4165494.762546613
1.2003488540649414	4373751.149956925
1.2046287059783936	4329208.576688532
1.2089121341705322	4549972.7382867
1.2131990194320679	4596615.640074574
1.2174891233444214	4804260.231011813
1.2217823266983032	4913918.124035247
1.2260783910751343	5069516.263839115
1.230377197265625	5153906.730332138
1.2346785068511963	5225981.495898835
1.238982081413269	5363534.31417661
1.2432878017425537	5452678.480845461
1.2475954294204712	5517594.2547088545
1.2519049644470215	5580825.894760085
1.256216049194336	5720751.689667964
1.2605286836624146	5753416.403580546
1.2648425102233887	5795442.302721418
1.2691574096679688	5847979.794319329
1.2734732627868652	5882417.62824193
1.2777899503707886	5997945.14415888
1.2821072340011597	5930966.215178634
1.2864248752593994	5976317.642864352
1.2907428741455078	5702969.007143832
1.2950609922409058	5760148.664159091
1.2993791103363037	5823349.337673417
1.303696870803833	5568216.4333581505
1.3080145120620728	5585936.549629383
1.3123314380645752	5401025.070682471
1.3166478872299194	6050482.259537799
1.3209635019302368	5815685.490036008
1.3252781629562378	4840463.61453005
1.3295916318893433	3849910.3377098655
1.3339040279388428	1800030.3711353869
1.3382149934768677	449854.49947788886
1.3425244092941284	132449.20981620305
1.3468321561813354	398680.7142835857
1.3511382341384888	101916.10601722871
1.3554422855377197	96748.01966093107
1.3597444295883179	61355.471126761484
1.3640443086624146	86076.40731644082
1.3683418035507202	66394.8005368006
1.3726370334625244	274630.7017903774
1.3769296407699585	800086.8143588982
1.381219506263733	289430.9361031234
1.3855066299438477	28803.97392111305
1.3897908926010132	37626.885304132506
1.3940720558166504	76858.3190186867
1.3983501195907593	76788.79450830152
1.4026249647140503	257216.9267742879
1.4068963527679443	483303.01057790976
1.4111642837524414	91366.43027283563
1.4154287576675415	165189.62225122715
1.419689416885376	144548.85996620718
1.4239463806152344	60829.70490374036
1.4281994104385376	264590.59548776376
1.4324485063552856	225157.25973711707
1.436693549156189	416725.956448045
1.440934419631958	373840.3374422516
1.4451709985733032	596720.8604261923
1.449403166770935	1673240.7437575306
1.453631043434143	1863065.288090542
1.4578542709350586	2096740.654516174
1.4620729684829712	2246275.4001289746
1.4662868976593018	2586137.533718347
1.4704961776733398	1700055.2011184639
1.4747005701065063	1679619.3270432465
1.4788999557495117	1540338.8804498827
1.4830944538116455	2859293.2437390005
1.4872838258743286	3764123.2903157733
1.491468071937561	3923659.4888267107
1.4956470727920532	3212994.8789158603
1.4998208284378052	3936838.003642415
1.5039892196655273	4826918.4028005
1.5081522464752197	4370788.770793903
1.5123097896575928	4884106.748769118
1.5164618492126465	5787660.778458189
1.5206083059310913	6948520.333372351
1.5247491598129272	7991711.382854379
1.5288842916488647	7358396.310954812
1.5330137014389038	8046755.2342349235
1.5371372699737549	8604363.42421129
1.541254997253418	8571888.860907398
1.545366883277893	8940741.241533345
1.5494728088378906	9213583.46965002
1.5535727739334106	9643417.592657398
1.5576666593551636	9076923.031447755
1.561754584312439	9335125.356369158
1.5658363103866577	10277176.110606702
1.5699119567871094	10591445.279890789
1.5739814043045044	9893127.737674946
1.5780447721481323	8623410.419951959
1.582101821899414	9348036.327412086
1.5861525535583496	11135783.781445676
1.5901970863342285	11028559.863780728
1.5942351818084717	10672228.542311108
1.5982669591903687	10040070.114910636
1.6022924184799194	9667635.927203322
1.606311559677124	10100931.441857273
1.6103241443634033	9828001.35983068
1.6143304109573364	9158712.945823908
1.6183301210403442	8668103.765472814
1.6223233938217163	7693476.3308775015
1.6263102293014526	7051906.151184078
1.6302905082702637	5740189.557499876
1.634264349937439	6531534.159511279
1.638231635093689	10034353.699796585
1.6421923637390137	10278812.542748561
1.646146535873413	8478121.678321963
1.6500942707061768	6512030.553377905
1.6540353298187256	8832218.932051603
1.6579699516296387	9302656.709503716
1.661897897720337	8745568.25689774
1.6658192873001099	5139645.596518867
1.6697341203689575	4163665.366237807
1.6736423969268799	7906515.079088063
1.677544116973877	7468282.84765351
1.6814392805099487	6698202.811950349
1.6853278875350952	6771698.678731639
1.6892099380493164	5964582.01314908
1.6930854320526123	5214052.547558033
1.696954369544983	3332902.768942416
1.7008168697357178	3921095.989799883
1.7046726942062378	3887567.0259955013
1.708522081375122	5321812.794388754
1.712364912033081	5623268.051071595
1.7162011861801147	6589416.66775124
1.7200311422348022	7647713.070231244
1.723854422569275	7366191.704220806
1.7276713848114014	6905306.608460483
1.731481909751892	6341667.361501746
1.7352858781814575	5725707.889870033
1.7390835285186768	5774241.776151016
1.7428747415542603	5746913.478606606
1.7466596364974976	4944767.180391066
1.7504380941390991	4502370.058775907
1.7542102336883545	3382331.996028471
1.7579760551452637	5397095.55533079
1.7617355585098267	6097168.105318744
1.7654887437820435	4775445.189992804
1.7692357301712036	3283178.2275503124
1.7729763984680176	1866284.3481808035
1.776710867881775	798134.4922941513
1.7804391384124756	706320.8313034045
1.7841613292694092	984968.5184404135
1.7878772020339966	547254.2292274572
1.7915871143341064	784782.3578824879
1.7952908277511597	1545260.793490276
1.7989884614944458	2296806.546373898
1.8026801347732544	714009.2736208455
1.806365728378296	158951.70996653746
1.8100452423095703	337226.46244711336
1.8137187957763672	575447.1086551287
1.817386507987976	132847.3516725269
1.8210482597351074	571489.8787247724
1.8247040510177612	557147.780445263
1.828354001045227	100816.1911491644
1.8319982290267944	113552.12378141811
1.8356364965438843	333699.7046008075
1.8392690420150757	667812.9245065533
1.8428958654403687	432396.27437450876
1.8465168476104736	473733.28972729406
1.8501322269439697	911886.3211674365
1.8537418842315674	525602.7145278966
1.8573459386825562	292302.0386994438
1.860944390296936	294679.8870747526
1.864537239074707	92968.96508166577
1.8681244850158691	85592.97245504853
1.871706247329712	288467.19687723345
1.8752825260162354	507333.4708638424
1.8788533210754395	1495574.9844410587
1.8824186325073242	2229288.323481539
1.8859784603118896	1503039.1217885704
1.8895330429077148	1209273.3277576067
1.8930821418762207	2286194.814828448
1.8966259956359863	2227151.0731560355
1.9001644849777222	316482.19475789997
1.9036977291107178	61377.75659029978
1.9072256088256836	150002.25939703564
1.9107483625411987	113323.21678981956
1.9142658710479736	35554.89700194255
1.9177782535552979	63594.583912010574
1.9212853908538818	135481.25884155705
1.9247875213623047	104809.67039004884
1.9282845258712769	122751.3827283751
1.9317764043807983	229389.59952454487
1.9352631568908691	273475.34352178825
1.9387450218200684	247976.63854714658
1.942221760749817	435658.16801952117
1.9456936120986938	481867.81573157484
1.9491604566574097	773946.3153454539
1.952622413635254	696031.8451518319
1.956079363822937	341151.03053224116
1.959531545639038	436325.6974047032
1.962978720664978	456168.77601602953
1.966421127319336	787065.441239438
1.9698586463928223	1573072.9923133173
1.9732913970947266	1695534.8767022835
1.9767193794250488	1872827.4979917633
1.9801424741744995	2637043.8025339693
1.9835609197616577	3211382.871983463
1.9869745969772339	3359035.772886585
1.990383505821228	2316764.5034159524
1.9937876462936401	2667559.4151514997
1.9971871376037598	2619208.292701393
2.000581979751587	2889268.008603426
2.003972291946411	4424103.01629181
2.007357597351074	5161860.551482157
2.0107386112213135	6653209.802697189
2.0141148567199707	6465629.097531945
2.017486572265625	5109594.385946713
2.0208535194396973	6137901.827020109
2.0242159366607666	7626576.41046432
2.027573823928833	7948802.878492526
2.0309269428253174	8719775.72117282
2.034275770187378	9648835.248647967
2.0376198291778564	10365176.530746602
2.040959596633911	11195726.287657602
2.044294595718384	12341406.961043943
2.0476250648498535	13557674.95032888
2.0509510040283203	13158658.88389411
2.054272413253784	12245503.009536654
2.057589530944824	12877513.929891735
2.0609018802642822	13738446.148195155
2.0642096996307373	14323247.825517729
2.0675129890441895	14654891.870180726
2.0708119869232178	14879442.572420128
2.074106216430664	14693745.82549661
2.0773961544036865	14526631.584452607
2.080681324005127	14826394.868687399
2.0839622020721436	14881778.014338719
2.087238311767578	14917797.190396661
2.090510129928589	14872215.556533601
2.0937774181365967	14509239.516873734
2.0970399379730225	14498890.451191515
2.1002981662750244	14379267.927275851
2.1035518646240234	14108301.553869255
2.1068007946014404	13790720.593533816
2.1100454330444336	13872681.519957196
2.1132853031158447	13819316.610872947
2.116520881652832	13089170.11146799
2.1197516918182373	12657019.129075449
2.1229779720306396	12640657.826064464
2.12619948387146	12781189.994148824
2.1294167041778564	12752938.902138725
2.132629156112671	12825614.469206532
2.1358368396759033	12308762.8804371
2.139039993286133	11475350.051291028
2.1422386169433594	10737231.966106664
2.145432472229004	9980254.73171708
2.1486217975616455	9580832.592922177
2.151806354522705	8844507.887151977
2.1549863815307617	9109298.66294421
2.1581614017486572	9382129.286330184
2.16133189201355	8393770.035138
2.1644976139068604	8008368.621687332
2.167658567428589	8020881.323255619
2.1708147525787354	8382248.68111933
2.173966407775879	8611419.762314694
2.1771130561828613	8500496.030223185
2.1802549362182617	7995534.70015059
2.183391809463501	7273030.406025983
2.1865241527557373	6499106.25021806
2.1896514892578125	5647225.388072966
2.1927738189697266	4214452.026585528
2.1958916187286377	2471825.129225505
2.1990041732788086	1374885.2606576495
2.2021119594573975	1028936.2724959835
2.2052149772644043	1085746.1657745242
2.208312749862671	1321573.597935319
2.2114057540893555	1603845.8840694886
2.214493751525879	1737706.5391089686
2.217576742172241	1566833.1455427695
2.2206547260284424	1410245.3406356934
2.2237277030944824	1344524.8175335806
2.2267956733703613	1085428.3556933303
2.2298583984375	773923.0810095093
2.2329163551330566	621137.0419482202
2.235969066619873	580542.6762465088
2.2390167713165283	533844.0745550799
2.2420592308044434	422668.55515691335
2.2450966835021973	327816.831734002
2.248128890991211	379815.1692627445
2.2511560916900635	496055.1922076588
2.254178285598755	545282.5912388188
2.257194995880127	592488.0220022181
2.260206699371338	581122.9309501769
2.2632133960723877	461306.18467987375
2.266214609146118	368129.06191090116
2.2692108154296875	363790.9524227436
2.2722020149230957	441796.2057251627
2.2751877307891846	512190.9306682516
2.278168201446533	497302.7154141671
2.2811436653137207	442149.5162182135
2.284113883972168	409326.86764325405
2.287078857421875	376255.583244844
2.290038824081421	340066.17173769913
2.2929933071136475	341843.0354406667
2.295942783355713	371840.63471579226
2.298887014389038	401915.20134270017
2.301826238632202	475084.730232748
2.304760217666626	693248.8271729345
2.3076889514923096	1059102.1703088584
2.310612440109253	1332196.4259849838
2.3135311603546143	1171183.0957901536
2.3164443969726562	614878.2626766938
2.319352865219116	277742.1242945315
2.322256088256836	273067.8332682102
2.3251543045043945	294699.69547501625
2.328047275543213	283924.6026017464
2.330935478210449	279355.2831035274
2.3338186740875244	269117.22817636706
2.3366971015930176	253555.2938192798
2.3395702838897705	237848.06697635067
2.3424389362335205	212752.99558716913
2.3453025817871094	184801.53726395033
2.348161458969116	183454.68767998638
2.351015567779541	233618.7527820952
2.353865146636963	318872.1466670878
2.3567099571228027	395654.2167559455
2.3595502376556396	454769.0655466045
2.3623859882354736	504508.0446115624
2.3652172088623047	455755.0776099692
2.368043899536133	285059.459444112
2.370866537094116	169564.63892741705
2.3736846446990967	162466.88714918337
2.3764986991882324	199954.8550615323
2.3793084621429443	249554.77287296855
2.3821144104003906	312828.04547623725
2.384916305541992	381150.1839851411
2.387714147567749	414636.31680198316
2.3905084133148193	381287.27066207386
2.393299102783203	355234.83912828856
2.3960859775543213	384471.35953670414
2.398869514465332	421606.3331734891
2.4016497135162354	419207.5726981814
2.4044265747070312	436821.57130781264
2.407200336456299	534780.9336470525
2.409970998764038	681790.3378082563
2.4127390384674072	784117.2485252201
2.415503978729248	830224.6912079033
2.418266534805298	970323.5627840755
2.4210267066955566	1041735.1458063283
2.4237842559814453	921899.7043948699
2.426539897918701	874524.4930652812
2.429293394088745	1032167.3162328114
2.4320452213287354	1266130.5598156168
2.4347951412200928	1318521.8018845606
2.4375438690185547	1253351.208775933
2.440291166305542	1310309.6939231404
2.443037271499634	1269192.7732156373
2.445782423019409	1076048.1151139576
2.4485268592834473	887251.921780355
2.451270818710327	881710.0729341812
2.454014539718628	1098397.3061321191
2.4567582607269287	1281121.8053263333
2.4595019817352295	1329614.7455624638
2.4622461795806885	1452704.6174365133
2.4649908542633057	1366074.6559854448
2.4677364826202393	1064801.6919005157
2.4704833030700684	720704.3731094917
2.473231554031372	524265.95614946773
2.4759814739227295	431618.5758550926
2.4787333011627197	408572.42151413346
2.481487512588501	437549.27166412957
2.4842441082000732	447453.69672362733
