#wavelength	surface flux
0.676892	14114.237308296835
0.678297	14762.087569077294
0.679702	15413.590184066534
0.681109	16069.322777759666
0.682517	16735.244725044766
0.683926	17401.631740356202
0.685337	18065.457403918554
0.686749	18737.042024079812
0.688164	19399.570689731998
0.689581	20011.235177622624
0.691	20375.640959450808
0.692422	20303.01887516072
0.693847	21189.74003315599
0.695274	22353.55730073973
0.696705	23174.60026303339
0.698139	23696.578511469204
0.699576	24239.60317854016
0.701017	24674.29730354386
0.702461	24926.70754925692
0.70391	25748.186235060737
0.705362	26460.111068210503
0.706819	26785.056013594196
0.70828	27131.397236223132
0.709745	27375.08084198564
0.711216	27851.0205364207
0.71269	28058.64210196393
0.71417	28082.83308408783
0.715655	27512.638854193476
0.717145	26392.10921553863
0.71864	26936.98456495438
0.72014	27017.96955680216
0.721647	26805.74552797145
0.723158	26091.033177005644
0.724676	25043.027340385168
0.726199	24321.679994644815
0.727728	24041.630539891095
0.729264	22868.981926162538
0.730805	22306.15600995219
0.732353	22244.80343414998
0.733907	21319.938558373276
0.735468	20508.61339950489
0.737035	19482.00687808265
0.738609	18513.22903124604
0.74019	17471.62629826407
0.741777	16047.095546742969
0.743372	14811.530564968845
0.744973	13668.43694083451
0.746582	12365.428495160459
0.748197	11086.969884016724
0.74982	9820.776407822757
0.751451	8560.199069666742
0.753088	7348.669006618777
0.754734	6189.977692751853
0.756386	5091.788513459516
0.758047	4059.5062501600974
0.759715	3108.74816478923
0.76139	2217.8417308645103
0.763074	1398.6307992702532
0.764765	686.8213626582963
0.766464	269.2199880526525
0.768172	338.05095393690436
0.769887	294.6644158708342
0.77161	1028.3203264165631
0.773341	2207.8020770611834
0.775081	3539.0554118176015
0.776829	5043.146967512457
0.778585	6235.177671062619
0.780349	7419.576028318547
0.782121	10656.183285631321
0.783902	13749.719719636323
0.785691	16820.927553615995
0.787489	20201.134980183302
0.789295	23772.695826534866
0.79111	27133.89044865002
0.792933	23785.229854462184
0.794764	14464.185746290865
0.796604	34597.13687861505
0.798453	46835.23823470262
0.80031	53753.69296746464
0.802176	60293.54164414206
0.804051	67125.09788419571
0.805934	74354.9824400326
0.807826	81279.09040853461
0.809727	85819.58760833429
0.811636	89886.3689799189
0.813554	95989.28609264664
0.81548	111063.70858530898
0.817416	121619.76795632801
0.81936	132197.3289586408
0.821313	140635.8784035559
0.823274	145247.81152804542
0.825244	161681.8431587114
0.827223	172263.8600876449
0.829211	178375.02095415394
0.831208	186420.84790479727
0.833213	201613.68169175347
0.835227	211639.05581649346
0.837249	217828.35059895655
0.83928	232130.20791677842
0.841321	255960.18015694656
0.843369	277465.01422254817
0.845427	291792.2032649619
0.847493	309315.86993218126
0.849567	310419.5188426434
0.851651	281005.61420057615
0.853742	323347.65378814406
0.855843	374418.350439504
0.857952	395753.8998518026
0.86007	413591.54113306064
0.862196	428159.86406539095
0.864331	446353.86546192283
0.866474	465246.0901730267
0.868626	486418.6416079154
0.870786	509988.1482221602
0.872955	530156.168534522
0.875132	548041.3203183035
0.877317	567661.5088269644
0.879511	579941.2204604297
0.881713	579404.8272279205
0.883923	583318.7891828102
0.886142	595959.8904693217
0.888369	595090.8194546243
0.890604	595980.0837144658
0.892847	515446.864666055
0.895099	498655.1810732263
0.897358	588401.8089341399
0.899626	695464.4508236365
0.901901	745237.5819758521
0.904185	800110.6943184
0.906476	803800.065187734
0.908776	823335.3956361777
0.911083	880531.7277377688
0.913398	857710.7719383549
0.915721	851471.8331984841
0.918051	813242.324537598
0.92039	936902.4595010811
0.922736	946062.393795228
0.925089	793181.9680673186
0.927451	505363.4247116906
0.929819	293296.25728500105
0.932195	411451.7794094169
0.934579	359631.72119860793
0.93697	445371.112486262
0.939369	646611.0828280357
0.941774	653612.1285695413
0.944187	420089.0308793402
0.946607	346786.9193151406
0.949035	519149.1870007804
0.951469	510674.9014906615
0.953911	558801.9551956938
0.956359	829284.9738057493
0.958814	552202.2082649494
0.961277	428846.5927471941
0.963746	460407.4445205336
0.966222	492817.1526950263
0.968705	507883.2423339872
0.971194	887292.5317272568
0.97369	1052618.0912638207
0.976193	961495.6311642266
0.978702	1112666.8221771508
0.981217	1138522.7611215443
0.983739	1225180.0072564161
0.986268	1257689.7031249388
0.988802	1403406.380032861
0.991343	1557788.9834798651
0.99389	1579651.296361062
0.996444	1684125.684069575
0.999003	1745960.7487568855
1.00157	1772169.7341247888
1.00414	1826256.4444527614
1.00672	1914890.1231716855
1.0093	1974546.6786477496
1.01189	2043904.5859581698
1.01448	2145582.346465159
1.01708	2194991.109200315
1.01969	2234727.7217406966
1.0223	2264749.21401825
1.02492	2271890.077009356
1.02754	2290643.0918673724
1.03017	2342716.258825171
1.0328	2439164.536721677
1.03544	2494475.2112107244
1.03808	2537141.95181194
1.04073	2577541.5445351917
1.04339	2606001.439254657
1.04604	2635485.146158957
1.04871	2657148.6255255337
1.05138	2688763.501453596
1.05405	2735506.4285176084
1.05673	2781698.496186102
1.05941	2816541.560325357
1.0621	2839551.3543375954
1.06479	2865183.3871191912
1.06749	2891926.2339088037
1.07019	2866190.951395149
1.07289	2911665.5002619536
1.0756	2971494.4174101045
1.07832	2980215.1794025307
1.08104	3014552.90089119
1.08376	3064843.7710899822
1.08649	3045615.81269554
1.08922	2907457.8854349065
1.09195	2756453.5887985826
1.09469	2628901.7586105643
1.09743	2617118.551009835
1.10018	1644180.0322466157
1.10293	954775.7168285076
1.10568	652790.4731650818
1.10844	1289941.164699247
1.1112	968699.5507409159
1.11396	541511.4445783802
1.11673	543651.9246812797
1.1195	509203.7430162096
1.12228	299186.22506374354
1.12505	571515.6385410824
1.12783	594857.9708741537
1.13062	694120.7419755901
1.13341	280852.32694992993
1.1362	753178.9633255401
1.13899	1158870.062543776
1.14178	849323.10480453
1.14458	1130213.3383623501
1.14738	1447544.2614476196
1.15019	680551.2547819506
1.153	139220.57628406037
1.1558	201519.6354247473
1.15862	246918.99553110744
1.16143	291860.36658880045
1.16425	622785.1105531851
1.16707	1026662.5826668403
1.16989	786234.442954086
1.17271	1043428.4749323762
1.17554	1658216.70442693
1.17837	2165985.546580534
1.1812	2402451.409756846
1.18403	2987252.693307189
1.18686	2979641.0993196685
1.1897	2996662.7807836295
1.19253	3611257.4817824485
1.19537	3920975.330810702
1.19822	4084706.3729562187
1.20106	4284304.960132637
1.2039	4309274.367967455
1.20675	4463839.017774779
1.2096	4476504.27538728
1.21245	4450557.38174527
1.2153	4727527.975723428
1.21815	4887919.654066611
1.221	5003844.38309194
1.22385	5165562.319195659
1.22671	5336608.272138712
1.22957	5433309.65905279
1.23242	5412632.27807807
1.23528	5527813.491316661
1.23814	5681008.0481043
1.241	5766583.416643206
1.24387	5851245.470394856
1.24673	5939723.128311226
1.24959	6006540.906174199
1.25245	6065811.9493184
1.25532	6177545.484341516
1.25818	6282572.646292715
1.26105	6252595.630998368
1.26392	6248028.794703323
1.26678	6316504.468454366
1.26965	6329848.272273576
1.27252	6236444.311641199
1.27538	6436576.410008528
1.27825	6377775.192472039
1.28112	6131294.234687904
1.28399	6331280.56708274
1.28686	6143419.835612807
1.28973	5668795.1153570805
1.2926	5402560.602132159
1.29546	5719071.718273598
1.29833	5931018.768045609
1.3012	5235338.637707139
1.30407	5162733.8041315675
1.30694	4927249.390367286
1.30981	5181866.175025602
1.31267	4635172.818342288
1.31554	5375578.5342085995
1.31841	6156248.528066016
1.32128	5048236.1510986695
1.32414	3731943.8691470036
1.32701	3489714.2132183863
1.32987	2357634.3855264755
1.33274	944567.8345302978
1.3356	521891.11572069384
1.33847	131547.7247307378
1.34133	29429.674640889803
1.34419	70398.67678052372
1.34705	92960.22568913591
1.34991	32956.681642290554
1.35277	9709.244780293513
1.35563	20665.602531579858
1.35849	20267.25601743878
1.36135	5021.162780423437
1.3642	15156.31954693515
1.36706	16509.07406427707
1.36991	11408.439344862189
1.37277	59488.00570879632
1.37562	156458.91549993333
1.37847	185463.77453279195
1.38132	56354.40875359388
1.38417	3363.870216362902
1.38701	9053.99012933843
1.38986	6955.043109791572
1.39271	7902.565141636158
1.39555	14826.38353061802
1.39839	19277.007080222993
1.40123	46148.702145232724
1.40407	75779.2744902959
1.40691	106588.03370377913
1.40974	47885.72032734398
1.41258	10386.140424754652
1.41541	37245.955806919395
1.41824	47113.53561285726
1.42107	19876.741080076998
1.4239	12988.677926608967
1.42673	34180.24451530958
1.42955	64714.567935746134
1.43237	57099.82945151077
1.43519	145024.6908859822
1.43801	83046.21851073654
1.44083	96166.98119791449
1.44365	177389.53905062375
1.44646	232034.54999122134
1.44927	570372.577483009
1.45208	799024.67951935
1.45489	588278.9054333906
1.45769	766533.479589388
1.4605	911680.085092095
1.4633	998946.5041908614
1.4661	1062556.85325878
1.4689	568899.2018534743
1.47169	513496.9904760074
1.47449	431850.5498115747
1.47728	359362.2510801959
1.48007	388031.3917184825
1.48286	712375.1982911893
1.48564	989803.0591754189
1.48842	961806.8822045826
1.4912	779508.0994034625
1.49398	508222.41325343197
1.49676	425981.2612845638
1.49953	731547.4461238526
1.5023	1199854.7805168936
1.50507	1269153.656070235
1.50784	1070096.451255789
1.51061	1037918.1319322635
1.51337	1251574.1829984256
1.51613	1466358.8764659036
1.51888	1692438.996723104
1.52164	2112683.6481289933
1.52439	2612213.315386103
1.52714	3133610.1345159104
1.52989	3529008.3388296664
1.53263	3432554.334624674
1.53538	3140158.146760524
1.53812	4185164.245371074
1.54086	5002447.136843958
1.54359	5190297.489876925
1.54632	5434490.886870438
1.54905	5257872.092886686
1.55178	5691252.854505588
1.5545	6295899.771160136
1.55723	6409336.220532315
1.55995	6943908.518015155
1.56266	7724213.585980434
1.56538	8305034.409378543
1.56809	8415747.959126364
1.5708	8305290.371101984
1.57351	8090122.624411971
1.57621	8020857.038211391
1.57891	7758751.2651184015
1.58161	8176207.703562884
1.5843	8739203.50368882
1.587	8867172.589837853
1.58969	8760520.793159474
1.59238	8480219.400626378
1.59506	8134830.545626551
1.59774	7835701.947431477
1.60042	7739374.904474995
1.6031	7386092.955559399
1.60577	7042077.076788816
1.60844	6968369.819655194
1.61111	6974046.162026553
1.61378	6542985.095149873
1.61644	5871070.426197491
1.6191	5316440.657846707
1.62176	4668155.922145506
1.62441	3845819.2617471693
1.62707	3346565.0730900737
1.62971	2652682.9956851713
1.63236	2275411.457870449
1.635	3634036.914434125
1.63764	5746690.690800068
1.64028	6518757.989870509
1.64292	6254621.681437927
1.64555	5009575.071745098
1.64818	3183787.0863229227
1.65081	3024122.6223850455
1.65343	4289130.333555101
1.65605	4756303.219924947
1.65867	4995686.171771455
1.66128	4675963.2092879545
1.6639	3532929.2373904325
1.66651	1765935.3554307858
1.66911	1179772.2013192244
1.67172	2513700.742595151
1.67432	3645742.1268244125
1.67692	3371811.0100097065
1.67951	2594684.531150228
1.68211	2617180.785764729
1.6847	2684071.0624774806
1.68728	2182766.315340684
1.68987	2017652.4108237776
1.69245	1828033.6440322455
1.69503	1203002.1338262232
1.6976	839447.0557047443
1.70018	1082746.1709575152
1.70275	1083823.505977166
1.70531	1276985.341581888
1.70788	1707361.8493944416
1.71044	1752944.187265328
1.713	2123597.9435597314
1.71556	2390425.941065064
1.71811	2622365.070698734
1.72066	3020053.5199877704
1.72321	2865826.2402257817
1.72575	2590021.927472437
1.7283	2468763.0717327455
1.73084	2303493.8209182913
1.73337	2091224.7843455288
1.73591	1983481.8933920064
1.73844	2046649.9014591563
1.74097	2174136.7634760677
1.74349	2079002.7062719506
1.74602	1876904.831550873
1.74854	1784881.9929913406
1.75105	1601770.1235640934
1.75357	1307236.1886634775
1.75608	1538301.4055518073
1.75859	2024231.84082855
1.7611	2039409.7262059909
1.7636	1817769.5715059892
1.7661	1428181.9012802527
1.7686	1165220.5124252108
1.7711	856705.1914353208
1.77359	552033.290022569
1.77608	319912.07742147613
1.77857	221332.19812335697
1.78105	260892.1068411001
1.78354	305733.1814940195
1.78602	234005.96253570408
1.78849	167838.04453870567
1.79097	216630.29936659292
1.79344	317153.5012910834
1.79591	501075.6811010598
1.79837	714781.236696295
1.80084	429455.80898470315
1.8033	134109.13352058778
1.80576	50469.6138985051
1.80821	29266.301651274996
1.81067	92384.39200104219
1.81312	144374.01812516723
1.81557	73530.90706846747
1.81801	36273.61520254657
1.82046	100296.09248016308
1.8229	152828.60280537704
1.82533	96612.60820890879
1.82777	27027.05329221859
1.8302	13584.860541208505
1.83263	32578.735691173013
1.83506	65515.038740809774
1.83749	117007.3423693367
1.83991	140663.60872590315
1.84233	110219.74218315355
1.84475	108343.89857617348
1.84716	151622.96568085192
1.84957	246492.3726644257
1.85198	266917.92864383134
1.85439	134178.4196603118
1.8568	88131.89128295038
1.8592	118730.16594980955
1.8616	86856.4214160612
1.864	32870.81293399353
1.86639	13927.681906551108
1.86878	22622.130011816298
1.87118	55535.601096621125
1.87356	102742.68485506388
1.87595	160468.6597803364
1.87833	375225.8321741403
1.88071	709601.3066197092
1.88309	717961.6843441111
1.88547	514884.13966323785
1.88784	405118.755961793
1.89021	333509.47826303105
1.89258	566505.3485167536
1.89494	768523.4929450027
1.89731	466553.3527084204
1.89967	138057.21560720034
1.90203	21310.989001721282
1.90439	11978.000623065596
1.90674	23770.844076983925
1.90909	26256.75188284004
1.91144	15787.611388297944
1.91379	6186.068123068728
1.91613	7031.390475345075
1.91848	17914.57180574035
1.92082	31467.34450513577
1.92315	31417.87456579291
1.92549	19831.54509982066
1.92782	20682.37533288017
1.93015	29911.509163009978
1.93248	33505.422315273834
1.93481	32440.317066922806
1.93713	31455.623020050716
1.93945	33938.600948372274
1.94177	43461.996473352185
1.94409	61321.02893362783
1.94641	87905.45141772457
1.94872	122432.06547496149
1.95103	147011.80717550396
1.95334	95531.86408842533
1.95564	55376.8546651187
1.95795	56234.33391291031
1.96025	76148.08740489987
1.96255	117146.35949530343
1.96484	162542.92388493932
1.96714	201026.3580933964
1.96943	233775.7398205792
1.97172	257244.028174863
1.97401	241739.54221637791
1.97629	193870.96402091123
1.97858	161955.9953921951
1.98086	214593.91642424895
1.98314	357942.27097320976
1.98541	482413.4180805897
1.98769	496712.22975066537
1.98996	442491.29879326385
1.99223	501685.64075875026
1.9945	668254.8440064916
1.99677	604185.4366824611
1.99903	583800.9697503529
2.00129	694258.0819041807
2.00355	837416.1238856997
2.00581	907242.1921587373
2.00806	957522.7620048969
2.01031	1229576.8909547694
2.01256	1320839.1608526262
2.01481	1056638.4398812419
2.01706	778173.3681226844
2.0193	659593.8221544372
2.02154	641044.3551834455
2.02378	524074.3016036937
2.02602	579692.3142189514
2.02825	834209.6683377643
2.03049	975913.2270646774
2.03272	991623.7258784444
2.03494	1013618.2962221196
2.03717	1213729.5447358869
2.03939	1591659.6012155642
2.04162	1788357.677200767
2.04384	1988401.764582205
2.04605	2280155.9682008233
2.04827	2582115.554311744
2.05048	2624912.4724037326
2.05269	2314835.0308907996
2.0549	2138808.1326639373
2.05711	2258309.9833505587
2.05931	2532513.5236494737
2.06151	2749204.046720253
2.06371	2803580.9647729723
2.06591	2823344.309713601
2.06811	2826355.8281955807
2.0703	2809974.995330192
2.07249	2781884.6500932537
2.07468	2766915.454038551
2.07686	2806959.3714561122
2.07905	2850007.605956038
2.08123	2869078.902830549
2.08341	2860178.7419348126
2.08559	2842861.7128238613
2.08776	2843755.7672278844
2.08994	2834563.3643127386
2.09211	2809638.8587243026
2.09428	2775567.285600446
2.09645	2759103.532425676
2.09861	2730038.431998594
2.10077	2692836.5378515613
2.10293	2644922.4485516036
2.10509	2584135.58914842
2.10725	2509637.6787088537
2.1094	2503447.9987736554
2.11155	2507237.19745839
2.1137	2490357.8601680645
2.11585	2422347.9318440817
2.11799	2363976.6046823706
2.12013	2317682.6309054913
2.12227	2290237.425039452
2.12441	2285212.0058803624
2.12655	2288265.272998434
2.12868	2272069.9626693777
2.13081	2254478.3940949356
2.13294	2233231.3693858683
2.13507	2165670.4948301017
2.13719	2074768.7406826327
2.13931	2006854.6926022603
2.14143	1953474.4876966872
2.14355	1855682.450991291
2.14567	1803790.8648513355
2.14778	1747893.309965202
2.14989	1668926.6790376296
2.152	1538482.2887763225
2.1541	1545672.7667899106
2.15621	1587963.8978692326
2.15831	1611047.3898026743
2.16041	1496075.3344625784
2.16251	1432704.447463064
2.1646	1386640.778713452
2.1667	1357656.7234208065
2.16879	1388543.7888248248
2.17087	1461100.1477912455
2.17296	1530034.4750529414
2.17504	1570280.7387029547
2.17713	1496848.4973270302
2.1792	1364153.0713919587
2.18128	1217724.3635605406
2.18336	1107532.6649984377
2.18543	1043147.6810106763
2.1875	962864.3845208564
2.18957	858581.5024371212
2.19163	715374.2432347069
2.1937	561750.9135247645
2.19576	420866.8708450361
2.19782	304974.61247681174
2.19987	244239.62332550154
2.20193	216613.8144502433
2.20398	212615.76007383145
2.20603	207257.2803129939
2.20808	200493.08012234513
2.21012	205517.45094738278
2.21217	234025.52604924922
2.21421	261274.1722232324
2.21625	269659.7131758824
2.21828	259425.05314829745
2.22032	246162.73812100448
2.22235	239206.5575229293
2.22438	232273.0848735686
2.22641	213290.80987671978
2.22843	187359.77142546975
2.23046	162986.9866007313
2.23248	146073.50455190515
2.2345	138676.6146617986
2.23651	131143.19905891016
2.23853	121855.28876453605
2.24054	98477.1645801564
2.24255	70552.83805646082
2.24456	40065.053980749915
2.24657	31583.8667155765
2.24857	38531.38204326061
2.25057	55124.316061490674
2.25257	65647.08070379365
2.25457	76990.07102510917
2.25656	90105.17420234713
2.25856	110261.07915404058
2.26055	112506.45100624723
2.26254	105166.59310094819
2.26453	92349.30618166158
2.26651	83329.75145159161
2.2685	78985.85279807688
2.27048	86659.59180393451
2.27246	99103.56887475812
2.27443	111254.87113236166
2.27641	114329.09305872221
2.27838	106468.76555672946
2.28036	93962.09950220067
2.28233	83528.10372545873
2.28429	77030.72314688319
2.28626	72524.07340670086
2.28823	67995.38372314094
2.29019	67743.55144818382
2.29215	70541.27093556675
2.29411	77337.63015458311
2.29607	78557.67557911534
2.29802	75113.3589128092
2.29998	63157.48907528946
2.30193	64049.40795604159
2.30388	79554.80041663317
2.30583	124871.70166027606
2.30778	168557.103342275
2.30972	204716.7470809259
2.31167	208193.28608416265
2.31361	189649.76025876342
2.31555	128658.4521855224
2.31749	83493.5168524388
2.31943	50937.25873123967
2.32137	57496.87901091076
2.32331	65076.54991587201
2.32524	73425.22596691719
2.32718	71487.35124455471
2.32911	69344.64038215147
2.33104	67124.85221395914
2.33297	63373.80007424377
2.3349	59052.008516537586
2.33683	53974.43608172885
2.33876	50070.787729068325
2.34068	46623.291247402645
2.34261	40579.71971443549
2.34453	35403.75249768232
2.34646	31153.55942578293
2.34838	35739.94313957314
2.3503	44679.45927660621
2.35223	62038.67797613506
2.35415	78207.35038714438
2.35607	93512.78665499965
2.35799	103932.23141063396
2.35991	114482.90172684578
2.36183	125191.94771961407
2.36375	118210.01082384291
2.36566	103146.47117309338
2.36758	71192.774035763
2.3695	47304.62639463316
2.37142	28586.702789533745
2.37334	32675.137027050772
2.37526	39345.581583458435
2.37718	50120.368313211584
2.3791	62093.66700593122
2.38101	74681.02406491386
2.38293	89382.83732675498
2.38485	102118.24675753224
2.38677	112845.85438185207
2.3887	107105.8323599846
2.39062	99598.78330959023
2.39254	94095.03667300483
2.39446	96574.38711983827
2.39639	104210.67374387725
2.39831	113797.89424795065
2.40024	119001.98861019027
2.40216	115805.87069437286
2.40409	122543.48588305758
2.40602	135878.38607622063
2.40795	179235.67495321602
2.40989	217522.63245413767
2.41182	249133.58518794022
2.41376	256175.0676205605
2.4157	260131.49516065288
2.41764	275281.2171823636
2.41958	287833.4550546666
2.42152	298273.7198335283
2.42347	277280.3880422131
2.42542	268590.0899896623
2.42737	297423.7132819205
