#wavelength	surface flux
0.7	3835451.9530415814
0.7001166666666666	3841230.6104994183
0.7002333527777778	3845493.093365985
0.700350058336574	3849756.2866463605
0.7004667833462966	3854020.190458944
0.7005835278101878	3858284.8049221747
0.7007002917314895	3862550.1301544756
0.7008170751134447	3866816.1662743147
0.7009338779592968	3871082.913400172
0.7010507002722901	3875017.457723567
0.7011675420556689	3878547.5236882893
0.701284403312678	3882078.177997334
0.7014012840465635	3885609.420748768
0.7015181842605713	3889141.2520406605
0.701635103957948	3892673.6719710985
0.701752043141941	3896206.6806381913
0.701869001815798	3899740.278140067
0.7019859799827672	3902145.2057795506
0.7021029776460976	3903764.6337047825
0.7022199948090387	3905384.3315346707
0.7023370314748403	3907004.299314196
0.7024540876467528	3908624.5370883513
0.702571163328027	3910245.0449021333
0.7026882585219152	3911865.822800555
0.7028053732316688	3913486.870828624
0.7029225074605406	3917205.87497055
0.7030396612117841	3921735.51168996
0.7031568344886527	3926265.9033488235
0.7032740272944008	3930797.050072961
0.7033912396322832	3935328.951988221
0.7035084715055552	3939861.609220463
0.7036257229174727	3944395.0218955786
0.7037429938712924	3948929.190139477
0.7038602843702709	3954021.5237771613
0.7039775944176659	3959209.2469011117
0.7040949240167356	3964397.834645585
0.7042122731707383	3969587.28715468
0.7043296418829335	3974777.6045725294
0.7044470301565806	3979968.7870432804
0.70456443799494	3985160.8347111065
0.7046818654012724	3990353.747720213
0.7047993123788394	3994816.1564711137
0.7049167789309024	3999278.4696775596
0.7050342650607243	4003741.52660288
0.7051517707715678	4008205.3273710194
0.7052692960666963	4012669.872105951
0.705386840949374	4017135.16093167
0.7055044054228656	4021601.1939722006
0.7056219894904361	4026035.6468110844
0.7057395931553511	4030265.4197117705
0.705857216420877	4034495.89757461
0.7059748592902804	4038727.080517091
0.7060925217668288	4042958.968656733
0.70621020385379	4047191.562111065
0.7063279055544321	4051424.8609976335
0.7064456268720246	4055658.865434023
0.7065633678098366	4059985.005638603
0.7066811283711383	4064563.667040712
0.7067989085592001	4069143.091553055
0.7069167083772933	4073723.2793028136
0.7070345278286895	4078304.2304172004
0.707152366916661	4082885.9450234403
0.7072702256444803	4087468.423248776
0.7073881040154211	4092051.6652204883
0.7075060020327569	4096351.263785123
0.7076239196997625	4100237.383155695
0.7077418570197124	4104124.1502128253
0.7078598139958823	4108011.5650644647
0.7079777906315483	4111899.627818583
0.7080957869299869	4115788.338583158
0.7082138028944751	4119677.697466191
0.7083318385282908	4123567.7045757077
0.7084498938347124	4127978.650659192
0.708567968817018	4132831.4449356413
0.7086860634784875	4137685.0480111423
0.7088041778224007	4142539.4600204933
0.7089223118520377	4147394.681098506
0.7090404655706796	4152250.711380029
0.709158638981608	4157107.5509999376
0.709276832088105	4161965.2000931175
0.7093950448934531	4166791.342438591
0.7095132774009353	4171602.877122367
0.7096315296138355	4176415.2137285913
0.7097498015354378	4181228.3523909156
0.7098680931690269	4186042.2932430124
0.7099864045178884	4190857.03641859
0.7101047355853081	4195672.582051364
0.7102230863745722	4200488.930275072
0.7103414568889679	4204191.2469391655
0.7104598471317828	4207640.864041138
0.7105782571063047	4211091.056079292
0.7106966868158224	4214541.823149452
0.710815136263625	4217993.165347456
0.7109336054530023	4221445.082769162
0.7110520943872445	4224897.575510437
0.7111706030696424	4228350.643667171
0.7112891315034873	4232802.384110601
0.7114076796920712	4237302.488582409
0.7115262476386865	4241803.343071629
0.7116448353466263	4246304.947703261
0.711763442819184	4250807.302602334
0.711882070059654	4255310.407893894
0.7120007170713306	4259814.263703001
0.7121193838575091	4264405.415099986
0.7122380704214853	4269899.973314588
0.7123567767665555	4275395.447288887
0.7124755028960166	4280891.837175517
0.7125942488131658	4286389.143127126
0.7127130145213015	4291887.365296407
0.7128318000237216	4297386.503836033
0.7129506053237256	4302886.558898756
0.7130694304246129	4308034.766448337
0.7131882753296837	4311950.444155627
0.7133071400422386	4315866.774475869
0.7134260245655789	4319783.757517829
0.7135449289030065	4323701.393390297
0.7136638530578235	4327619.682202075
0.7137827970333332	4331538.624061993
0.7139017608328388	4335458.219078887
0.7140207444596443	4339652.973474214
0.7141397479170543	4344338.118655884
0.7142587712083737	4349024.0446950765
0.7143778143369084	4353710.7517219465
0.7144968773059646	4358398.239866654
0.7146159601188489	4363086.509259386
0.7147350627788687	4367775.5600303495
0.7148541852893318	4372465.392309774
0.7149733276535467	4377507.414724301
0.7150924898748222	4382904.629949212
0.715211671956468	4388302.744709996
0.7153308739017941	4393701.759156576
0.715450095714111	4399101.6734388955
0.71556933739673	4404502.487706929
0.7156885989529628	4409904.202110674
0.7158078803861218	4415306.816800161
0.7159271816995193	4418945.1407587705
0.7160465028964692	4421548.014017449
0.7161658439802853	4424151.321088336
0.7162852049542819	4426755.062043736
0.7164045858217744	4429359.236955962
0.716523986586078	4431963.845897339
0.7166434072505089	4434568.888940206
0.716762847818384	4437174.366156914
0.7168823082930204	4441333.09416277
0.7170017886777359	4445949.347308734
0.7171212889758488	4450566.36983022
0.7172408091906781	4455184.16185546
0.7173603493255433	4459802.723512706
0.7174799093837642	4464422.054930227
0.7175994893686615	4469042.156236318
0.7177190892835562	4473663.027559292
0.7178387091317702	4480228.400957515
0.7179583489166254	4486989.985978823
0.7180780086414448	4493752.697930972
0.7181976883095517	4500516.53700178
0.7183173879242699	4507281.503379101
0.718437107488924	4514047.597250819
0.7185568470068389	4520814.818804852
0.7186766064813399	4527511.673616117
0.7187963859157535	4532422.121683573
0.7189161853134061	4537333.388159041
0.719036004677625	4542245.473178922
0.7191558440117378	4547158.376879637
0.7192757033190732	4552072.099397642
0.7193955826029597	4556986.640869394
0.7195154818667269	4561902.001431395
0.7196354011137046	4566650.873864188
0.7197553403472235	4570630.224802534
0.7198752995706147	4574610.238966035
0.7199952787872098	4578590.916465232
0.720115278000341	4582572.257410679
0.7202352972133411	4586554.261912951
0.7203553364295432	4590536.930082634
0.7204753956522815	4594520.262030351
0.7205954748848902	4598586.204304757
0.7207155741307044	4602833.485504952
0.7208356933930594	4607081.47458534
0.7209558326752915	4611330.17166391
0.7210759919807375	4615579.576858665
0.7211961713127342	4619829.690287612
0.7213163706746197	4624080.512068806
0.7214365900697322	4628332.0423202915
0.7215568295014103	4632750.106094062
0.721677088972994	4637366.763293323
0.7217973684878227	4641984.189935443
0.7219176680492374	4646602.386148675
0.7220379876605789	4651221.3520612735
0.722158327325189	4655841.087801525
0.7222786870464099	4660461.593497732
0.7223990668275843	4665082.869278222
0.7225194666720555	4669642.269933077
0.7226398865831676	4674158.032168499
0.7227603265642646	4678674.54703095
0.722880786618692	4683191.814645887
0.7230012667497951	4687709.835138758
0.7231217669609201	4692228.608635044
0.7232422872554135	4696748.135260242
0.7233628276366229	4701268.415139886
0.7234833881078956	4706178.334841707
0.7236039686725803	4711236.718037761
0.7237245693340255	4716295.944297672
0.7238451900955812	4721356.01376197
0.7239658309605971	4726416.926571174
0.7240864919324239	4731478.682865851
0.7242071730144127	4736541.282786578
0.724327874209915	4741604.726473948
0.7244485955222832	4746213.817113854
0.7245693369548704	4750748.412964798
0.7246900985110294	4755283.764581709
0.7248108801941148	4759819.87209057
0.7249316820074803	4764356.735617333
0.7250525039544815	4768894.355288025
0.7251733460384739	4773432.731228663
0.7252942082628137	4777974.656548532
0.7254150906308574	4784135.681809106
0.7255359931459625	4790297.733907224
0.7256569158114868	4796460.813014027
0.7257778586307888	4802624.919300684
0.7258988216072273	4808790.052938387
0.7260198047441617	4814956.214098356
0.7261408080449525	4821123.402951863
0.72626183151296	4827061.780859594
0.7263828751515454	4831473.737729371
0.7265039389640706	4835886.42992529
0.726625022953898	4840299.857569912
0.7267461271243904	4844714.02078581
0.7268672514789111	4849128.919695575
0.7269883960208241	4853544.554421821
0.7271095607534942	4857960.92508719
0.7272307456802866	4862405.527783467
0.7273519508045666	4866925.144496247
0.7274731761297006	4871445.514478478
0.7275944216590555	4875966.637855704
0.7277156873959987	4880488.514753495
0.7278369733438982	4885011.1452974435
0.727958279506122	4889534.529613137
0.7280796058860397	4894058.667826222
0.7282009524870207	4899078.014122313
0.7283223193124353	4904829.5495931655
0.7284437063656539	4910582.043653252
0.7285651136500483	4916335.496462357
0.7286865411689898	4922089.908180253
0.7288079889258514	4927845.278966781
0.7289294569240056	4933601.608981761
0.7290509451668262	4939358.898385083
0.7291724536576875	4944917.855569391
0.7292939823999636	4950312.604564074
0.7294155313970303	4955708.252683601
0.7295371006522632	4961104.800077814
0.7296586901690385	4966502.246896587
0.7297802999507332	4971900.593289829
0.7299019300007252	4977299.839407483
0.7300235803223919	4982699.985399475
0.7301452509191123	4987708.157071445
0.7302669417942654	4992535.824643923
0.7303886529512311	4997364.296827665
0.7305103843933897	5002193.573756771
0.7306321361241218	5007023.655565362
0.7307539081468093	5011854.542387597
0.7308757004648336	5016686.234357625
0.7309975130815778	5021518.731609654
0.7311193460004248	5027027.923398948
0.7312411992247582	5032691.046055451
0.7313630727579622	5038355.112565728
0.7314849666034219	5044020.123087095
0.7316068807645224	5049686.07777688
0.7317288152446498	5055352.976792449
0.7318507700471907	5061020.8202911895
0.7319727451755319	5066689.608430511
0.732094740633061	5071919.698598286
0.7322167564231665	5077130.867591041
0.7323387925492371	5082342.905111961
0.7324608490146619	5087555.8113058
0.732582925822831	5092769.58631734
0.7327050229771347	5097984.230291375
0.7328271404809642	5103199.743372745
0.7329492783377112	5108348.069085778
0.7330714365507675	5112828.184248683
0.7331936151235259	5117309.046097449
0.7333158140593796	5121790.654756517
0.7334380333617229	5126273.010350369
0.7335602730339499	5130756.113003488
0.7336825330794556	5135239.962840384
0.7338048135016354	5139724.559985576
0.7339271143038857	5144303.674960268
0.734049435489603	5149197.74824827
0.7341717770621846	5154092.637215154
0.7342941390250283	5158988.3419968635
0.7344165213815324	5163884.862729368
0.734538924135096	5168782.199548669
0.7346613472891185	5173680.352590766
0.734783790847	5178579.321991705
0.7349062548121412	5183393.339879453
0.7350287391879431	5188056.561646365
0.7351512439778078	5192720.560616914
0.7352737691851374	5197385.33692062
0.735396314813335	5202050.890687047
0.7355188808658037	5206717.22204576
0.7356414673459482	5211384.331126376
0.7357640742571725	5216052.218058502
0.7358867016028818	5221311.985809595
0.7360093493864824	5227156.397546868
0.7361320176113801	5233001.783352756
0.736254706280982	5238848.1433896115
0.7363774153986956	5244695.477819814
0.7365001449679286	5250543.786805743
0.7366228949920899	5256393.070509842
0.7367456654745885	5262243.329094558
0.7368684564188344	5267720.497697304
0.7369912678282374	5272987.165492524
0.7371140997062088	5278254.711065713
0.7372369520561599	5283523.134563169
0.7373598248815024	5288792.436131196
0.7374827181856494	5294062.61591616
0.7376056319720137	5299333.674064421
0.7377285662440091	5304605.610722375
0.7378515210050496	5309462.908853469
0.7379744962585505	5314196.000054557
0.738097492007927	5318929.880104178
0.7382205082565949	5323664.549133803
0.738343545007971	5328400.007274932
0.7384666022654723	5333136.25465909
0.7385896800325165	5337873.291417805
0.7387127783125219	5342611.117682652
0.7388358971089073	5349108.768712242
0.7389590364250921	5355783.938272955
0.7390821962644963	5362460.220361933
0.7392053766305403	5369137.615164583
0.7393285775266454	5375816.122866371
0.7394517989562333	5382495.743652782
0.7395750409227259	5389176.477709315
0.7396983034295463	5395824.886849849
0.739821586480118	5401730.542595373
0.7399448900778645	5407637.182616843
0.7400682142262109	5413544.8070783345
0.740191558928582	5419453.416143896
0.7403149241884034	5425363.009977631
0.7404383100091014	5431273.588743674
0.7405617163941028	5437185.1526061725
0.7406851433468352	5442756.275446812
0.7408085908707264	5446766.383675351
0.7409320589692048	5450777.16025526
0.7410555476456997	5454788.605297935
0.7411790569036406	5458800.718914782
0.7413025867464579	5462813.501217232
0.7414261371775823	5466826.952316733
0.7415497082004452	5470841.072324749
0.7416732998184786	5475415.692441274
0.741796912035115	5481192.022901769
0.7419205448537874	5486969.316084006
0.7420441982779297	5492747.5721484395
0.742167872310976	5498526.791255556
0.7422915669563612	5504306.973565856
0.7424152822175206	5510088.119239873
0.7425390180978901	5515870.228438167
0.7426627746009065	5521782.94725349
0.7427865517300065	5527854.699196967
0.7429103494886282	5533927.463099107
0.7430341678802096	5540001.239128561
0.7431580069081896	5546076.027454018
0.7432818665760077	5552151.828244205
0.7434057468871037	5558228.641667851
0.7435296478449182	5564306.467893733
0.7436535694528923	5569481.691548556
0.7437775117144678	5574039.225185404
0.7439014746330868	5578597.518411185
0.7440254582121922	5583156.571352507
0.7441494624552276	5587716.384135988
0.7442734873656368	5592276.956888265
0.7443975329468645	5596838.289736005
0.7445215992023557	5601400.382805885
0.7446456861355559	5606139.442041899
0.7447697937499119	5610944.200665612
0.7448939220488703	5615749.7600824265
0.7450180710358784	5620556.120425806
0.7451422407143843	5625363.281829244
0.7452664310878367	5630171.244426254
0.7453906421596846	5634980.008350358
0.7455148739333779	5639789.573735118
0.7456391264123667	5645655.96946049
0.7457633996001021	5651692.196075567
0.7458876935000356	5657729.428728423
0.7460120081156189	5663767.66758671
0.7461363434503048	5669806.912818143
0.7462606995075466	5675847.164590454
0.7463850762907978	5681888.4230713835
0.7465094738035127	5687932.313241585
0.7466338920491467	5694402.252732331
0.746758331031155	5700873.270546331
0.7468827907529935	5707345.366863293
0.7470072712181189	5713818.541862974
0.7471317724299886	5720292.795725157
0.7472562943920602	5726768.128629645
0.7473808371077922	5733244.54075629
0.7475054005806435	5739579.4203410465
0.7476299848140736	5745036.922093451
0.7477545898115426	5750495.333429481
0.7478792155765113	5755954.654500736
0.7480038621124406	5761414.885458831
0.7481285294227926	5766876.026455418
0.7482532175110298	5772338.077642177
0.7483779263806148	5777801.039170793
0.7485026560350116	5783211.9869915545
0.7486274064776842	5788480.599267773
0.748752177712097	5793750.089646027
0.7488769697417158	5799020.45827269
0.749001782570006	5804291.705294117
0.7491266162004343	5809563.830856713
0.7492514706364677	5814836.835106905
0.7493763458815739	5820110.718191143
0.7495012419392209	5825534.202214621
0.7496261588128773	5831172.395690906
0.7497510965060128	5836811.528866108
0.7498760550220971	5842451.601896836
0.7500010343646007	5848092.614939738
0.7501260345369949	5853734.568151482
0.750251055542751	5859377.461688756
0.7503760973853414	5865021.295708289
0.7505011600682389	5870514.479124322
0.750626243594917	5875882.002849735
0.7507513479688495	5881250.42116243
0.7508764731935109	5886619.734211511
0.7510016192723765	5891989.942146102
0.7511267862089218	5897361.045115343
0.7512519740066232	5902733.043268415
0.7513771826689577	5908105.936754515
0.7515024121994025	5913491.40671048
0.7516276626014359	5918883.220577642
0.751752933878536	5924275.9330804385
0.7518782260341824	5929669.544368654
0.7520035390718548	5935064.054592087
0.7521288729950334	5940459.463900554
0.7522542278071992	5945855.7724439055
0.7523796035118337	5951252.980372018
0.7525050001124189	5956608.407546227
0.7526304176124378	5961955.4452834
0.7527558560153731	5967303.374193522
0.752881315324709	5972652.194425134
0.7530067955439299	5978001.906126787
0.7531322966765205	5983352.50944705
0.7532578187259665	5988704.004534534
0.7533833616957542	5994056.391537867
0.75350892558937	5998950.115002298
0.7536345104103016	6003823.044469418
0.7537601161620366	6008696.786091447
0.7538857428480638	6013571.34000375
0.7540113904718717	6018446.7063417
0.7541370590369503	6023322.885240705
0.7542627485467898	6028199.876836196
0.7543884590048808	6033151.234500344
0.7545141904147151	6038836.898601915
0.7546399427797842	6044523.51031416
0.7547657161035808	6050211.069795025
0.754891510389598	6055899.57720247
0.7550173256413296	6061589.032694485
0.7551431618622698	6067279.436429081
0.7552690190559135	6072970.788564297
0.7553948972257561	6078328.014743837
0.7555207963752938	6082561.4147992
0.755646716508023	6086795.520421238
0.755772657627441	6091030.331727547
0.7558986197370455	6095265.848835741
0.756024602840335	6099502.071863452
0.7561506069408084	6103739.000928334
0.7562766320419653	6107976.636148064
0.7564026781473054	6112167.123313391
0.75652874526033	6116274.098044999
0.7566548333845401	6120381.757272398
0.7567809425234375	6124490.101109667
0.7569070726805247	6128599.129670907
0.7570332238593047	6132708.843070239
0.7571593960632813	6136819.2414218085
0.7572855892959586	6140930.32483977
0.7574118035608413	6145641.745740035
0.7575380388614347	6150940.611293789
0.7576642952012449	6156240.359991805
0.7577905725837782	6161540.991981262
0.7579168710125422	6166842.507409394
0.7580431904910444	6172144.906423432
0.7581695310227928	6177448.1891706325
0.7582958926112967	6182752.3557982985
0.7584222752600652	6186823.285872541
0.7585486789726085	6190185.939260436
0.7586751037524372	6193549.153090563
0.7588015496030628	6196912.927456335
0.7589280165279966	6200277.262451162
0.7590545045307512	6203642.158168486
0.7591810136148396	6207007.614701765
0.7593075437837755	6210373.63214447
0.7594340950410726	6212776.855114183
0.7595606673902461	6214900.973965863
0.7596872608348112	6217025.4468373535
0.7598138753782836	6219150.273787653
0.75994051102418	6221275.45487578
0.7600671677760173	6223400.990160754
0.7601938456373134	6225526.87970161
0.7603205446115863	6227653.123557388
0.7604472647023548	6227146.668323784
0.7605740059131385	6226378.403481248
0.7607007682474575	6225610.01059457
0.7608275517088319	6224841.489642413
0.7609543563007835	6224072.840603429
0.7610811820268336	6223304.063456273
0.7612080288905045	6222535.158179593
0.7613348968953197	6221567.600100055
0.7614617860448022	6216526.593253757
0.7615886963424764	6211484.746239644
0.7617156277918667	6206442.058917699
0.7618425803964988	6201398.531147865
0.7619695541598982	6196354.162790069
0.7620965490855914	6191308.953704217
0.7622235651771058	6186262.903750179
0.7623506024379685	6179268.6051683575
0.7624776608717082	6163737.4406971475
0.7626047404818536	6148203.687698525
0.7627318412719337	6132667.345741096
0.762858963245479	6117128.414393331
0.7629861064060198	6101586.893223674
0.7631132707570876	6086042.781800472
0.7632404563022137	6070496.079692047
0.7633676630449308	6044607.333082939
0.7634948909887717	5996705.0083284965
0.7636221401372697	5948794.699853324
0.7637494104939593	5900876.406326694
0.7638767020623748	5852950.126417879
0.7640040148460518	5805015.858795691
0.7641313488485262	5757073.602128901
0.7642587040733344	5709123.355085946
0.7643860805240132	5603838.895378893
0.7645134782041005	5430129.5219400115
0.7646408971171346	5256391.196938819
0.764768337266654	5082623.915550189
0.7648957986561985	4908827.672947939
0.7650232812893079	4735002.464305277
0.7651507851695227	4561148.284794508
0.7652783103003843	4387265.129587173
0.7654058566854343	4093025.6231187563
0.7655334243282153	3716730.827348645
0.7656610132322699	3340373.3157797293
0.765788623401142	2963953.077958531
0.7659162548383754	2587470.103431246
