#wavelength	surface flux
0.428837	245.07764338526337
0.43312537	480.4721922236118
0.43745662370000005	567.1763871406157
0.4418311899370001	668.7536178136843
0.44624950183637	786.9253682786323
0.4507119968547338	922.3887978465897
0.45521911682328114	1079.8167026022156
0.4597713079915139	1265.6357579393648
0.4643690210714291	1477.3998517501245
0.4690127112821433	1720.1123283451136
0.47370283839496474	1999.3634228331002
0.47843986677891437	2313.680606365123
0.48322426544670355	2677.741354628678
0.48805650810117057	3096.9961641470272
0.4929370731821824	3566.0419308804403
0.49786644391400414	4090.289495320331
0.5028451083531442	4675.704828909828
0.5078735594366757	5312.387445814588
0.5129522950310424	5950.878220268837
0.5180818179813528	6585.746207048699
0.5232626361611664	7680.369492790204
0.5284952625227781	8599.287498763098
0.5337802151480058	9485.835871163248
0.5391180172994858	10332.677550571627
0.5445091974724807	11024.267814225552
0.5499542894472055	11418.827247317227
0.5554538323416777	11279.50494104759
0.5610083706650945	10305.155666939736
0.5666184543717453	8173.67834345465
0.5722846389154628	5028.047043264275
0.5780074853046174	1875.7177511348746
0.5837875601576636	252.65434196942437
0.5896254357592402	7.30232547909249
0.5955216901168326	501.9480868378961
0.6014769070180009	3565.396126821081
0.607491676088181	10488.718361686962
0.6135665928490629	20219.953942672448
0.6197022587775535	31323.876315582005
0.625899281365329	42998.99944827988
0.6321582741789823	54964.72942481583
0.6384798569207721	67339.5037061245
0.6448646554899798	79911.53465956035
0.6513133020448797	93395.97552170946
0.6578264350653285	107130.33873793493
0.6644046994159818	122053.21636481147
0.6710487464101416	114043.43274484063
0.677759233874243	155256.9216160368
0.6845368262129854	173703.5495495437
0.6913821944751153	190030.53238114243
0.6982960164198664	212222.2320816642
0.7052789765840651	233244.08432013044
0.7123317663499058	254582.2604758314
0.7194550840134049	269720.0453587979
0.7266496348535388	284049.4135128023
0.7339161312020743	299264.05656377715
0.741255292514095	302385.47442998097
0.748667845439236	271848.30577635096
0.7561545238936284	168743.4023791975
0.7637160691325647	21219.53484487126
0.7713532298238903	16193.871146587353
0.7790667621221293	185318.91482871264
0.7868574297433505	418468.2620766064
0.7947260040407841	345705.2841842035
0.8026732640811919	670498.063342399
0.8106999967220039	737200.1138962638
0.8188069966892239	838822.4803423269
0.8269950666561161	922897.7921287115
0.8352650173226772	995671.6683997202
0.8436176674959041	1106991.3421749219
0.852053844170863	1193712.312251295
0.8605743826125718	1308529.8799245516
0.8691801264386976	1408898.7778388583
0.8778719277030844	1502151.4115549042
0.8866506469801153	1575270.3748614688
0.8955171534499164	1576207.6782735996
0.9044723249844157	1836470.2476172764
0.9135170482342599	1949702.2898748955
0.9226522187166025	2035815.6432768332
0.9318787409037684	1406295.9186018908
0.941197528312806	1848436.2896639174
0.9506095035959342	1758303.2185145796
0.9601155986318936	1764214.3849435092
0.9697167546182125	2018205.4033938951
0.9794139221643946	2601018.797210782
0.9892080613860387	2970651.924022071
0.9991001419998989	3310245.698642583
1.0090911434198981	3582790.0958006927
1.019182054854097	3884507.968880654
1.0293738754026378	3957806.2735307436
1.0396676141566643	4364828.410786692
1.050064290298231	4561072.325153409
1.0605649332012133	4846827.96657098
1.0711705825332256	5050241.625164942
1.0818822883585577	5318423.033198956
1.0927011112421434	5271018.377821137
1.1036281223545648	3260239.8560353746
1.1146644035781104	2834717.458070976
1.1258110476138916	2991327.2597426497
1.1370691580900303	3265432.979209139
1.1484398496709307	4000385.475877676
1.1599242481676402	2180659.1950510945
1.1715234906493166	3968118.097364555
1.1832387255558097	6484470.3166002575
1.1950711128113678	7612592.114741941
1.2070218239394814	8151088.181116211
1.2190920421788762	8765492.339210112
1.2312829626006652	9284097.537398865
1.2435957922266716	9740114.693899503
1.2560317501489384	10103996.97295827
1.2685920676504279	10333638.560209721
1.281277988326932	10522941.527424011
1.2940907682102014	10260387.898988921
1.3070316758923035	10019229.521046944
1.3201019926512265	10459236.966284221
1.3333030125777388	4220209.615619802
1.3466360427035162	839235.675255736
1.3601024031305513	246613.10090692653
1.373703427161857	1231686.759344038
1.3874404614334754	165667.3587557679
1.4013148660478103	593637.098114158
1.4153280147082883	450904.5607097356
1.4294812948553712	702206.8058322676
1.443776107803925	1444686.759061707
1.4582138688819641	4102150.4438588787
1.4727960075707838	3778416.195781332
1.4875239676464918	6748537.850054772
1.5023992073229566	8086641.923408598
1.5174231993961862	10421577.137341565
1.532597431390148	13134428.932708295
1.5479234057040496	14886222.30137121
1.5634026397610903	15829207.069908638
1.579036666158701	15034083.285073416
1.594827032820288	17141410.0284811
1.610775303148491	16250342.096798554
1.6268830561799759	12994992.162347956
1.6431518867417756	16533674.215603415
1.6595834056091934	15410932.691123396
1.6761792396652853	13759343.10858206
1.6929410320619382	10389838.548392855
1.7098704423825577	10701968.435227217
1.7269691468063835	12857487.163544409
1.744238838274447	9746655.545110375
1.7616812266571917	10235455.696725428
1.7792980389237634	1913785.9307324123
1.7970910193130012	3158717.1756765735
1.815061929506131	942582.1085002541
1.8332125488011928	622577.0691439327
1.8515446742892046	1337069.826954112
1.8700601210320964	639564.7604303586
1.8887607222424174	3233929.6031607846
1.9076483294648416	401211.2704661564
1.92672481275949	412899.19888113433
1.9459920608870853	1265134.9418353976
1.9654519814959561	1646886.1905006992
1.9851065013109155	5137770.862295089
2.0049575663240247	7302657.093694046
2.025007141987265	11350647.492941018
2.0452572134071376	17975525.071682766
2.065709785541209	20622743.122512385
2.086366883396621	21326869.378164403
2.107230552230587	20312144.76845197
2.1283028577528933	19360182.83639314
2.1495858863304225	15657541.620931473
2.1710817451937263	14124509.121593768
2.1927925626456637	7751510.693900311
2.2147204882721203	3731477.242052631
2.2368676931548412	1618758.8462564633
2.25923637008639	1540675.1382390396
2.281828733787254	1226454.378997429
2.3046470211251266	1851430.6294072922
2.327693491336378	754651.8220144913
2.3509704262497415	742451.7204758424
2.374480130512239	579043.4882668365
2.3982249318173614	1061811.2096435258
2.4222071811355352	2122689.8453821903
2.4464292529468903	2130144.3783569317
2.4708935454763594	1503709.689447334
2.4956024809311232	706315.878464483
2.5205585057404343	273436.50605274865
2.5457640907978387	552616.1852684338
2.5712217317058172	168840.1900853164
2.5969339490228753	116673.54277520199
2.622903288513104	430918.6795946029
2.6491323213982354	713860.6049639769
2.6756236446122177	52266.53866690754
2.7023798810583397	314316.20935059694
2.729403679868923	990910.235262284
2.7566977166676123	329066.76592683047
2.7842646938342885	254630.70633268662
2.812107340772631	328200.26604589104
2.8402284141803578	800177.6644333565
2.8686306983221614	492426.6989787732
2.897317005305383	697055.1525252274
2.926290175358437	1764368.8611557984
2.9555530771120213	2060185.147114808
2.9851086078831415	2165807.540645432
3.014959693961973	2640531.441862133
3.0451092909015927	2273775.7671120414
3.0755603838106085	2394978.4527914003
3.1063159876487147	1491770.348964476
3.137379147525202	998813.7898016492
3.168752939000454	655642.3245001229
3.200440468390459	498502.84388433554
3.232444873074363	323163.6491287309
3.264769321805107	983788.6277062254
3.297417015023158	1005806.5814864148
3.330391185173389	171433.6066791334
3.3636950970251234	748342.1811438594
3.397332047995375	599531.4249080739
3.4313053684753285	441609.9985662954
3.465618422160081	522512.2347373888
3.5002746063816828	803892.4272647913
3.5352773524454997	1063539.2574818959
3.570630125969955	1506111.3755467373
3.606336427229654	2058700.5988101114
3.6423997915019504	2930467.8354921383
3.67882378941697	4036814.6741553284
3.7156120273111397	4536366.511995035
3.7527681475842516	5785521.061533476
3.7902958290600934	5849465.478824177
3.8281987873506953	7811265.241588604
3.8664807752242023	7906570.815741938
3.905145582976444	8265051.595589611
3.9441970388062084	9213259.558676012
3.983639009194271	9375405.704371534
4.023475399286213	9963098.095656682
4.063710153279075	10151245.30263651
4.1043472548118665	10004219.337415075
4.145390727359985	9478082.030550957
4.186844634633585	8997958.554979466
4.2287130809799205	8154911.450306426
4.27100021178972	7497476.808734028
4.313710213907617	7397139.104177629
4.356847316046694	6172387.943948709
4.40041578920716	5168149.543551476
4.444419947099232	4440542.9558016695
4.488864146570225	4004420.050992269
4.533752788035927	3565419.444021091
4.579090315916286	3733984.2248632996
4.624881219075449	3585689.1018464756
4.671130031266204	3742691.022543174
4.717841331578866	3284792.666344972
4.765019744894654	3370770.089919583
4.812669942343601	3316420.686955049
4.8607966417670365	3578554.0817150488
4.9094046081847065	3188925.0590487425
4.958498654266554	1903550.0392669963
5.008083640809219	2414245.1166727496
5.058164477217312	3213526.9462217214
5.108746121989485	2480752.017604449
5.15983358320938	1675943.1221073167
5.211431919041474	1186031.9919950645
5.263546238231889	1635294.310018526
5.316181700614208	2067325.3611377017
5.36934351762035	972733.1397168958
5.423036952796553	680677.5302229456
5.4772673223245185	742611.3145854475
5.532039995547764	850458.6121156366
5.587360395503242	580651.8859433106
5.643233999458275	448327.0135967069
5.6996663394528575	426735.88068970473
5.756663002847385	404727.45538229164
5.814229632875859	496104.5098084998
5.872371929204618	337653.92756760505
5.931095648496664	426532.35299326375
5.990406604981631	576932.1340559733
6.050310671031448	467577.13482520933
6.110813777741763	616414.3489723745
6.17192191551918	500912.26032625017
6.233641134674372	1390500.8493983513
6.295977546021115	1533812.3661263827
6.358937321481327	900519.869039463
6.42252669469614	272003.7895287141
6.486751961643101	239832.38922623385
6.551619481259532	299727.18868362514
6.617135676072128	257167.61134999228
6.683307032832849	452500.5673212842
6.750140103161177	557853.0327796228
6.81764150419279	551648.4114169584
6.885817919234718	382409.4497364415
6.954676098427065	564119.7769735995
7.024222859411336	326536.7543349031
7.094465088005449	522845.03492232907
7.165409738885503	346347.709445756
7.237063836274358	381686.9308150634
7.309434474637103	310425.6228657502
7.382528819383473	264321.6971084649
7.456354107577308	254706.77641394376
7.530917648653081	355229.09460136207
7.606226825139612	386151.2391437896
7.682289093391009	196583.74148700258
7.759111984324918	306167.7090618799
7.836703104168168	330966.9642630866
7.91507013520985	311428.43044266006
7.994220836561947	369535.0169342705
8.074163044927568	372869.48641041236
8.154904675376844	406619.50970629905
8.23645372213061	472287.1110553241
8.318818259351918	524578.3423108829
8.402006441945437	548308.7793446322
8.486026506364892	675593.9548672745
8.57088677142854	725586.5826941413
8.656595639142825	802788.6905786067
8.743161595534254	870749.3388175208
8.830593211489598	953119.3681421133
8.918899143604493	929441.992853852
9.00808813504054	960662.2903212217
9.098169016390944	1055899.6906936443
9.189150706554853	1095867.4179766993
9.281042213620402	1079546.3425542456
9.373852635756606	938535.3912351524
9.467591162114172	1076621.0931741574
9.562267073735315	1198388.0814605954
9.657889744472667	1009374.747154422
9.754468641917395	1167287.0986114128
9.852013328336568	874910.9847471153
9.950533461619933	1109742.5516464289
10.050038796236134	1013385.8202261538
10.150539184198495	1067163.2544805491
10.252044576040479	914140.0578216614
10.354565021800884	664587.0337162727
10.458110672018893	726453.5604692722
10.562691778739081	822217.5647846581
10.668318696526473	797866.4308663093
10.775001883491738	765395.4285302471
10.882751902326655	679473.5487143467
10.991579421349924	498837.2757240775
11.101495215563421	726859.2043887421
11.212510167719055	585869.5081197682
11.324635269396246	613295.3889455202
11.43788162209021	667614.9349476388
11.552260438311112	432412.008141317
11.667783042694223	476904.86511100474
11.784460873121166	459371.08680129854
11.902305481852377	517846.00843708176
12.0213285366709	533996.2223776527
12.14154182203761	562271.5538957567
12.262957240257986	396880.1515009604
12.385586812660566	319355.7444094592
12.509442680787172	320110.0219907469
12.634537107595044	395971.35250409035
12.760882478670995	365828.123373635
12.888491303457704	346628.23782016756
13.01737621649228	285391.77805745875
13.147549978657205	308169.69877123216
13.279025478443776	223250.42426187042
13.411815733228213	216977.84738797674
13.545933890560496	280174.613276165
13.681393229466101	234384.40296400216
13.818207161760762	256230.82681112378
13.956389233378369	234237.30274314358
14.095953125712155	248031.77688227466
14.236912656969274	214579.97378915007
14.379281783538968	156464.32380618836
14.523074601374358	148425.957952276
14.6683053473881	199173.23262130734
14.814988400861985	178904.83981513322
14.963138284870602	158496.56738528385
15.11276966771931	176762.74726818813
15.263897364396504	197706.99963680515
15.41653633804047	150499.7086218496
15.570701701420873	111433.62997266554
15.726408718435081	97630.41973482985
15.883672805619431	181672.22718565178
16.042509533675627	123784.21919653397
16.202934629012383	113342.48564138646
16.36496397530251	109767.92379708502
16.528613615055534	103253.08860134307
16.69389975120609	87015.59246194044
16.86083874871815	81792.08255107973
17.02944713620533	103334.58257199495
17.199741607567383	72701.32578304759
17.37173902364306	66261.30156163796
17.54545641387949	72404.70902027545
17.720910978018285	70926.94483438894
17.898120087798468	66757.29535580227
18.077101288676452	70972.59373630262
18.257872301563214	61468.96820273664
18.44045102457885	64342.51896024578
18.62485553482464	54975.57866397649
18.811104090172883	87584.6402577366
18.999215131074614	47648.23147945547
19.189207282385357	49698.55814669445
19.381099355209216	39537.68443549741
19.574910348761303	42011.50894614766
19.77065945224892	44414.933125691445
19.968366046771408	56708.0522134601
20.16804970723912	48330.86701748241
20.369730204311512	38519.43799461215
20.573427506354626	33498.07889854755
20.779161781418175	40232.75288364076
20.98695339923236	30673.982227641445
21.19682293322468	29768.4856261158
21.408791162556927	40484.44408535985
21.622879074182496	28017.295513756566
21.839107864924323	24584.97477708122
22.057498943573567	25918.32892406271
22.278073933009303	29546.25651735648
22.500854672339393	21738.566161153132
22.72586321906279	40668.61047324137
22.953121851253417	20523.85197089202
23.18265306976595	34986.40425867224
23.41447960046361	28249.792593931492
23.648624396468247	17504.168737103962
23.88511064043293	15828.223661817057
24.12396174683726	31722.654477723765
24.365201364305634	28953.5606130371
24.608853377948687	27153.042107971378
24.854941911728176	21835.80883349078
25.103491330845458	12692.82118098024
25.354526244153913	12944.783632828194
25.608071506595454	21931.985930975625
25.864152221661406	17538.714655352265
26.122793743878024	16911.68534645426
26.384021681316803	18654.224537490507
26.64786189812997	9951.246437156722
26.91434051711127	14670.876147888555
27.18348392228238	17064.343164469625
27.455318761505207	21303.85472654973
27.72987194912026	16277.160108731008
28.007170668611465	9447.807348421728
28.28724237529758	8205.751778832675
28.57011479905055	8199.422969460242
28.855815947041062	12724.863877836506
29.144374106511474	8950.524849740865
29.435817847576587	10383.90738831314
29.730176026052348	8792.342679941197
30.027477786312875	10941.205222150924
30.327752564176006	7272.326039991514
30.631030089817763	7998.948980797501
30.93734039071594	7092.25038445622
31.246713794623105	8770.544344285016
31.559180932569333	10179.756040428905
31.874772741895026	7391.870919332543
32.19352046931398	9514.806679740945
32.51545567400712	9246.427234710012
32.84061023074719	4834.843161585067
33.169016333054664	5343.813819773199
33.500706496385206	5648.8807457273515
33.83571356134906	9213.882080527379
34.17407069696255	5835.1303749014705
34.51581140393218	4420.81183085928
34.8609695179715	5126.802648687066
35.209579213151216	4430.619211319878
35.56167500528272	3670.460335277795
35.917291755335555	3421.4209028843347
36.27646467288891	4718.702217509306
36.639229319617804	4482.994288706974
37.005621612813975	6210.10111188607
37.37567782894212	3496.062020053333
37.74943460723154	4081.626941879968
38.12692895330385	5627.61050553672
38.5081982428369	5082.668387178692
38.893280225265265	3115.4082441599994
39.28221302751791	2436.406386188775
39.6750351577931	3920.6615980354973
40.071785509371026	2453.420311367828
40.47250336446474	2447.4756726343867
40.87722839810939	2482.737583620424
41.28600068209048	3873.5435792058406
41.69886068891139	3904.5239725557117
42.1158492958005	3117.3463067860307
42.53700778875851	2897.4817545595906
42.962377866646094	2101.8680953434355
43.392001645312554	1981.974525281221
43.825921661765676	1719.6231537164388
44.264180878383335	1781.0670772736555
44.70682268716717	1762.14069093757
45.15389091403884	1870.4391249440387
45.60542982317923	2422.9708924972633
46.06148412141103	1955.7898246767631
46.52209896262513	1525.3907999408875
46.98731995225138	1493.324203739722
47.4571931517739	2140.585935569206
47.93176508329164	1305.9594072181576
48.411082734124555	1872.9010073701886
48.8951935614658	1245.65677087482
49.38414549708046	1094.2183008917627
49.877986952051266	1161.0131689964517
50.37676682157178	1120.1226811404817
50.88053448978749	1080.631582080545
51.38933983468537	1042.4834181624976
51.903233233032225	1005.643693524252
52.422265565362544	970.0631303536936
52.946488221016175	935.7002124120764
53.47595310322633	902.5252191918983
54.010712634258596	870.4865067130705
54.550819760601186	839.5534359461815
55.0963279582072	809.6878580446086
55.647291237789275	780.8526306552571
56.20376415016716	753.018382903801
56.765801791668835	726.1456013100677
57.33345980958552	700.2078742569306
57.906794407681375	675.1716262309302
58.48586235175819	651.0051485202123
59.070720975275776	627.6836846024368
59.661428185028534	605.172577834316
60.25804246687882	583.4514140660091
60.860622891547614	562.4882185337937
61.46922912046309	542.2597931334751
62.083921411667724	522.7422314290709
62.7047606257844	503.907266509471
63.331808232042235	485.7387737234881
63.965126314362664	468.2076768259423
64.60477757750628	451.2944578635832
65.25082535328136	434.9793001492062
65.90333360681416	419.2381614905726
66.56236694288232	404.0570006284501
67.22799061231113	389.4119152725255
67.90027051843424	375.28598399461595
68.57927322361859	361.66211566989926
69.26506595585477	348.52113849014876
69.95771661541333	335.84932065144193
70.65729378156746	323.62790182910504
71.36386671938313	311.84204369099206
72.07750538657696	300.47684579144624
72.79828044044274	289.5171588548148
73.52626324484716	278.95032021089014
74.26152587729563	268.76071090491547
75.00414113606858	258.93723014551455
75.75418254742928	249.4654429253938
76.51172437290357	240.33330020354006
77.27684161663261	231.53028571282763
78.04961003279894	223.042546042163
78.83010613312693	214.86163888968142
79.6184071944582	206.974832925871
80.41459126640278	199.3722657562797
81.2187371790668	192.04479794601053
82.03092455085748	184.9813932097097
82.85123379636605	178.17403661691193
83.6797461343297	171.61257513428566
84.51654359567301	165.28863320945743
85.36170903162974	159.19444558076998
86.21532612194603	153.320659691565
87.0774793831655	147.66100683119134
87.94825417699715	142.20639639659197
88.82773671876713	136.95038578660956
89.71601408595481	131.88573479365144
90.61317422681435	127.0050415418948
91.5193059690825	122.30324766883369
92.43449902877332	117.77202011476231
93.35884401906105	113.40683345332592
