#wavelength	surface flux
0.7	34166459.684149
0.7001166666666666	34504271.99437561
0.7002333527777778	34552985.98433134
0.700350058336574	34601708.09328538
0.7004667833462966	34650438.32259085
0.7005835278101878	34699176.67360134
0.7007002917314895	34747923.14767024
0.7008170751134447	34796677.74615149
0.7009338779592968	34845440.47039913
0.7010507002722901	34829357.19674385
0.7011675420556689	34734348.084079646
0.701284403312678	34639323.13656347
0.7014012840465635	34544282.35155592
0.7015181842605713	34449225.72641755
0.701635103957948	34354153.258508384
0.701752043141941	34259064.94518792
0.701869001815798	34163960.7838151
0.7019859799827672	33854708.25805772
0.7021029776460976	33396380.018000543
0.7022199948090387	32937975.389902778
0.7023370314748403	32479494.36103387
0.7024540876467528	32020936.91866022
0.702571163328027	31562303.050046932
0.7026882585219152	31103592.742454313
0.7028053732316688	30644805.98314443
0.7029225074605406	30588014.970278088
0.7030396612117841	30686473.01237528
0.7031568344886527	30784947.46414617
0.7032740272944008	30883438.32832563
0.7033912396322832	30981945.607649166
0.7035084715055552	31080469.304852493
0.7036257229174727	31179009.42267206
0.7037429938712924	31277565.963844687
0.7038602843702709	31493488.80981161
0.7039775944176659	31729351.04109476
0.7040949240167356	31965252.58274989
0.7042122731707383	32201193.441328503
0.7043296418829335	32437173.62338368
0.7044470301565806	32673193.135469157
0.70456443799494	32909251.9841398
0.7046818654012724	33145350.175952032
0.7047993123788394	33211097.668130398
0.7049167789309024	33276660.588080928
0.7050342650607243	33342234.43518488
0.7051517707715678	33407819.211263325
0.7052692960666963	33473414.918137744
0.705386840949374	33539021.557629954
0.7055044054228656	33604639.13156218
0.7056219894904361	33652260.761110395
0.7057395931553511	33585458.518008456
0.705857216420877	33518645.141199272
0.7059748592902804	33451820.628827322
0.7060925217668288	33384984.97903658
0.70621020385379	33318138.189970884
0.7063279055544321	33251280.259773765
0.7064456268720246	33184411.186588172
0.7065633678098366	33159896.89641499
0.7066811283711383	33252055.062732104
0.7067989085592001	33344228.588743605
0.7069167083772933	33436417.477009382
0.7070345278286895	33528621.730089933
0.707152366916661	33620841.35054601
0.7072702256444803	33713076.340938725
0.7073881040154211	33805326.70382997
0.7075060020327569	33840791.30428405
0.7076239196997625	33793539.62859359
0.7077418570197124	33746280.07762389
0.7078598139958823	33699012.65006237
0.7079777906315483	33651737.34459621
0.7080957869299869	33604454.159912504
0.7082138028944751	33557163.09469804
0.7083318385282908	33509864.147639345
0.7084498938347124	33548791.942062303
0.708567968817018	33660837.70126463
0.7086860634784875	33772902.13476028
0.7088041778224007	33884985.24566162
0.7089223118520377	33997087.03708128
0.7090404655706796	34109207.512132786
0.709158638981608	34221346.673930265
0.709276832088105	34333504.52558806
0.7093950448934531	34386705.92449089
0.7095132774009353	34411790.30706969
0.7096315296138355	34436878.87037893
0.7097498015354378	34461971.615115374
0.7098680931690269	34487068.541975915
0.7099864045178884	34512169.65165764
0.7101047355853081	34537274.94485764
0.7102230863745722	34562384.42227315
0.7103414568889679	34419775.37379312
0.7104598471317828	34239032.00569376
0.7105782571063047	34058258.51369987
0.7106966868158224	33877454.892790645
0.710815136263625	33696621.13794464
0.7109336054530023	33515757.244139373
0.7110520943872445	33334863.206351876
0.7111706030696424	33153939.019557975
0.7112891315034873	33146131.468216743
0.7114076796920712	33146583.947599698
0.7115262476386865	33147036.502395883
0.7116448353466263	33147489.13261787
0.711763442819184	33147941.838278223
0.711882070059654	33148394.619389523
0.7120007170713306	33148847.475964338
0.7121193838575091	33164703.56332132
0.7122380704214853	33341213.260397896
0.7123567767665555	33517752.37575714
0.7124755028960166	33694320.914302364
0.7125942488131658	33870918.88093721
0.7127130145213015	34047546.28056698
0.7128318000237216	34224203.11809615
0.7129506053237256	34400889.39843182
0.7130694304246129	34524626.87055288
0.7131882753296837	34463154.31962063
0.7133071400422386	34401671.523263216
0.7134260245655789	34340178.479773104
0.7135449289030065	34278675.1874424
0.7136638530578235	34217161.644563004
0.7137827970333332	34155637.849426374
0.7139017608328388	34094103.8003239
0.7140207444596443	34065248.17474815
0.7141397479170543	34094701.099300124
0.7142587712083737	34124158.93267281
0.7143778143369084	34153621.675684415
0.7144968773059646	34183089.329153195
0.7146159601188489	34212561.89389755
0.7147350627788687	34242039.370736025
0.7148541852893318	34271521.760487296
0.7149733276535467	34363865.644620426
0.7150924898748222	34519608.09040258
0.715211671956468	34675376.49325907
0.7153308739017941	34831170.857516155
0.715450095714111	34986991.187500544
0.71556933739673	35142837.48753995
0.7156885989529628	35298709.761962675
0.7158078803861218	35454608.015098035
0.7159271816995193	35312717.460289754
0.7160465028964692	34996004.55495336
0.7161658439802853	34679238.864132755
0.7162852049542819	34362420.3790304
0.7164045858217744	34045549.09084701
0.716523986586078	33728624.99078238
0.7166434072505089	33411648.070034567
0.716762847818384	33094618.319799848
0.7168823082930204	32927671.786317945
0.7170017886777359	32804866.816889353
0.7171212889758488	32682041.37996593
0.7172408091906781	32559195.472136322
0.7173603493255433	32436329.0899887
0.7174799093837642	32313442.23011079
0.7175994893686615	32190534.889089517
0.7177190892835562	32067607.06351146
0.7178387091317702	32396357.661327038
0.7179583489166254	32770505.8850634
0.7180780086414448	33144716.46683734
0.7181976883095517	33518989.41704156
0.7183173879242699	33893324.746070854
0.718437107488924	34267722.46432173
0.7185568470068389	34642182.58219247
0.7186766064813399	35006872.369119406
0.7187963859157535	35125782.744070806
0.7189161853134061	35244712.93741803
0.719036004677625	35363662.952464156
0.7191558440117378	35482632.792512715
0.7192757033190732	35601622.46086812
0.7193955826029597	35720631.96083477
0.7195154818667269	35839661.295718186
0.7196354011137046	35919475.663494766
0.7197553403472235	35818659.276678026
0.7198752995706147	35717826.0871302
0.7199952787872098	35616976.0920507
0.720115278000341	35516109.288638696
0.7202352972133411	35415225.67409278
0.7203553364295432	35314325.24561125
0.7204753956522815	35213408.000391506
0.7205954748848902	35135828.792024754
0.7207155741307044	35109725.3833638
0.7208356933930594	35083617.62413478
0.7209558326752915	35057505.513612546
0.7210759919807375	35031389.05107186
0.7211961713127342	35005268.235787444
0.7213163706746197	34979143.06703378
0.7214365900697322	34953013.544085346
0.7215568295014103	34880584.83874523
0.721677088972994	34752906.533816926
0.7217973684878227	34625206.94917136
0.7219176680492374	34497486.08126152
0.7220379876605789	34369743.92654045
0.722158327325189	34241980.481460206
0.7222786870464099	34114195.74247252
0.7223990668275843	33986389.70602828
0.7225194666720555	33837142.42638291
0.7226398865831676	33672689.4229111
0.7227603265642646	33508209.010605775
0.722880786618692	33343701.18489805
0.7230012667497951	33179165.94121948
0.7231217669609201	33014603.275000278
0.7232422872554135	32850013.181670185
0.7233628276366229	32685395.656657584
0.7234833881078956	32726457.244462617
0.7236039686725803	32845624.51396418
0.7237245693340255	32964811.64467714
0.7238451900955812	33084018.639912102
0.7239658309605971	33203245.50297947
0.7240864919324239	33322492.237190835
0.7242071730144127	33441758.84585791
0.724327874209915	33561045.33229285
0.7244485955222832	33544517.608041592
0.7245693369548704	33505528.109689336
0.7246900985110294	33466532.11308741
0.7248108801941148	33427529.617152613
0.7249316820074803	33388520.62080196
0.7250525039544815	33349505.122951847
0.7251733460384739	33310483.122518755
0.7252942082628137	33271908.84134935
0.7254150906308574	33496519.283560526
0.7255359931459625	33721167.16084543
0.7256569158114868	33945852.47944329
0.7257778586307888	34170575.24559435
0.7258988216072273	34395335.46553971
0.7260198047441617	34620133.14552148
0.7261408080449525	34844968.29178362
0.72626183151296	35025090.981402636
0.7263828751515454	34907854.7366271
0.7265039389640706	34790598.95247746
0.726625022953898	34673323.62569706
0.7267461271243904	34556028.7530288
0.7268672514789111	34438714.33121518
0.7269883960208241	34321380.35699803
0.7271095607534942	34204026.82711842
0.7272307456802866	34080765.795413405
0.7273519508045666	33941579.46522954
0.7274731761297006	33802369.93732404
0.7275944216590555	33663137.20783056
0.7277156873959987	33523881.272882126
0.7278369733438982	33384602.12861097
0.727958279506122	33245299.77114947
0.7280796058860397	33105974.196628228
0.7282009524870207	33087559.22852306
0.7283223193124353	33248015.789075166
0.7284437063656539	33408499.09238703
0.7285651136500483	33569009.14291638
0.7286865411689898	33729545.94512048
0.7288079889258514	33890109.50345868
0.7289294569240056	34050699.822389565
0.7290509451668262	34211316.906373784
0.7291724536576875	34331782.13347388
0.7292939823999636	34418975.121002816
0.7294155313970303	34506182.64069651
0.7295371006522632	34593404.6949768
0.7296586901690385	34680641.286266066
0.7297802999507332	34767892.41698717
0.7299019300007252	34855158.08956362
0.7300235803223919	34942438.306418605
0.7301452509191123	34926348.916256614
0.7302669417942654	34862537.877631664
0.7303886529512311	34798716.20383359
0.7305103843933897	34734883.89308987
0.7306321361241218	34671040.94362774
0.7307539081468093	34607187.35367391
0.7308757004648336	34543323.12145524
0.7309975130815778	34479448.24519778
0.7311193460004248	34480191.06929369
0.7312411992247582	34495565.04971807
0.7313630727579622	34510941.59247251
0.7314849666034219	34526320.69798409
0.7316068807645224	34541702.36667992
0.7317288152446498	34557086.5989872
0.7318507700471907	34572473.39533321
0.7319727451755319	34587862.75614527
0.732094740633061	34582569.170305915
0.7322167564231665	34576343.43392139
0.7323387925492371	34570116.65991413
0.7324608490146619	34563888.848111205
0.732582925822831	34557659.99833965
0.7327050229771347	34551430.11042647
0.7328271404809642	34545199.18419863
0.7329492783377112	34528370.3739134
0.7330714365507675	34407360.55218199
0.7331936151235259	34286330.56214698
0.7333158140593796	34165280.4004471
0.7334380333617229	34044210.06372009
0.7335602730339499	33923119.548603565
0.7336825330794556	33802008.851734504
0.7338048135016354	33680877.969749525
0.7339271143038857	33563439.13428242
0.734049435489603	33458419.258415826
0.7341717770621846	33353381.87923657
0.7342941390250283	33248326.993827507
0.7344165213815324	33143254.599270914
0.734538924135096	33038164.692648407
0.7346613472891185	32933057.2710416
0.734783790847	32827932.331531156
0.7349062548121412	32748006.802958865
0.7350287391879431	32712639.91023186
0.7351512439778078	32677267.123022657
0.7352737691851374	32641888.440348964
0.735396314813335	32606503.861228127
0.7355188808658037	32571113.384677496
0.7356414673459482	32535717.009714033
0.7357640742571725	32500314.735354766
0.7358867016028818	32527756.719470084
0.7360093493864824	32617273.476966813
0.7361320176113801	32706805.153923
0.736254706280982	32796351.75282535
0.7363774153986956	32885913.276160963
0.7365001449679286	32975489.72641695
0.7366228949920899	33065081.10608139
0.7367456654745885	33154687.417642433
0.7368684564188344	33134458.141428594
0.7369912678282374	33052140.29358368
0.7371140997062088	32969808.726097427
0.7372369520561599	32887463.436683185
0.7373598248815024	32805104.423054222
0.7374827181856494	32722731.682922848
0.7376056319720137	32640345.21400145
0.7377285662440091	32557945.014001884
0.7378515210050496	32376069.041560534
0.7379744962585505	32164237.654681724
0.738097492007927	31952370.962571822
0.7382205082565949	31740468.9593467
0.738343545007971	31528531.639121085
0.7384666022654723	31316558.99600855
0.7385896800325165	31104551.024122484
0.7387127783125219	30892507.717574168
0.7388358971089073	31023787.40286439
0.7389590364250921	31189528.661078822
0.7390821962644963	31355297.542836417
0.7392053766305403	31521094.052740727
0.7393285775266454	31686918.195396807
0.7394517989562333	31852769.975410156
0.7395750409227259	32018649.397386577
0.7396983034295463	32176709.00205544
0.739821586480118	32160222.27586661
0.7399448900778645	32143732.801890112
0.7400682142262109	32127240.579667903
0.740191558928582	32110745.608742006
0.7403149241884034	32094247.888654303
0.7404383100091014	32077747.41894658
0.7405617163941028	32061244.199160583
0.7406851433468352	32019273.13615054
0.7408085908707264	31860798.403041307
0.7409320589692048	31702297.25747663
0.7410555476456997	31543769.695054233
0.7411790569036406	31385215.71137155
0.7413025867464579	31226635.30202487
0.7414261371775823	31068028.462609924
0.7415497082004452	30909395.188721865
0.7416732998184786	30790658.685293697
0.741796912035115	30757545.53676833
0.7419205448537874	30724426.869384877
0.7420441982779297	30691302.682223532
0.742167872310976	30658172.974364296
0.7422915669563612	30625037.744887087
0.7424152822175206	30591896.99287164
0.7425390180978901	30558750.71739754
0.7426627746009065	30530688.37953163
0.7427865517300065	30508825.78321964
0.7429103494886282	30486959.543141574
0.7430341678802096	30465089.658690177
0.7431580069081896	30443216.12925804
0.7432818665760077	30421338.954237636
0.7434057468871037	30399458.133021414
0.7435296478449182	30377573.665001664
0.7436535694528923	30265991.07520283
0.7437775117144678	30092991.269393597
0.7439014746330868	29919962.630283657
0.7440254582121922	29746905.153067052
0.7441494624552276	29573818.83293751
0.7442734873656368	29400703.66508798
0.7443975329468645	29227559.644710336
0.7445215992023557	29054386.76699598
0.7446456861355559	28873512.220955994
0.7447697937499119	28689781.071089424
0.7448939220488703	28506019.299364585
0.7450180710358784	28322226.900677953
0.7451422407143843	28138403.86992485
0.7452664310878367	27954550.201999784
0.7453906421596846	27770665.891796928
0.7455148739333779	27586750.934208978
0.7456391264123667	27555004.599582374
0.7457633996001021	27547588.79643731
0.7458876935000356	27540171.757325042
0.7460120081156189	27532753.4820396
0.7461363434503048	27525333.97037494
0.7462606995075466	27517913.222125
0.7463850762907978	27510491.237083696
0.7465094738035127	27503053.369763214
0.7466338920491467	27491783.13858462
0.746758331031155	27480511.029034153
0.7468827907529935	27469237.040798772
0.7470072712181189	27457961.173565354
0.7471317724299886	27446683.42702073
0.7472562943920602	27435403.800851688
0.7473808371077922	27424122.294744942
0.7475054005806435	27400329.643129226
0.7476299848140736	27299480.857904594
0.7477545898115426	27198615.26454907
0.7478792155765113	27097732.860261295
0.7480038621124406	26996833.642239552
0.7481285294227926	26895917.607681498
0.7482532175110298	26794984.75378424
0.7483779263806148	26694035.077744808
0.7485026560350116	26584560.090684034
0.7486274064776842	26452038.958877
0.748752177712097	26319495.74021491
0.7488769697417158	26186930.43101609
0.749001782570006	26054343.027599234
0.7491266162004343	25921733.526281845
0.7492514706364677	25789101.923380844
0.7493763458815739	25656448.21521256
0.7495012419392209	25520323.541770678
0.7496261588128773	25379218.038921196
0.7497510965060128	25238089.018487804
0.7498760550220971	25096936.47655106
0.7500010343646007	24955760.409190636
0.7501260345369949	24814560.812485583
0.750251055542751	24673337.68251457
0.7503760973853414	24532091.015355147
0.7505011600682389	24378548.328091234
0.750626243594917	24214732.811042853
0.7507513479688495	24050889.99140854
0.7508764731935109	23887019.86463757
0.7510016192723765	23723122.42617876
0.7511267862089218	23559197.67148036
0.7512519740066232	23395245.59598945
0.7513771826689577	23231266.195152536
0.7515024121994025	23071913.53407628
0.7516276626014359	22914704.30304321
0.751752933878536	22757468.870471906
0.7518782260341824	22600207.23199512
0.7520035390718548	22442919.38324519
0.7521288729950334	22285605.31985388
0.7522542278071992	22128265.03745199
0.7523796035118337	21970898.531669628
0.7525050001124189	21799029.686086357
0.7526304176124378	21623983.965074033
0.7527558560153731	21448909.069775097
0.752881315324709	21273804.995326776
0.7530067955439299	21098671.736865982
0.7531322966765205	20923509.289529014
0.7532578187259665	20748317.64845077
0.7533833616957542	20573096.808765683
0.75350892558937	20369035.544960525
0.7536345104103016	20163585.485006288
0.7537601161620366	19958101.183375496
0.7538857428480638	19752582.6343609
0.7540113904718717	19547029.832255065
0.7541370590369503	19341442.771348927
0.7542627485467898	19135821.44593251
0.7543884590048808	18932936.76411765
0.7545141904147151	18757650.13480427
0.7546399427797842	18582334.291052952
0.7547657161035808	18406989.227994315
0.754891510389598	18231614.940758515
0.7550173256413296	18056211.42447477
0.7551431618622698	17880778.67427168
0.7552690190559135	17705316.685276933
0.7553948972257561	17517538.19479036
0.7555207963752938	17288484.709295534
0.755646716508023	17059393.048219923
0.755772657627441	16830263.205200724
0.7558986197370455	16601095.173874317
0.756024602840335	16371888.947876083
0.7561506069408084	16142644.520840183
0.7562766320419653	15913361.886399573
0.7564026781473054	15679995.608546335
0.75652874526033	15439471.559433786
0.7566548333845401	15198907.422979593
0.7567809425234375	14958303.192502744
0.7569070726805247	14717658.861320954
0.7570332238593047	14476974.422750665
0.7571593960632813	14236249.870107051
0.7572855892959586	13995485.196704648
0.7574118035608413	13766922.868985776
0.7575380388614347	13550299.658545868
0.7576642952012449	13333640.344237473
0.7577905725837782	13116944.920043672
0.7579168710125422	12900213.379945451
0.7580431904910444	12683445.717923801
0.7581695310227928	12466641.927958755
0.7582958926112967	12249802.00402844
0.7584222752600652	12016798.79669326
0.7585486789726085	11774492.32707604
0.7586751037524372	11532145.473047126
0.7588015496030628	11289758.2278754
0.7589280165279966	11047330.58482996
0.7590545045307512	10804862.537177345
0.7591810136148396	10562354.07818346
0.7593075437837755	10319805.201112717
0.7594340950410726	10075444.014725868
0.7595606673902461	9830528.012978772
0.7596872608348112	9585571.191897806
0.7598138753782836	9340573.544680262
0.75994051102418	9095535.064521287
0.7600671677760173	8850455.74461581
0.7601938456373134	8605335.578156827
0.7603205446115863	8360174.558336907
0.7604472647023548	8114752.16683388
0.7605740059131385	7869266.952780759
0.7607007682474575	7623740.8245250555
0.7608275517088319	7378173.775248522
0.7609543563007835	7132565.798129898
0.7610811820268336	6886916.886348568
0.7612080288905045	6641227.033082413
0.7613348968953197	6395524.683060079
0.7614617860448022	6150365.145698867
0.7615886963424764	5905164.748414428
0.7617156277918667	5659923.484397345
0.7618425803964988	5414641.3468360575
0.7619695541598982	5169318.328918574
0.7620965490855914	4923954.42383162
0.7622235651771058	4678549.624760201
0.7623506024379685	4439108.644053144
0.7624776608717082	4225947.096079009
0.7626047404818536	4012750.0211802013
0.7627318412719337	3799517.413435944
0.762858963245479	3586249.266923595
0.7629861064060198	3372945.5757201416
0.7631132707570876	3159606.3339012656
0.7632404563022137	2946231.5355422786
0.7633676630449308	2744458.0769027215
0.7634948909887717	2567422.090429252
0.7636221401372697	2390356.597958267
0.7637494104939593	2213261.594571704
0.7638767020623748	2036137.075351498
0.7640040148460518	1858983.0353778875
0.7641313488485262	1681799.4697309544
0.7642587040733344	1504586.373489546
0.7643860805240132	1350317.5346466752
0.7645134782041005	1223437.6061472604
0.7646408971171346	1096536.530993043
0.764768337266654	969614.3056596797
0.7648957986561985	842670.9266220531
0.7650232812893079	715706.3903546038
0.7651507851695227	588720.6933311087
