#wavelength	surface flux
0.8	351376.60199366976
0.8002000000000001	352941.28616212594
0.8004000500000003	354816.6714356778
0.8006001500125003	356695.65999141213
0.8008003000500035	358575.11829428555
0.8010005001250161	360455.04646173556
0.8012007502500472	362335.44461122464
0.8014010504376099	363800.0870120058
0.8016014007002193	365125.67263038916
0.8018018010503944	366451.5896451771
0.8020022515006572	367777.8381392194
0.8022027520635323	369104.41819538403
0.8024033027515483	370445.32961974683
0.8026039035772362	371800.29545507533
0.8028045545531306	373155.6000318627
0.8030052556917691	374511.24343479495
0.803206007005692	375867.22574857675
0.8034068085074435	377304.69074558787
0.8036076602095705	378969.9727678587
0.8038085621246229	380635.6711106339
0.8040095142651542	382301.7858779957
0.8042105166437206	383968.3171740488
0.8044115692728815	385628.46532627643
0.8046126721651998	386996.5581415175
0.8048138253332411	388364.99297996133
0.8050150287895745	389733.769927116
0.805216282546772	391102.88906850707
0.8054175866174087	392472.3504896828
0.8056189410140631	393799.4744922938
0.8058203457493168	395114.8491289112
0.8060218008357541	396430.5526091861
0.8062233062859632	397746.58501533174
0.8064248621125346	399062.946429578
0.806626468328063	400570.89374493115
0.8068281249451449	402243.4845104074
0.8070298319763813	403916.493423577
0.8072315894343755	405589.9205889737
0.8074333973317341	407263.7661111623
0.8076352556810671	408561.4164698497
0.8078371644949874	408952.81935851835
0.8080391237861113	409344.3200979093
0.8082411335670578	409735.9187124849
0.8084431938504498	410127.61522671446
0.8086453046489125	410497.62337303685
0.8088474659750746	410462.10229570814
0.8090496778415686	410426.57233811
0.809251940261029	410391.03349802253
0.8094542532460944	410355.48577322497
0.8096566168094059	410319.9291614963
0.8098590309636085	410572.79966425616
0.8100614957213493	410893.2441864554
0.8102640110952797	411213.76881978515
0.8104665770980536	411534.37358427333
0.8106691937423283	411855.05849995284
0.8108718610407639	412404.25614676764
0.8110745790060241	413128.2614819645
0.8112773476507757	413852.44781849574
0.8114801669876885	414576.8152016109
0.8116830370294355	415301.36367657146
0.8118859577886929	415810.41893282905
0.8120889292781401	415871.6363848833
0.8122919515104597	415932.8691413006
0.8124950244983374	415994.117205907
0.8126981482544621	416055.3805825295
0.8129013227915257	416171.21495594963
0.8131045481222237	416911.7491756067
0.8133078242592543	417652.46852881875
0.8135111512153191	418393.3730618689
0.813714529003123	419134.4628210524
0.8139179576353739	419875.73785267584
0.8141214371247829	424801.2176012453
0.8143249674840641	430539.2804555114
0.814528548725935	436278.77782548754
0.8147321808631167	442019.710069814
0.8149358639083326	447762.0775471998
0.8151395978743097	451343.7112989166
0.8153433827737784	453465.3881513474
0.8155472186194719	455587.5954229906
0.8157511054241268	457710.33324645134
0.815955043200483	459833.60175436933
0.8161590319612831	461617.6491458905
0.8163630717192736	462779.58854513394
0.8165671624872033	463941.81842922594
0.8167713042778252	465104.33887079003
0.8169754971038948	466267.1499424651
0.8171797409781707	467264.11143444106
0.8173840359134155	466934.9728366756
0.8175883819223938	466605.75195426104
0.8177927790178745	466276.4487666257
0.8179972272126291	465947.0632531934
0.8182017265194322	465617.595393383
0.8184062769510622	468393.7784868213
0.8186108785203001	471648.58201685536
0.8188155312399301	474904.1992477675
0.8190202351227402	478160.63038299105
0.819224990181521	481417.8756259964
0.8194297964290664	483422.8664918234
0.8196346538781738	484673.0736760809
0.8198395625416434	485923.593412134
0.8200445224322789	487174.42577812163
0.820249533562887	488425.5708522004
0.8204545959462778	489810.0304834316
0.8206597095952644	491408.89898923127
0.8208648745226633	493008.16721215856
0.8210700907412941	494607.83525214135
0.8212753582639793	496207.90320913255
0.8214806771035456	497126.51589664613
0.8216860472728215	493844.29893751437
0.8218914687846397	490561.2614241427
0.822096941651836	487277.40315139096
0.822302465887249	483992.72391407297
0.8225080415037209	480707.22350694385
0.8227136685140968	482819.08843796887
0.8229193469312254	485544.28834873467
0.8231250767679583	488270.1695594791
0.8233308580371503	490996.7322405247
0.8235366907516598	493723.9765622426
0.8237425749243477	496978.843780778
0.8239485105680789	500513.8127548791
0.824154497695721	504049.66547122155
0.824360536320145	507586.40215074376
0.8245666264542252	511124.0230144356
0.8247727681108388	514110.52929856774
0.8249789613028664	516307.21576982015
0.8251852060431922	518504.45141269226
0.825391502344703	520702.23636447405
0.8255978502202894	522900.57076249586
0.8258042496828445	524968.1156293992
0.8260107007452654	526398.3197224874
0.8262172034204517	527828.8813665973
0.8264237577213068	529259.8006511186
0.8266303636607373	530691.0776654617
0.8268370212516525	532122.7124990576
0.8270437305069654	531350.2537117003
0.8272504914395923	530405.3382496571
0.8274573040624523	529460.1865587481
0.8276641683884679	528514.7985799172
0.8278710844305652	527569.1742540905
0.8280780522016729	528503.5625947174
0.8282850717147234	530297.6429015714
0.8284921429826521	532092.1717285002
0.8286992660183978	533887.1491876373
0.8289064408349024	535682.5753911377
0.8291136674451112	536610.0397535862
0.8293209458619727	536442.7136079435
0.8295282760984382	536275.3456307646
0.829735658167463	536107.9358115913
0.8299430920820048	535940.4841399634
0.8301505778550254	535808.6216433037
0.8303581154994891	535818.940087339
0.8305657050283641	535829.2611109853
0.8307733464546212	535839.5847148877
0.8309810397912352	535849.9108996908
0.8311887850511829	535860.2396660403
0.8313965822474458	540279.895596026
0.8316044313930077	544905.3165180372
0.8318123325008561	549531.8937952834
0.8320202855839813	554159.6277168465
0.8322282906553774	558788.5185718905
0.8324363477280413	560562.1906361969
0.8326444568149735	561186.3392124106
0.8328526179291771	561810.6438257678
0.8330608310836596	562435.1045152792
0.8332690962914304	563059.7213199621
0.8334774135655034	563419.3172902748
0.833685782918895	563482.7917551271
0.8338942043646247	563546.2820885956
0.834102677915716	563609.7882946475
0.834311203585195	563673.3103772509
0.8345197813860912	564647.5267310229
0.8347284113314379	568687.4152648433
0.8349370934342709	572728.313770795
0.8351458277076294	576770.2225013683
0.8353546141645565	580813.141709131
0.8355634528180977	584857.0716466939
0.8357723436813022	580457.1927584305
0.8359812867672226	575951.9418933152
0.8361902820889144	571445.5647154859
0.8363993296594368	566938.0609433609
0.8366084294918518	562429.4302952912
0.8368175815992247	564014.8569603246
0.8370267859946247	567699.9241183255
0.8372360426911234	571385.9125431147
0.8374453517017962	575072.8224650099
0.8376547130397217	578760.654114385
0.8378641267179816	581202.6115931022
0.8380735927496613	582408.0336959256
0.8382831111478488	583613.7571542739
0.8384926819256358	584819.7820434861
0.8387023050961173	586026.1084389217
0.8389119806723914	587165.6713630449
0.8391217086675596	588116.7762048146
0.8393314890947265	589068.1188227941
0.8395413219670003	590019.6992764281
0.8397512072974922	590971.5176251762
0.8399611450993165	591995.6330174635
0.8401711353855914	596598.433043506
0.8403811781694378	601202.3837695536
0.8405912734639802	605807.485483284
0.8408014212823464	610413.7384724449
0.8410116216376671	615021.1430248526
0.8412218745430766	618828.2245607
0.8414321800117124	622403.0596082768
0.8416425380567154	625978.7883646174
0.8418529486912297	629555.4110531479
0.8420634119284025	633132.9278973474
0.8422739277813847	635322.4385478975
0.8424844962633302	636288.8212768965
0.842695117387396	637255.4456015765
0.8429057911667428	638222.3115823377
0.8431165176145345	639189.4192795944
0.8433272967439382	640217.1093715619
0.8435381285681244	641392.2438852955
0.8437490131002665	642567.6721826573
0.8439599503535415	643743.3943370926
0.84417094034113	644919.4104220675
0.8443819830762154	646126.5399120552
0.8445930785719846	647954.8306520698
0.8448042268416277	649783.5784647682
0.8450154278983382	651612.7834644197
0.8452266817553128	653442.4457653209
0.8454379884257517	655272.5654817976
0.8456493479228583	657355.1255327644
0.845860760259839	659498.8867115228
0.846072225449904	661643.183830576
0.8462837435062666	663788.0170239094
0.8464953144421433	665933.3864255424
0.8467069382707537	667553.003529052
0.8469186150053215	668762.7997048547
0.847130344659073	669972.8983297019
0.8473421272452377	671183.299479204
0.8475539627770492	672394.0032289947
0.8477658512677435	673809.5815457355
0.8479777927305605	675659.8952291677
0.8481897871787432	677510.6714910202
0.848401834625538	679361.9104469393
0.8486139350841944	681213.6122125962
0.8488260885679657	683019.2679757331
0.8490382950901076	684258.447831673
0.8492505546638802	685497.9374825774
0.8494628673025462	686737.7370058941
0.8496752330193721	687977.8464790934
0.8498876518276269	689218.2659796595
0.8501001237405839	688546.1993130035
0.8503126487715191	687492.1368996381
0.850525226933712	686437.81097067
0.8507378582404455	685383.2214602197
0.8509505427050057	684328.3683023911
0.8511632803406821	684060.8350662082
0.8513760711607672	684332.5855168687
0.8515889151785576	684604.4039051423
0.8518018124073523	684876.2902480129
0.8520147628604541	685148.2445624688
0.8522277665511693	686653.9950904906
0.8524408234928071	690441.753278887
0.8526539336986805	694230.4584068316
0.8528670971821053	698020.1107110584
0.8530803139564007	701810.7104283568
0.8532935840348901	705566.0804061401
0.8535069074308987	709016.8526858173
0.8537202841577566	712468.4876585673
0.8539337142287962	715920.9855400608
0.8541471976573534	719374.3465460227
0.8543607344567677	722828.5708922365
0.8545743246403821	725204.6058157936
0.8547879682215422	727409.8688020969
0.8550016652135977	729615.6831041464
0.8552154156299011	731822.0488597716
0.8554292194838088	734028.9662068372
0.8556430767886797	735848.7832366009
0.855856987557877	737433.6831364026
0.8560709518047664	739018.9792611783
0.8562849695427177	740604.6717099858
0.8564990407851035	742190.760581906
0.8567131655452999	743765.1427938301
0.8569273438366862	745320.0871333327
0.8571415756726455	746875.4202089206
0.8573558610665638	748431.1421177778
0.8575702000318304	749987.2529571106
0.8577845925818384	751570.7128170045
0.857999038729984	753322.9705893546
0.8582135384896665	755075.6664261473
0.858428091874289	756828.8004368994
0.8586426988972576	758582.3727311536
0.8588573595719821	760336.3834184821
0.8590720739118751	761799.4846550496
0.8592868419303532	763228.6008726723
0.8595016636408359	764658.0743693493
0.8597165390567462	766087.9052344001
0.8599314681915105	767518.0935571674
0.8601464510585584	768888.4853518446
0.860361487671323	770227.2903812849
0.8605765780432408	771566.4301119823
0.8607917221877518	772905.9046276135
0.8610069201182988	774245.7140118731
0.8612221718483286	774943.106437122
0.8614374773912907	774714.0593465694
0.8616528367606385	774484.9549942442
0.8618682499698288	774255.7933658308
0.8620837170323213	774026.5744470103
0.8622992379615795	774116.9055472566
0.8625148127710699	775788.8734282436
0.8627304414742627	777461.259301201
0.8629461240846313	779134.0632706268
0.8631618606156526	780807.2854410452
0.8633776510808066	782480.9259170059
0.8635934954935769	785143.388798072
0.8638093938674504	787887.5385579896
0.8640253462159173	790632.3743553474
0.8642413525524714	793377.8963616543
0.8644574128906095	796124.1047484622
0.8646735272438323	797754.0627563748
0.8648896956256433	798865.0216320244
0.8651059180495498	799976.258247393
0.8653221945290621	801087.7726719143
0.8655385250776946	802199.5649750434
0.8657549097089641	803951.9559197525
0.8659713484363913	806524.5362086174
0.8661878412735006	809097.7596425557
0.866404388233819	811671.6263823522
0.8666209893308775	814246.1365888324
0.8668376445782103	816579.5643710819
0.8670543539893549	817926.9687830231
0.8672711175778525	819274.7100460682
0.8674879353572469	820622.7882444276
0.8677048073410862	821971.2034623371
0.8679217335429217	823319.9557840519
0.8681387139763074	824522.6340577006
0.8683557486548015	825718.3396637219
0.8685728375919655	826914.3441961461
0.8687899808013633	828110.6477297009
0.8690071782965637	829307.2503391406
0.869224430091138	831470.4683243178
0.8694417361986609	834027.4199644144
0.8696590966327107	836585.0108424206
0.869876511406869	839143.2411181463
0.8700939805347206	841702.1109514398
0.8703115040298544	844168.2997895658
0.870529081905862	846528.4126036941
0.8707467141763385	848889.1154460252
0.8709644008548827	851250.4084640667
0.8711821419550964	853612.2918053613
0.8713999374905854	855843.8451165529
0.871617787474958	857624.1042429999
0.8718356919218269	859404.8084342303
0.8720536508448075	861185.9578015086
0.8722716642575187	862967.5524561276
0.8724897321735832	864749.592509411
0.8727078546066265	866231.0385774311
0.8729260315702784	867708.2752087207
0.873144263078171	869185.8811491664
0.8733625491439405	870663.8564910975
0.8735808897812266	872142.2013268645
0.8737992850036719	872833.6734068785
0.874017734824923	873246.4900618362
0.8742362392586293	873659.4099209574
0.874454798318444	874072.4330100433
0.8746734120180236	874485.5593549017
0.8748920803710283	875194.2745707365
0.875110803391121	876200.1018268566
0.8753295810919689	877206.1805397914
0.875548413487242	878212.5107724044
0.8757673005906139	879219.0925875755
0.8759862424157616	880650.1273191076
0.8762052389763657	883308.9662059031
0.8764242902861098	885968.4698024183
0.8766433963586814	888628.6382748333
0.8768625572077712	891289.4717893674
0.8770817728470732	893932.932255624
0.8773010432902849	895168.6720220868
0.8775203685511077	896404.720723493
0.8777397486432454	897641.078437073
0.8779591835804065	898877.745240083
0.8781786733763015	900114.721209792
0.8783982180446457	900474.085565404
0.878617817599157	900572.3747164214
0.8788374720535569	900670.6884397264
0.8790571814215703	900769.0267414622
0.8792769457169257	900867.3896277734
0.879496764953355	899819.5413487564
0.8797166391445934	897740.8898768638
0.8799365683043796	895661.7187421031
0.8801565524464557	893582.0278145587
0.8803765915845676	891501.8169642804
0.8805966857324639	891402.6460405765
0.880816834903897	896280.5349447557
0.881037039112623	901159.6433211628
0.8812572983724012	906039.9714746636
0.8814776126969944	910921.5197102049
0.8816979821001687	915595.8826485816
0.8819184065956938	915365.5092924832
0.8821388861973429	915135.0783430455
0.8823594209188923	914904.5897858707
0.882580010774122	914674.0436065567
0.8828006557768155	914443.4397906978
0.8830213559407598	915163.700744208
0.8832421112797452	916123.308404212
0.8834629218075651	917083.1559661306
0.8836837875380171	918043.24348994
0.8839047084849018	919003.5710356303
0.884125684662023	920251.9846412936
0.8843467160831886	921731.3821396334
0.8845678027622095	923211.1494873478
0.8847889447129001	924691.2867768995
0.8850101419490785	926171.7941007732
0.8852313944845657	927688.8900639842
0.885452702333187	929285.643182841
0.8856740655087704	930882.7954899773
0.8858954840251476	932480.34708519
0.8861169578961539	934078.2980683008
0.886338487135628	935364.6663666643
0.886560071757412	932499.682565258
0.8867817117753515	929633.9825179013
0.8870034072032955	926767.5660455315
0.8872251580550963	923900.4329690471
0.8874469643446101	921032.5831092916
0.8876688260856963	923489.3306461677
0.8878907432922178	927048.8344244324
0.8881127159780409	930609.2280786394
0.8883347441570356	934170.5118312641
0.8885568278430749	937732.6859048234
0.8887789670500358	941038.5188176398
0.8890011617917983	944162.7047971181
0.8892234120822464	947287.6718230926
0.8894457179352669	950413.4200908212
0.8896680793647509	953539.9497956191
0.8898904963845921	954975.430457856
0.8901129690086883	953183.2125285064
0.8903354972509405	951390.5465446748
0.8905580811252535	949597.4323943458
0.8907807206455347	947803.8699654816
0.8910034158256963	945830.123531174
0.8912261666796527	942249.5929648208
0.8914489732213227	938668.1672658251
0.8916718354646282	935085.846210401
0.8918947534234944	931502.6295747167
0.8921177271118502	927918.5171348755
0.8923407565436284	922243.3794688847
0.8925638417327644	916225.8661129941
0.8927869826931977	910206.8483787627
0.8930101794388711	904186.3258900981
0.8932334319837308	898164.2982708123
0.8934567403417267	891989.7025776432
0.8936801045268123	885719.695632502
0.8939035245529441	879448.1211856286
0.8941270004340824	873174.9788451411
0.894350532184191	866900.2682190702
0.8945741198172371	869488.8751889986
0.8947977633471915	886779.485758911
0.8950214627880284	904074.4189814652
0.8952452181537254	921373.6759373146
0.8954690294582639	938677.2577074135
0.8956928967156286	953789.0180659702
0.8959168199398075	954652.3426722327
0.8961407991447926	955515.8831096468
0.8963648343445789	956379.6394321705
0.896588925553165	957243.6116937742
0.8968130727845534	958107.7999484435
0.8970372760527496	957384.7544936253
0.8972615353717629	956462.9063445935
0.8974858507556059	955540.8277335244
0.8977102222182949	954618.5186028028
0.8979346497738496	953695.978894798
0.8981591334362931	963253.7982469479
0.8983836732196523	978545.5951223564
0.8986082691379572	993841.2149469737
0.8988329212052417	1009140.6586765472
0.8990576294355432	1024443.9272670663
0.8992823938429022	1035017.7248267604
0.8995072144413631	1038556.3549328079
0.8997320912449734	1042095.8696963807
0.8999570242677847	1045636.2693386435
0.9001820135238516	1049177.5540808171
0.9004070590272328	1052284.3258957828
0.9006321607919896	1053109.368243744
0.9008573188321878	1053934.616852293
0.9010825331618959	1054760.0717729935
0.9013078037951865	1055585.7330574247
0.9015331307461353	1056411.6007571763
0.9017585140288219	1058249.0758394424
0.9019839536573292	1060174.124872887
0.9022094496457435	1062099.6551685885
0.9024350020081551	1064025.6668468663
0.9026606107586572	1065952.160028063
0.902886275911347	1071866.8548056453
0.9031119974803249	1079705.3868549399
0.9033377754796951	1087545.878537247
0.903563609923565	1095388.330342471
0.903789500826046	1103232.7427606515
0.9040154482012526	1108642.8704494962
0.904241452063303	1110898.4069144211
0.9044675124263188	1113154.5072634618
0.9046936293044254	1115411.1716375893
0.9049198027117517	1117668.4001778117
0.9051460326624297	1119821.1640717692
0.9053723191705955	1121527.2284396165
0.9055986622503881	1123233.7193235543
0.9058250619159507	1124940.6368302128
0.9060515181814298	1126647.9810662493
0.9062780310609752	1128355.7521383436
0.9065046005687405	1120185.0147503559
0.906731226718883	1111461.118079137
0.9069579095255627	1102735.0404337617
0.907184649002944	1094006.7812689743
0.907411445165195	1085276.3400393869
0.9076382980264862	1091076.995064872
0.907865207600993	1102914.7440500052
0.9080921739028933	1114755.4524723813
0.9083191969463691	1126599.1210718607
0.9085462767456058	1138445.750588496
0.9087734133147922	1145622.5781651603
0.9090006066681211	1147404.100073789
0.909227856819788	1149186.0673628927
0.9094551637839932	1150968.4801438209
0.9096825275749393	1152751.3385279437
0.9099099482068329	1155074.48251198
0.9101374256938848	1159316.8075950595
0.9103649600503083	1163560.1932594078
0.9105925512903209	1167804.6397701711
0.9108201994281437	1172050.1473925665
0.9110479044780008	1176296.716391863
0.9112756664541204	1180186.5753963806
0.911503485370734	1184069.2175359507
0.9117313612420768	1187952.8303360557
0.9119592940823873	1191837.4140393594
0.912187283905908	1195722.9688885903
0.9124153307268845	1189981.1067711068
0.9126434345595664	1180743.2670094806
0.9128715954182063	1171503.1177879225
0.9130998133170609	1162260.6585290546
0.9133280882703902	1153015.8886553724
0.913556420292458	1151590.902975004
0.9137848093975312	1158232.6035159207
0.9140132555998806	1164875.964481972
0.9142417589137806	1171520.986288265
0.9144703193535092	1178167.669350014
0.9146989369333476	1183322.964243192
0.9149276116675811	1183976.4630813494
0.9151563435704979	1184630.125294216
0.9153851326563907	1185283.950922636
