#wavelength	surface flux
0.6450077295303345	31163.241017296947
0.6472567915916443	32340.110737549654
0.6494921445846558	33579.221283697116
0.6517150402069092	34845.17167706223
0.6539263725280762	36116.676471624254
0.6561272740364075	37421.27167715007
0.6583186388015747	38744.757367991035
0.6605015397071838	40134.721451793426
0.6626768708229065	41541.61411774405
0.6648455858230591	42987.5646278471
0.6670085787773132	44461.94285706351
0.6691668033599854	45734.20697102903
0.6713210344314575	47016.451767637416
0.6734722256660461	49086.46928293912
0.6756211519241333	50735.242596158096
0.6777685880661011	52407.69913144649
0.6799154281616211	54095.03365293971
0.6820623278617859	55847.488161729125
0.6842101216316223	57656.37416040434
0.6863595843315125	59490.45639155627
0.688511312007904	61363.70754023424
0.6906660795211792	63211.501274375856
0.6928245425224304	64966.06524427197
0.6949873566627502	67243.00969103459
0.6971551775932312	69377.78799625943
0.6993286609649658	71496.60594556924
0.7015084028244019	73648.65699127626
0.7036949396133423	75910.78565458649
0.7058889269828796	78294.85796409997
0.7080909013748169	80635.461485353
0.710301399230957	83067.9237417979
0.712520956993103	85597.40474095441
0.7147500514984131	88108.56270264601
0.7169892191886902	90345.78626589765
0.7192389369010925	93270.91294276905
0.7214996814727783	96048.37681766605
0.723771870136261	98821.87792546353
0.7260559797286987	101580.68568636423
0.7283523678779602	104658.8814944749
0.7306615710258484	107574.1343359928
0.7329838871955872	111024.31218721735
0.7353196740150452	114277.5241037929
0.7376693487167358	117631.16443118981
0.7400332689285278	121212.16446469368
0.7424117922782898	124533.51552482341
0.7448052167892456	128293.57023188198
0.7472138404846191	131940.9132973559
0.7496379613876343	135643.4711868382
0.7520779371261597	139208.7876318731
0.7545340061187744	142553.44721092613
0.7570064663887024	145243.71484098554
0.7594954967498779	146254.40362786117
0.7620013952255249	140409.8216482062
0.7645244002342224	95513.39987158295
0.7670646905899048	36573.26167873413
0.7696225643157959	28332.368936978026
0.7721980810165405	131085.66060759086
0.7747915983200073	170056.52216217012
0.7774031162261963	181791.21338027838
0.7800329327583313	188277.30348189324
0.7826811671257019	196643.4723223267
0.7853479981422424	203355.398295868
0.7880334854125977	209862.29802990743
0.7907378077507019	216268.2393982986
0.7934610247612	212716.08634017725
0.7962033748626709	218431.4324513248
0.7989648580551147	236300.2863770752
0.801745593547821	243261.00432226915
0.8045456409454346	250277.06105140402
0.8073651194572449	257451.04773719262
0.8102040886878967	263610.9136109065
0.8130625486373901	270403.26798877656
0.8159406185150146	280042.69191849604
0.8188382983207703	288126.7047053429
0.8217556476593018	295972.7896155233
0.8246926665306091	304772.3987220022
0.8276493549346924	313502.16661926685
0.8306257724761963	321764.24700218096
0.8336219191551208	331535.3268980065
0.8366377949714661	339929.5971909704
0.8396733403205872	349691.3415965495
0.8427285552024841	361533.18240673427
0.8458034992218018	371906.9652002019
0.8488980531692505	382660.99832376395
0.8520121574401855	393519.65105247824
0.8551458716392517	404822.6508977334
0.8582990765571594	416448.2091346659
0.8614717125892639	427782.95584053925
0.8646637797355652	439774.86450929154
0.8678751587867737	452198.28616181255
0.8711057901382446	464840.00230858277
0.8743556141853333	477730.23921144527
0.87762451171875	490989.94717017823
0.8809124231338501	504155.1916878806
0.8842192888259888	518311.673196514
0.8875449895858765	531764.677885636
0.8908893465995789	544050.9401603157
0.894252359867096	555517.9364435159
0.8976338505744934	572148.216287076
0.9010337591171265	590419.152904156
0.9044519662857056	606879.3131389198
0.9078882932662964	621711.1176163336
0.9113426208496094	639671.4839908155
0.914814829826355	654249.44854133
0.9183048605918884	667867.7638830396
0.9218124747276306	690176.9548792287
0.925337553024292	694523.8296792196
0.9288799166679382	663045.0471820304
0.9324395060539246	696175.8697748437
0.9360161423683167	719531.8885879235
0.9396095871925354	756877.00870432
0.943219780921936	765455.6363676883
0.9468464851379395	767074.9954404476
0.9504896402359009	804615.4082673244
0.9541489481925964	824772.7632589944
0.9578243494033813	848617.4464745849
0.9615156054496765	840812.1684372621
0.9652225375175476	870792.493047429
0.9689450263977051	886817.3339619087
0.9726828336715698	956432.2330391274
0.9764357805252075	972420.3482043761
0.9802037477493286	1004966.4674394715
0.983986496925354	1032043.6774051745
0.9877838492393494	1059887.3745362884
0.9915955662727356	1095278.1514655782
0.9954215884208679	1121877.2570370187
0.9992615580558777	1151489.1309114932
1.0031154155731201	1178106.5540350536
1.0069829225540161	1209653.4753089126
1.0108637809753418	1239704.9543800324
1.0147579908370972	1271310.1178211677
1.018665075302124	1301098.9855085374
1.022585153579712	1330513.1014541935
1.0265177488327026	1359594.740748971
1.0304628610610962	1391430.478960164
1.0344202518463135	1424184.0037989814
1.0383895635604858	1456062.3547986022
1.0423706769943237	1488173.00082331
1.0463634729385376	1520664.446403231
1.0503677129745483	1553412.4860122942
1.0543830394744873	1586591.7345477776
1.058409333229065	1620453.9889462735
1.0624464750289917	1654992.1572069603
1.0664942264556885	1689605.7237186355
1.0705522298812866	1723196.4727480016
1.0746204853057861	1759877.3720432075
1.0786986351013184	1795182.0872314738
1.0827864408493042	1832370.973756057
1.086883783340454	1867142.2189058322
1.0909905433654785	1892109.8605329609
1.0951062440872192	1922012.8758175035
1.0992310047149658	1919864.5290072218
1.10336434841156	1835907.1439531872
1.1075061559677124	1888465.696377474
1.1116561889648438	1911064.214587591
1.115814208984375	1858895.0807435652
1.1199802160263062	1912675.5178033758
1.124153733253479	1996753.6670688826
1.1283347606658936	2064820.1489324344
1.1325229406356812	1937854.419879122
1.1367181539535522	2099509.934055407
1.1409201622009277	2202006.3286393452
1.145128846168518	2293291.057391039
1.1493438482284546	2281450.4920556955
1.1535650491714478	2000139.2481271417
1.1577922105789185	2177559.077661128
1.1620250940322876	2237864.228931545
1.1662636995315552	2445627.149285083
1.170507550239563	2429020.077805374
1.174756646156311	2567474.5854484397
1.1790107488632202	2686282.052384399
1.1832695007324219	2766222.8070781413
1.1875330209732056	2812929.1629121914
1.191800832748413	2879494.9943464203
1.1960728168487549	2947718.001298721
1.2003488540649414	3008417.922606414
1.2046287059783936	3055748.790441872
1.2089121341705322	3103832.4040703964
1.2131990194320679	3150585.811094579
1.2174891233444214	3214287.048359995
1.2217823266983032	3267952.8330446263
1.2260783910751343	3323691.58478524
1.230377197265625	3375865.1871618466
1.2346785068511963	3425748.8380995337
1.238982081413269	3480413.854658056
1.2432878017425537	3532770.825556095
1.2475954294204712	3584850.9386478434
1.2519049644470215	3635341.058615563
1.256216049194336	3691062.5841991957
1.2605286836624146	3740398.262084056
1.2648425102233887	3789836.9938883
1.2691574096679688	3842998.76601995
1.2734732627868652	3891309.2342449003
1.2777899503707886	3945396.615569408
1.2821072340011597	3984893.8970627054
1.2864248752593994	4039627.805828291
1.2907428741455078	4064693.4126910926
1.2950609922409058	4117637.665812941
1.2993791103363037	4172486.6438282547
1.303696870803833	4199778.040206326
1.3080145120620728	4250344.579485429
1.3123314380645752	4304366.518258328
1.3166478872299194	4399711.0157683175
1.3209635019302368	4411540.449537198
1.3252781629562378	4363345.590949691
1.3295916318893433	4277422.4255896
1.3339040279388428	3740896.9032060523
1.3382149934768677	2680635.2355672163
1.3425244092941284	2139210.8338379217
1.3468321561813354	3034074.754280293
1.3511382341384888	2419219.4793684008
1.3554422855377197	1802293.3429240657
1.3597444295883179	2056201.7809619731
1.3640443086624146	2230781.9606978763
1.3683418035507202	2392908.515597536
1.3726370334625244	3177251.90504005
1.3769296407699585	3910366.108749445
1.381219506263733	2752566.4612283306
1.3855066299438477	1779922.5000650035
1.3897908926010132	2046223.2678375829
1.3940720558166504	2144311.161595582
1.3983501195907593	1978029.9077837444
1.4026249647140503	2866932.940476359
1.4068963527679443	3686485.906172516
1.4111642837524414	2260694.4368176023
1.4154287576675415	2608033.8477679826
1.419689416885376	2967214.6775086857
1.4239463806152344	2225479.447433842
1.4281994104385376	3446350.92469183
1.4324485063552856	2671948.9188312744
1.436693549156189	3087526.3028643797
1.440934419631958	3241097.316866673
1.4451709985733032	3884896.893061866
1.449403166770935	4651342.493832252
1.453631043434143	4771347.7279578885
1.4578542709350586	4948455.031393757
1.4620729684829712	5008674.179571209
1.4662868976593018	5217330.636189779
1.4704961776733398	4958669.660306355
1.4747005701065063	5069453.757093051
1.4788999557495117	5134145.020226386
1.4830944538116455	5523319.547561481
1.4872838258743286	5764753.243503239
1.491468071937561	5820819.440654058
1.4956470727920532	5737455.766600019
1.4998208284378052	5981942.257360837
1.5039892196655273	6198028.122743416
1.5081522464752197	6140473.52116124
1.5123097896575928	6255209.015524621
1.5164618492126465	6428139.868485254
1.5206083059310913	6667195.9907481745
1.5247491598129272	6843279.266503029
1.5288842916488647	6793120.447743946
1.5330137014389038	6922646.9148420235
1.5371372699737549	7042112.377029824
1.541254997253418	7099802.475545777
1.545366883277893	7215539.127110817
1.5494728088378906	7300942.684326831
1.5535727739334106	7364777.9258934455
1.5576666593551636	7368691.187692169
1.561754584312439	7422429.867649427
1.5658363103866577	7520542.858919102
1.5699119567871094	7609285.126478226
1.5739814043045044	7670790.977170089
1.5780447721481323	7705480.355939854
1.582101821899414	7779769.544012038
1.5861525535583496	7851152.026435954
1.5901970863342285	7892886.017914301
1.5942351818084717	7961690.698481649
1.5982669591903687	8012481.175493037
1.6022924184799194	8075961.471662226
1.606311559677124	8127571.166684505
1.6103241443634033	8178748.8916974915
1.6143304109573364	8232556.373946091
1.6183301210403442	8277190.6769889025
1.6223233938217163	8331113.072094616
1.6263102293014526	8378734.009509282
1.6302905082702637	8410212.874381999
1.634264349937439	8468618.459823878
1.638231635093689	8534606.542257044
1.6421923637390137	8585695.846486656
1.646146535873413	8630666.53090655
1.6500942707061768	8649558.843401553
1.6540353298187256	8700482.382198714
1.6579699516296387	8737840.463092437
1.661897897720337	8746977.304395823
1.6658192873001099	8762950.557469625
1.6697341203689575	8769901.960384382
1.6736423969268799	8921152.419896888
1.677544116973877	8976926.751278954
1.6814392805099487	9028482.997767868
1.6853278875350952	9080756.6330816
1.6892099380493164	9101369.996781934
1.6930854320526123	9044303.226739215
1.696954369544983	9019293.616961671
1.7008168697357178	9147200.763499813
1.7046726942062378	9186528.888373034
1.708522081375122	9184160.747139063
1.712364912033081	9192480.567568181
1.7162011861801147	9217523.547474936
1.7200311422348022	9324445.609375773
1.723854422569275	9323954.86900808
1.7276713848114014	9328278.478674905
1.731481909751892	9241161.697808111
1.7352858781814575	9142248.779587088
1.7390835285186768	9085073.902653212
1.7428747415542603	9001563.895574747
1.7466596364974976	8762021.39826691
1.7504380941390991	8618470.70563983
1.7542102336883545	8209094.541929827
1.7579760551452637	8926320.838419173
1.7617355585098267	9310604.671151
1.7654887437820435	8980414.890039774
1.7692357301712036	8346468.990637381
1.7729763984680176	7598492.343647487
1.776710867881775	6214002.822563168
1.7804391384124756	6093552.113012698
1.7841613292694092	6561054.81182359
1.7878772020339966	5676286.612791635
1.7915871143341064	6346671.528960097
1.7952908277511597	6614335.762958293
1.7989884614944458	6143893.320680635
1.8026801347732544	4717895.870874899
1.806365728378296	3333561.345532506
1.8100452423095703	3700913.798966568
1.8137187957763672	5035174.048292243
1.817386507987976	3382146.0267109023
1.8210482597351074	4934773.150450515
1.8247040510177612	5420844.028710419
1.828354001045227	3221926.5361263286
1.8319982290267944	4084874.33499326
1.8356364965438843	5085862.424403189
1.8392690420150757	6126962.148764764
1.8428958654403687	6003487.957602235
1.8465168476104736	6049743.700316181
1.8501322269439697	5944831.950549362
1.8537418842315674	4003712.2135447892
1.8573459386825562	4136587.231195777
1.860944390296936	4457094.158675531
1.864537239074707	3419901.0721013206
1.8681244850158691	4355810.12934118
1.871706247329712	5673976.959414156
1.8752825260162354	6480623.962137202
1.8788533210754395	7155584.7961575985
1.8824186325073242	7818705.507307888
1.8859784603118896	7156936.395912058
1.8895330429077148	6850722.850635606
1.8930821418762207	7876130.431413648
1.8966259956359863	7577902.3103858465
1.9001644849777222	5169733.994654493
1.9036977291107178	3857930.5671378705
1.9072256088256836	4985510.972041413
1.9107483625411987	4717709.657873976
1.9142658710479736	3164120.901922947
1.9177782535552979	3616633.0860687834
1.9212853908538818	4758697.848077193
1.9247875213623047	4203588.983930882
1.9282845258712769	4515426.074167472
1.9317764043807983	5535613.959295709
1.9352631568908691	5691207.929218292
1.9387450218200684	5126043.459910307
1.942221760749817	5582605.194794553
1.9456936120986938	5658040.695370599
1.9491604566574097	5719149.150604344
1.952622413635254	5361348.628237566
1.956079363822937	4840439.22327581
1.959531545639038	5600191.082675997
1.962978720664978	5742829.511776477
1.966421127319336	6364996.795701408
1.9698586463928223	7511770.430342216
1.9732913970947266	7644546.900025126
1.9767193794250488	7788610.013607851
1.9801424741744995	8537674.594005385
1.9835609197616577	8987568.617249092
1.9869745969772339	9061896.010920662
1.990383505821228	8243208.646373991
1.9937876462936401	8421042.143363234
1.9971871376037598	8387038.718104439
2.000581979751587	8534918.522953603
2.003972291946411	9501397.404573375
2.007357597351074	9753981.84602635
2.0107386112213135	10243524.961065417
2.0141148567199707	10320973.00854136
2.017486572265625	9898074.216514759
2.0208535194396973	10196529.759973735
2.0242159366607666	10746045.174759261
2.027573823928833	10896657.218739226
2.0309269428253174	11055544.00465941
2.034275770187378	11273941.69514428
2.0376198291778564	11393715.988559647
2.040959596633911	11496560.429862205
2.044294595718384	11666178.012010762
2.0476250648498535	11869344.381340262
2.0509510040283203	11897801.334310846
2.054272413253784	11790201.025221014
2.057589530944824	11876741.481005324
2.0609018802642822	12011366.857084882
2.0642096996307373	12118077.090722475
2.0675129890441895	12195305.94534192
2.0708119869232178	12225868.95343114
2.074106216430664	12207200.504650986
2.0773961544036865	12215126.849239497
2.080681324005127	12278475.844283475
2.0839622020721436	12329967.730617601
2.087238311767578	12369803.03692207
2.090510129928589	12379795.202658745
2.0937774181365967	12371423.589024467
2.0970399379730225	12418093.228036959
2.1002981662750244	12452696.151372526
2.1035518646240234	12476030.947970536
2.1068007946014404	12519482.914956016
2.1100454330444336	12586937.541803854
2.1132853031158447	12617290.054786257
2.116520881652832	12597983.686327018
2.1197516918182373	12612349.244260537
2.1229779720306396	12662763.13161994
2.12619948387146	12698148.138588253
2.1294167041778564	12716299.654791053
2.132629156112671	12743727.634916438
2.1358368396759033	12753170.793011576
2.139039993286133	12746910.96949443
2.1422386169433594	12761768.34395806
2.145432472229004	12779430.009887142
2.1486217975616455	12787334.548603848
2.151806354522705	12785331.207308752
2.1549863815307617	12798176.379058387
2.1581614017486572	12831789.234323956
2.16133189201355	12855582.412681904
2.1644976139068604	12874498.911161346
2.167658567428589	12881248.317681903
2.1708147525787354	12877843.743479582
2.173966407775879	12869658.662859038
2.1771130561828613	12882751.801520152
2.1802549362182617	12922777.16340115
2.183391809463501	12952106.221355189
2.1865241527557373	12963681.284193976
2.1896514892578125	12975880.042777078
2.1927738189697266	12947500.180412434
2.1958916187286377	12864921.963352622
2.1990041732788086	12801984.465178272
2.2021119594573975	12808249.74165419
2.2052149772644043	12848451.435646614
2.208312749862671	12898809.470590716
2.2114057540893555	12937499.074039979
2.214493751525879	12933129.481326148
2.217576742172241	12901835.856043635
2.2206547260284424	12908531.891158886
2.2237277030944824	12926279.553938098
2.2267956733703613	12895459.215543699
2.2298583984375	12855148.47739811
2.2329163551330566	12848966.05344002
2.235969066619873	12872266.326155728
2.2390167713165283	12862449.897875892
2.2420592308044434	12753839.328639418
2.2450966835021973	12633314.18640729
2.248128890991211	12660068.15754677
2.2511560916900635	12786424.792901099
2.254178285598755	12879843.866026133
2.257194995880127	12926564.586652728
2.260206699371338	12907307.094058339
2.2632133960723877	12757580.697372425
2.266214609146118	12570477.738300752
2.2692108154296875	12527339.946655896
2.2722020149230957	12656171.76082905
2.2751877307891846	12786120.318941059
2.278168201446533	12765841.63465641
2.2811436653137207	12655417.321884425
2.284113883972168	12616148.268592626
2.287078857421875	12613674.63548704
2.290038824081421	12423620.541647678
2.2929933071136475	11840711.204305915
2.295942783355713	10862757.381013805
2.298887014389038	9740904.69034653
2.301826238632202	8755060.47935531
2.304760217666626	7980434.44240822
2.3076889514923096	7461274.4645765135
2.310612440109253	7409797.354492334
2.3135311603546143	7597588.230315219
2.3164443969726562	7436435.059191411
2.319352865219116	7112302.539691094
2.322256088256836	6967041.882795388
2.3251543045043945	6999725.971817728
2.328047275543213	7107104.728904661
2.330935478210449	7354775.161962182
2.3338186740875244	7751429.060068879
2.3366971015930176	8231543.737701736
2.3395702838897705	8739946.969323581
2.3424389362335205	9366272.625325758
2.3453025817871094	10025958.70062206
2.348161458969116	10273936.401554478
2.351015567779541	9932822.388802394
2.353865146636963	9352149.696213752
2.3567099571228027	8967432.59400968
2.3595502376556396	9034577.597288566
2.3623859882354736	9582261.965656381
2.3652172088623047	9631626.713016653
2.368043899536133	8793978.123557491
2.370866537094116	8975751.423654608
2.3736846446990967	9575237.60070725
2.3764986991882324	9001749.098880071
2.3793084621429443	8035975.109930528
2.3821144104003906	7873306.894095458
2.384916305541992	8783111.810066314
2.387714147567749	10112339.25291981
2.3905084133148193	10952387.562964413
2.393299102783203	10872299.188104568
2.3960859775543213	9853533.27241363
2.398869514465332	8933736.980193254
2.4016497135162354	8470171.778244477
2.4044265747070312	8444331.646048434
2.407200336456299	8701880.355262732
2.409970998764038	9025878.573619071
2.4127390384674072	9258760.495411444
2.415503978729248	9475025.061871098
2.418266534805298	9807615.663961926
2.4210267066955566	10049309.331152586
2.4237842559814453	10129723.733900959
2.426539897918701	10080958.143931461
2.429293394088745	9957599.553793285
2.4320452213287354	9883115.435283653
2.4347951412200928	9987067.308711594
2.4375438690185547	10106113.40337266
2.440291166305542	9852580.684377797
2.443037271499634	9416228.381998882
2.445782423019409	8949428.208889063
2.4485268592834473	8546482.16876927
2.451270818710327	8469342.240447868
2.454014539718628	8988655.927169988
2.4567582607269287	9638032.346016815
2.4595019817352295	9438489.311005095
2.4622461795806885	9508833.889270462
2.4649908542633057	9210214.324936418
2.4677364826202393	8279624.445436501
2.4704833030700684	6931049.03374633
2.473231554031372	5707092.241310812
2.4759814739227295	4855651.381392765
2.4787333011627197	4765636.470974244
2.481487512588501	5333661.410738454
2.4842441082000732	5764701.726127049
