#wavelength	surface flux
0.7	137571.06360346236
0.7001166666666666	137846.19113897847
0.7002333527777778	138022.11657784652
0.700350058336574	138198.07133762096
0.7004667833462966	138374.0554231885
0.7005835278101878	138550.06883943742
0.7007002917314895	138726.11159125544
0.7008170751134447	138902.18368353206
0.7009338779592968	139078.28512115733
0.7010507002722901	139162.72473178557
0.7011675420556689	139135.5963488807
0.701284403312678	139108.46344457872
0.7014012840465635	139081.32601812598
0.7015181842605713	139054.18406876884
0.701635103957948	139027.0375957535
0.701752043141941	138999.88659832597
0.701869001815798	138972.73107573218
0.7019859799827672	139052.22206631012
0.7021029776460976	139205.94942331605
0.7022199948090387	139359.70240154836
0.7023370314748403	139513.481005277
0.7024540876467528	139667.28523877286
0.702571163328027	139821.1151063074
0.7026882585219152	139974.97061215364
0.7028053732316688	140128.85176058393
0.7029225074605406	140511.1357674275
0.7030396612117841	140981.67040330067
0.7031568344886527	141452.2834616132
0.7032740272944008	141922.97495543517
0.7033912396322832	142393.7448978397
0.7035084715055552	142864.5933019008
0.7036257229174727	143335.52018069613
0.7037429938712924	143806.525547305
0.7038602843702709	144178.07002777918
0.7039775944176659	144532.79382388023
0.7040949240167356	144887.57674061414
0.7042122731707383	145242.418787834
0.7043296418829335	145597.31997539525
0.7044470301565806	145952.28031315436
0.70456443799494	146307.29981096947
0.7046818654012724	146662.37847870114
0.7047993123788394	146915.4190846789
0.7049167789309024	147168.384702975
0.7050342650607243	147421.39248220788
0.7051517707715678	147674.44242940383
0.7052692960666963	147927.53455159088
0.705386840949374	148180.6688557982
0.7055044054228656	148433.8453490566
0.7056219894904361	148660.06419495877
0.7057395931553511	148714.7396132146
0.705857216420877	148769.42414404018
0.7059748592902804	148824.11778895423
0.7060925217668288	148878.8205494758
0.70621020385379	148933.5324271241
0.7063279055544321	148988.25342341862
0.7064456268720246	149042.98353987926
0.7065633678098366	149127.4152680101
0.7066811283711383	149293.6347299976
0.7067989085592001	149459.88189522875
0.7069167083772933	149626.15676832068
0.7070345278286895	149792.45935389155
0.707152366916661	149958.78965656005
0.7072702256444803	150125.14768094546
0.7073881040154211	150291.53343166853
0.7075060020327569	150513.51317951852
0.7076239196997625	150816.45370929898
0.7077418570197124	151119.44472916742
0.7078598139958823	151422.48624753914
0.7079777906315483	151725.5782728309
0.7080957869299869	152028.72081345998
0.7082138028944751	152331.91387784568
0.7083318385282908	152635.15747440897
0.7084498938347124	152720.515698438
0.708567968817018	152621.11762856707
0.7086860634784875	152521.70299235103
0.7088041778224007	152422.27178702888
0.7089223118520377	152322.8240098393
0.7090404655706796	152223.35965802026
0.709158638981608	152123.87872880913
0.709276832088105	152024.3812194431
0.7093950448934531	152212.941558919
0.7095132774009353	152538.91912937714
0.7096315296138355	152864.95102943052
0.7097498015354378	153191.03726813378
0.7098680931690269	153517.1778545432
0.7099864045178884	153843.37279771743
0.7101047355853081	154169.62210671545
0.7102230863745722	154495.9257905981
0.7103414568889679	154789.994533506
0.7104598471317828	155076.77539251235
0.7105782571063047	155363.60404832833
0.7106966868158224	155650.48050892027
0.710815136263625	155937.4047822556
0.7109336054530023	156224.3768763033
0.7110520943872445	156511.39679903325
0.7111706030696424	156798.46455841715
0.7112891315034873	156923.75758564138
0.7114076796920712	157041.3504738553
0.7115262476386865	157158.96296088392
0.7116448353466263	157276.59504999363
0.711763442819184	157394.24674445158
0.711882070059654	157511.91804752537
0.7120007170713306	157629.60896248295
0.7121193838575091	157748.32780551055
0.7122380704214853	157877.58288064168
0.7123567767665555	158006.85949828522
0.7124755028960166	158136.15766203174
0.7125942488131658	158265.47737547214
0.7127130145213015	158394.81864219846
0.7128318000237216	158524.18146580216
0.7129506053237256	158653.56584987664
0.7130694304246129	158775.8953247955
0.7131882753296837	158873.50334467602
0.7133071400422386	158971.12763255986
0.7134260245655789	159068.7681911583
0.7135449289030065	159166.4250231832
0.7136638530578235	159264.0981313467
0.7137827970333332	159361.7875183617
0.7139017608328388	159459.4931869412
0.7140207444596443	159548.83019557336
0.7141397479170543	159623.22418540082
0.7142587712083737	159697.63057422647
0.7143778143369084	159772.04936411697
0.7144968773059646	159846.48055713915
0.7146159601188489	159920.92415536015
0.7147350627788687	159995.3801608475
0.7148541852893318	160069.84857566908
0.7149733276535467	160039.56405158158
0.7150924898748222	159903.63144246023
0.715211671956468	159767.67617790398
0.7153308739017941	159631.6982541369
0.715450095714111	159495.69766738257
0.71556933739673	159359.67441386374
0.7156885989529628	159223.6284898027
0.7158078803861218	159087.5598914208
0.7159271816995193	158545.9507883861
0.7160465028964692	157766.2377526131
0.7161658439802853	156986.39476466746
0.7162852049542819	156206.42180289066
0.7164045858217744	155426.31884561977
0.716523986586078	154646.08587118963
0.7166434072505089	153865.72285793084
0.716762847818384	153085.22978416953
0.7168823082930204	152733.27277818957
0.7170017886777359	152507.36886979654
0.7171212889758488	152281.42731075227
0.7172408091906781	152055.44809478146
0.7173603493255433	151829.43121560788
0.7174799093837642	151603.37666695457
0.7175994893686615	151377.28444254308
0.7177190892835562	151151.15453609425
0.7178387091317702	152289.12193819424
0.7179583489166254	153564.21479076924
0.7180780086414448	154839.52015882064
0.7181976883095517	156115.0380777667
0.7183173879242699	157390.76858303265
0.718437107488924	158666.71171004983
0.7185568470068389	159942.8674942553
0.7186766064813399	161166.3362648866
0.7187963859157535	161067.3997107824
0.7189161853134061	160968.4466672525
0.719036004677625	160869.47713154866
0.7191558440117378	160770.49110092226
0.7192757033190732	160671.48857262396
0.7193955826029597	160572.46954390442
0.7195154818667269	160473.4340120133
0.7196354011137046	160344.61990745112
0.7197553403472235	160078.75445856556
0.7198752995706147	159812.84469877192
0.7199952787872098	159546.8906206848
0.720115278000341	159280.89221691803
0.7202352972133411	159014.84948008394
0.7203553364295432	158748.7624027941
0.7204753956522815	158482.63097765765
0.7205954748848902	158403.55507915065
0.7207155741307044	158736.95131308853
0.7208356933930594	159070.4031130648
0.7209558326752915	159403.91048834118
0.7210759919807375	159737.4734481805
0.7211961713127342	160071.09200184606
0.7213163706746197	160404.76615860444
0.7214365900697322	160738.4959277219
0.7215568295014103	160825.48414073378
0.721677088972994	160618.01624256052
0.7217973684878227	160410.51376640462
0.7219176680492374	160202.97670650244
0.7220379876605789	159995.40505709036
0.722158327325189	159787.79881240334
0.7222786870464099	159580.15796667564
0.7223990668275843	159372.48251414025
0.7225194666720555	159097.40296069728
0.7226398865831676	158774.53111769276
0.7227603265642646	158451.60546271518
0.722880786618692	158128.62598679442
0.7230012667497951	157805.5926809612
0.7231217669609201	157482.50553624367
0.7232422872554135	157159.36454366898
0.7233628276366229	156836.1696942616
0.7234833881078956	156997.39545162997
0.7236039686725803	157342.58434046083
0.7237245693340255	157687.83076077263
0.7238451900955812	158033.1347221551
0.7239658309605971	158378.49623419743
0.7240864919324239	158723.9153064922
0.7242071730144127	159069.3919486324
0.724327874209915	159414.92617021222
0.7244485955222832	158397.96351370632
0.7245693369548704	157155.54449381746
0.7246900985110294	155912.9184040938
0.7248108801941148	154670.08521001853
0.7249316820074803	153427.04487708176
0.7250525039544815	152183.79737075412
0.7251733460384739	150940.34265650858
0.7252942082628137	149699.78400381567
0.7254150906308574	150257.17122212343
0.7255359931459625	150814.65133830096
0.7256569158114868	151372.22436783137
0.7257778586307888	151929.8903262003
0.7258988216072273	152487.64922889546
0.7260198047441617	153045.50109140712
0.7261408080449525	153603.44592923013
0.72626183151296	154088.85500466867
0.7263828751515454	154091.68524551071
0.7265039389640706	154094.51595805958
0.726625022953898	154097.34714239385
0.7267461271243904	154100.17879859218
0.7268672514789111	154103.0109267332
0.7269883960208241	154105.8435268956
0.7271095607534942	154108.676599158
0.7272307456802866	154101.22238450046
0.7273519508045666	154065.97720695997
0.7274731761297006	154030.72615522327
0.7275944216590555	153995.46922831127
0.7277156873959987	153960.20642524477
0.7278369733438982	153924.9377450444
0.727958279506122	153889.66318673073
0.7280796058860397	153854.38274932397
0.7282009524870207	153543.46730842817
0.7283223193124353	152824.8138807361
0.7284437063656539	152106.04067747423
0.7285651136500483	151387.14767867728
0.7286865411689898	150668.13486438204
0.7288079889258514	149949.002214616
0.7289294569240056	149229.74970940998
0.7290509451668262	148510.3773287856
0.7291724536576875	147951.44835353617
0.7292939823999636	147525.47020242296
0.7294155313970303	147099.4210549504
0.7295371006522632	146673.3008992867
0.7296586901690385	146247.10972359736
0.7297802999507332	145820.84751604561
0.7299019300007252	145394.5142647915
0.7300235803223919	144968.10995799667
0.7301452509191123	144961.15942120316
0.7302669417942654	145147.84757414326
0.7303886529512311	145334.56684177558
0.7305103843933897	145521.3172292859
0.7306321361241218	145708.09874186062
0.7307539081468093	145894.91138468782
0.7308757004648336	146081.75516295506
0.7309975130815778	146268.63008185223
0.7311193460004248	146677.0657452859
0.7312411992247582	147135.72095442485
0.7313630727579622	147594.4526060986
0.7314849666034219	148053.26071304808
0.7316068807645224	148512.1452880151
0.7317288152446498	148971.10634374482
0.7318507700471907	149430.14389298408
0.7319727451755319	149889.25794848136
0.732094740633061	149456.11486190994
0.7322167564231665	148982.72644079954
0.7323387925492371	148509.25912161893
0.7324608490146619	148035.7128912186
0.732582925822831	147562.0877364464
0.7327050229771347	147088.38364414897
0.7328271404809642	146614.60060116902
0.7329492783377112	146128.03578549332
0.7330714365507675	145516.50782119556
0.7331936151235259	144904.87793557055
0.7333158140593796	144293.14611163197
0.7334380333617229	143681.31233238848
0.7335602730339499	143069.37658084815
0.7336825330794556	142457.33884001576
0.7338048135016354	141845.19909289444
0.7339271143038857	141427.7924507648
0.734049435489603	141663.14751988367
0.7341717770621846	141898.5418148474
0.7342941390250283	142133.97534219356
0.7344165213815324	142369.4481084608
0.734538924135096	142604.9601201895
0.7346613472891185	142840.5113839198
0.734783790847	143076.10190619412
0.7349062548121412	142969.33343699656
0.7350287391879431	142257.3442707889
0.7351512439778078	141545.2364397187
0.7352737691851374	140833.00992401084
0.735396314813335	140120.6647038831
0.7355188808658037	139408.20075955318
0.7356414673459482	138695.61807123106
0.7357640742571725	137982.91661912808
0.7358867016028818	137461.7217597013
0.7360093493864824	137129.68737435422
0.7361320176113801	136797.59764994337
0.736254706280982	136465.45257724513
0.7363774153986956	136133.25214703436
0.7365001449679286	135800.9963500859
0.7366228949920899	135468.68517717096
0.7367456654745885	135136.3186190606
0.7368684564188344	134800.67629635872
0.7369912678282374	134463.15794792047
0.7371140997062088	134125.583346424
0.7372369520561599	133787.95248249365
0.7373598248815024	133450.2653467534
0.7374827181856494	133112.5219298233
0.7376056319720137	132774.7222223237
0.7377285662440091	132436.86621487277
0.7378515210050496	132013.69119953245
0.7379744962585505	131564.79270284448
0.738097492007927	131115.81938974056
0.7382205082565949	130666.77124775137
0.738343545007971	130217.64826440529
0.7384666022654723	129768.45042722818
0.7385896800325165	129319.17772374557
0.7387127783125219	128869.83014147847
0.7388358971089073	128499.26477296525
0.7389590364250921	128136.54720691899
0.7390821962644963	127773.76918794477
0.7392053766305403	127410.93070596793
0.7393285775266454	127048.0317509105
0.7394517989562333	126685.07231269353
0.7395750409227259	126322.05238123746
0.7396983034295463	125949.42627675453
0.739821586480118	125364.38754136453
0.7399448900778645	124779.25129951979
0.7400682142262109	124194.0175349663
0.740191558928582	123608.68623145268
0.7403149241884034	123023.25737272226
0.7404383100091014	122437.73094251525
0.7405617163941028	121852.10692457024
0.7406851433468352	121220.22342269155
0.7408085908707264	120377.05510772746
0.7409320589692048	119533.74626471128
0.7410555476456997	118690.29687022058
0.7411790569036406	117846.70690083143
0.7413025867464579	117002.9763331138
0.7414261371775823	116159.10514363465
0.7415497082004452	115315.0933089579
0.7416732998184786	114484.6803918974
0.741796912035115	113683.60319032441
0.7419205448537874	112882.39247588467
0.7420441982779297	112081.04822632589
0.742167872310976	111279.57041939143
0.7422915669563612	110477.95903282252
0.7424152822175206	109676.21404435605
0.7425390180978901	108874.33543172534
0.7426627746009065	108223.90183154539
0.7427865517300065	107758.14506523228
0.7429103494886282	107292.31067279098
0.7430341678802096	106826.39864128461
0.7431580069081896	106360.40895777303
0.7432818665760077	105894.34160931353
0.7434057468871037	105428.19658296302
0.7435296478449182	104961.97386577506
0.7436535694528923	104372.6055177851
0.7437775117144678	103698.89517082021
0.7439014746330868	103025.07253879853
0.7440254582121922	102351.13760300424
0.7441494624552276	101677.0903447204
0.7442734873656368	101002.930745227
0.7443975329468645	100328.6587857998
0.7445215992023557	99654.27444771277
0.7446456861355559	98898.75873318978
0.7447697937499119	98113.27185871123
0.7448939220488703	97327.65406975377
0.7450180710358784	96541.90534449885
0.7451422407143843	95756.02566112297
0.7452664310878367	94970.01499779912
0.7453906421596846	94183.87333269889
0.7455148739333779	93397.60064398755
0.7456391264123667	92571.33874539069
0.7457633996001021	91738.56603638531
0.7458876935000356	90905.65453192694
0.7460120081156189	90072.60420888607
0.7461363434503048	89239.41504412431
0.7462606995075466	88406.08701450101
0.7463850762907978	87572.62009687402
0.7465094738035127	86739.07910800766
0.7466338920491467	85922.36095621374
0.746758331031155	85105.50668472706
0.7468827907529935	84288.51627086276
0.7470072712181189	83471.38969192946
0.7471317724299886	82654.12692523286
0.7472562943920602	81836.72794807571
0.7473808371077922	81019.19273775497
0.7475054005806435	80198.11546712488
0.7476299848140736	79355.92293059648
0.7477545898115426	78513.59002864515
0.7478792155765113	77671.11673787661
0.7480038621124406	76828.50303489363
0.7481285294227926	75985.74889629366
0.7482532175110298	75142.8542986697
0.7483779263806148	74299.819218614
0.7485026560350116	73453.72316833647
0.7486274064776842	72599.581974595
0.748752177712097	71745.29842398947
0.7488769697417158	70890.87249279035
0.749001782570006	70036.30415727041
0.7491266162004343	69181.59339369478
0.7492514706364677	68326.74017832485
0.7493763458815739	67471.74448741815
0.7495012419392209	66606.79139507156
0.7496261588128773	65727.58405238629
0.7497510965060128	64848.23017514328
0.7498760550220971	63968.72973892107
0.7500010343646007	63089.08271929268
0.7501260345369949	62209.28909182725
0.750251055542751	61329.34883209157
0.7503760973853414	60449.2619156454
0.7505011600682389	59570.9968866483
0.750626243594917	58694.2291899136
0.7507513479688495	57817.315365230774
0.7508764731935109	56940.25538824353
0.7510016192723765	56063.049234593236
0.7511267862089218	55185.69687991815
0.7512519740066232	54308.1982998503
0.7513771826689577	53430.55347001861
0.7515024121994025	52577.033513460025
0.7516276626014359	51734.68787646111
0.751752933878536	50892.20184852418
0.7518782260341824	50049.57540624897
0.7520035390718548	49206.808526233006
0.7521288729950334	48363.90118507081
0.7522542278071992	47520.853359351684
0.7523796035118337	46677.665025661205
0.7525050001124189	45849.296721411505
0.7526304176124378	45024.04394317261
0.7527558560153731	44198.653622805075
0.752881315324709	43373.12573738334
0.7530067955439299	42547.46026398041
0.7531322966765205	41721.657179666334
0.7532578187259665	40895.716461504635
0.7533833616957542	40069.638086556595
0.75350892558937	39280.99026924864
0.7536345104103016	38493.97757652902
0.7537601161620366	37706.833715027686
0.7538857428480638	36919.558662882
0.7540113904718717	36132.152398228645
0.7541370590369503	35344.614899198015
0.7542627485467898	34556.946143917055
0.7543884590048808	33775.749376654276
0.7545141904147151	33060.27092814546
0.7546399427797842	32344.673233229707
0.7547657161035808	31628.956272031362
0.754891510389598	30913.120024672855
0.7550173256413296	30197.164471272834
0.7551431618622698	29481.089591947417
0.7552690190559135	28764.895366808934
0.7553948972257561	28061.29984632576
0.7555207963752938	27400.27683399548
0.755646716508023	26739.143651163515
0.755772657627441	26077.90027946752
0.7558986197370455	25416.546700542815
0.756024602840335	24755.082896021788
0.7561506069408084	24093.508847533347
0.7562766320419653	23431.824536702894
0.7564026781473054	22790.72635411383
0.75652874526033	22185.941479958154
0.7566548333845401	21581.055808323137
0.7567809425234375	20976.069322409727
0.7569070726805247	20370.98200541568
0.7570332238593047	19765.793840535545
0.7571593960632813	19160.50481096069
0.7572855892959586	18555.11489988087
0.7574118035608413	18003.564530404805
0.7575380388614347	17504.69392861095
0.7576642952012449	17005.740181716603
0.7577905725837782	16506.703275865162
0.7579168710125422	16007.583197195194
0.7580431904910444	15508.379931845258
0.7581695310227928	15009.093465951728
0.7582958926112967	14509.723785646587
0.7584222752600652	14058.790152012984
0.7585486789726085	13635.65383453512
0.7586751037524372	13212.446994337517
0.7588015496030628	12789.169619665721
0.7589280165279966	12365.82169876565
0.7590545045307512	11942.403219878765
0.7591810136148396	11518.914171245406
0.7593075437837755	11095.354541103316
0.7594340950410726	10731.613148352977
0.7595606673902461	10385.18707205417
0.7596872608348112	10038.703258075631
0.7598138753782836	9692.161696795145
0.75994051102418	9345.562378587454
0.7600671677760173	8998.905293827
0.7601938456373134	8652.190432885487
0.7603205446115863	8305.417786134012
0.7604472647023548	8017.314064646333
0.7605740059131385	7734.999754894486
0.7607007682474575	7452.638392757405
0.7608275517088319	7170.229970393928
0.7609543563007835	6887.774479959431
0.7610811820268336	6605.271913610031
0.7612080288905045	6322.722263500116
0.7613348968953197	6042.299529237869
0.7614617860448022	5806.435890559018
0.7615886963424764	5570.532941273397
0.7617156277918667	5334.590674829791
0.7618425803964988	5098.609084674917
0.7619695541598982	4862.588164255079
0.7620965490855914	4626.5279070153465
0.7622235651771058	4390.428306399133
0.7623506024379685	4164.586216316943
0.7624776608717082	3983.8387493069904
0.7626047404818536	3803.061157719195
0.7627318412719337	3622.253436533111
0.762858963245479	3441.4155807267166
0.7629861064060198	3260.5475852776713
0.7631132707570876	3079.64944516253
0.7632404563022137	2898.7211553575316
0.7633676630449308	2729.0280332666457
0.7634948909887717	2583.2867601341927
0.7636221401372697	2437.5211967897408
0.7637494104939593	2291.731339184594
0.7638767020623748	2145.9171832700567
0.7640040148460518	2000.0787249960345
0.7641313488485262	1854.2159603123055
0.7642587040733344	1708.32888516763
0.7643860805240132	1575.5985929390315
0.7645134782041005	1458.5751795338317
0.7646408971171346	1341.532262226349
0.764768337266654	1224.4698377660247
0.7648957986561985	1107.3879029015857
0.7650232812893079	990.2864543813516
