#wavelength	surface flux
0.676892	155162.50353047758
0.678297	158701.44761772227
0.679702	162131.2019446324
0.681109	165604.88182884798
0.682517	169353.90537269856
0.683926	173096.36522030426
0.685337	176763.74281188904
0.686749	180485.4280160964
0.688164	184212.57591804228
0.689581	187816.33159340004
0.691	190417.85113593767
0.692422	191966.9795084031
0.693847	197241.6920921311
0.695274	203116.96376533687
0.696705	207738.56169512906
0.698139	211660.39502277234
0.699576	215788.5418609402
0.701017	219760.88534211635
0.702461	223206.93959724085
0.70391	228436.51767656225
0.705362	233689.66450722064
0.706819	237852.2711760775
0.70828	242177.01200198047
0.709745	246494.3901010183
0.711216	251732.20230648905
0.71269	256366.20020046746
0.71417	260655.36300670682
0.715655	263044.9236525563
0.717145	263807.3323779966
0.71864	271026.727192255
0.72014	276368.65968042373
0.721647	280349.7034211482
0.723158	284211.27971096453
0.724676	287496.2800639141
0.726199	291183.7315938841
0.727728	296662.6964210296
0.729264	298358.42744882713
0.730805	303391.9515324889
0.732353	311000.36825401796
0.733907	315096.9711312593
0.735468	319502.8125249898
0.737035	323162.55850162794
0.738609	328517.7822203844
0.74019	332311.09108413383
0.741777	332758.12605674885
0.743372	334323.66025606234
0.744973	335729.0993462665
0.746582	334276.90296295175
0.748197	331120.011005289
0.74982	325334.2218243355
0.751451	315742.5340835107
0.753088	301032.43362910725
0.754734	280496.18067568896
0.756386	252427.54532910662
0.758047	214324.68468649432
0.759715	167185.74391350787
0.76139	111910.24649963074
0.763074	56197.627596678736
0.764765	17229.15209051076
0.766464	2634.0771494228616
0.768172	3640.000727244559
0.769887	4430.489524802745
0.77161	31776.040133115624
0.773341	95310.65368539587
0.775081	171574.91480856139
0.776829	242979.21871914514
0.778585	284741.7558552881
0.780349	312229.4427512133
0.782121	393784.181514662
0.783902	447267.4153201558
0.785691	483712.00666343555
0.787489	514813.47373803484
0.789295	540973.0797990722
0.79111	561023.5696547588
0.792933	496689.0282900395
0.794764	293380.3508099104
0.796604	551706.9735101773
0.798453	647843.591913937
0.80031	669024.3998858123
0.802176	687514.8269184309
0.804051	704915.3556168078
0.805934	721992.8647642016
0.807826	736684.402194136
0.809727	741813.5522821854
0.811636	748162.0369775591
0.813554	761720.2736285107
0.81548	796987.098765396
0.817416	817568.4370951575
0.81936	836529.4993614252
0.821313	851326.8453459175
0.823274	858288.3593551823
0.825244	888710.186161345
0.827223	906348.7941832277
0.829211	915767.4812046967
0.831208	929388.6541495859
0.833213	955039.3738388821
0.835227	971029.2658591869
0.837249	978437.8001648005
0.83928	999638.0640228837
0.841321	1035271.1074776261
0.843369	1063479.042951271
0.845427	1085273.588659647
0.847493	1109233.1938813813
0.849567	1129195.751337732
0.851651	1143100.490915783
0.853742	1172031.7882882238
0.855843	1201897.0242763017
0.857952	1225569.4460282386
0.86007	1247036.1539151142
0.862196	1247946.7843900602
0.864331	1274423.852322282
0.866474	1303821.5226280396
0.868626	1329002.8165997104
0.870786	1357115.6302917462
0.872955	1383269.3056889921
0.875132	1399977.784116747
0.877317	1424371.5632354359
0.879511	1432290.934116024
0.881713	1458660.2427111587
0.883923	1486091.5165687718
0.886142	1502588.3644687883
0.888369	1520183.345611496
0.890604	1530230.3423561298
0.892847	1495257.7400137668
0.895099	1519201.9859285485
0.897358	1580207.6789628784
0.899626	1648384.720630201
0.901901	1692711.7173317738
0.904185	1744497.70973304
0.906476	1766678.5000035306
0.908776	1795655.153982091
0.911083	1845214.7178844004
0.913398	1849461.210799527
0.915721	1852927.7279305195
0.918051	1841507.3173882437
0.92039	1945291.0477925695
0.922736	1965586.3527772275
0.925089	1864510.5482242804
0.927451	1613499.7375738642
0.929819	1321159.1764010584
0.932195	1543548.9911465636
0.934579	1526497.686999111
0.93697	1652157.7696988797
0.939369	1862959.1546855418
0.941774	1896675.4478512052
0.944187	1667904.681043787
0.946607	1596420.1243651218
0.949035	1838692.4761413864
0.951469	1800197.000866452
0.953911	1870257.6734267205
0.956359	2158732.0064692795
0.958814	1867931.533473945
0.961277	1750327.395796091
0.963746	1816832.19148975
0.966222	1879097.5387531319
0.968705	1878727.8743589197
0.971194	2285190.0603558044
0.97369	2473548.6612453084
0.976193	2409813.340361242
0.978702	2549772.745601825
0.981217	2597433.9945684243
0.983739	2674974.7973003327
0.986268	2728079.4674884295
0.988802	2841618.741341992
0.991343	2950066.180566329
0.99389	2996535.154609893
0.996444	3090168.185674159
0.999003	3148535.9181378447
1.00157	3183688.777901958
1.00414	3239800.5921568763
1.00672	3324126.381475779
1.0093	3390631.911749469
1.01189	3462200.9230835587
1.01448	3551476.6631120103
1.01708	3611209.3048562007
1.01969	3667187.566828711
1.0223	3705917.765312492
1.02492	3682202.8639589464
1.02754	3760722.719808747
1.03017	3698221.059854743
1.0328	3920214.679265484
1.03544	4002025.214316003
1.03808	4062225.9855560404
1.04073	4123936.887360984
1.04339	4182783.7705610897
1.04604	4237621.822802403
1.04871	4266162.402881167
1.05138	4311811.496108132
1.05405	4394936.014624795
1.05673	4469935.037956069
1.05941	4529946.030028909
1.0621	4584197.9893159615
1.06479	4642456.1880768025
1.06749	4698203.044068478
1.07019	4726268.379286592
1.07289	4796646.577287845
1.0756	4873267.909878362
1.07832	4918617.792914678
1.08104	4988470.152240576
1.08376	5055040.690427284
1.08649	5088455.502060526
1.08922	5069722.511655613
1.09195	5034210.487502009
1.09469	5015907.081083602
1.09743	5060153.585026411
1.10018	4276847.374770639
1.10293	3551122.6751765185
1.10568	3071062.8680545916
1.10844	4068084.6136802444
1.1112	3710810.6130212857
1.11396	3126390.4757972723
1.11673	3094058.242149218
1.1195	3148073.014196983
1.12228	2617637.493628027
1.12505	3503457.584711172
1.12783	3543126.66646201
1.13062	3618748.76435722
1.13341	2231501.9264775207
1.1362	3224607.558372101
1.13899	4337432.31781563
1.14178	4062236.0222444264
1.14458	4528380.520821641
1.14738	4967251.106501284
1.15019	3655640.8681598483
1.153	2031736.8337066416
1.1558	2504312.8799373163
1.15862	2658655.555138487
1.16143	2823666.0002514347
1.16425	3719869.6200095587
1.16707	4661375.546469033
1.16989	4145414.267693226
1.17271	4498248.267589258
1.17554	5370519.997828356
1.17837	5952660.453429949
1.1812	6153932.813540178
1.18403	6678733.535798379
1.18686	6666465.880793455
1.1897	6687437.5743818
1.19253	7165415.847899943
1.19537	7400022.53786511
1.19822	7531590.178789466
1.20106	7705214.048770183
1.2039	7615973.311140608
1.20675	7815569.495623818
1.2096	7927435.639202926
1.21245	7955887.59045707
1.2153	8175574.401374687
1.21815	8309770.028462321
1.221	8412671.735413587
1.22385	8540616.098949244
1.22671	8678386.471074343
1.22957	8765532.46995826
1.23242	8809426.312901374
1.23528	8920086.66410303
1.23814	9043946.75125557
1.241	9133588.03114942
1.24387	9222145.500126181
1.24673	9296816.367255775
1.24959	9350509.929588342
1.25245	9365266.483127438
1.25532	9541573.72813509
1.25818	9653674.857387897
1.26105	9660347.290315293
1.26392	9703965.844383033
1.26678	9784344.324931117
1.26965	9818091.670985408
1.27252	9830941.860762049
1.27538	9993559.063679395
1.27825	10038701.109885544
1.28112	9976101.68901069
1.28399	10126560.82476506
1.28686	10068110.410999404
1.28973	9867448.092135204
1.2926	9786985.177102605
1.29546	10011655.69883278
1.29833	10164995.886171693
1.3012	9844442.66294754
1.30407	9830744.135347167
1.30694	9787663.30932223
1.30981	10047037.280659616
1.31267	9830664.464651864
1.31554	10281223.547685798
1.31841	10686832.163254982
1.32128	10106826.982352804
1.32414	9237100.141153794
1.32701	8992852.87266705
1.32987	7704643.3955660695
1.33274	4968816.900299993
1.3356	3438345.2254166715
1.33847	1370767.0362481077
1.34133	518977.21799669537
1.34419	1184178.0697787735
1.34705	1598546.4755875987
1.34991	886455.4040214852
1.35277	399711.8681401582
1.35563	536694.5512593212
1.35849	610044.0524042527
1.36135	293229.7608269362
1.3642	637192.7728203175
1.36706	667793.8703095659
1.36991	547905.4484437297
1.37277	1479290.4430544511
1.37562	2717136.7037502946
1.37847	3058454.343173489
1.38132	1224465.037398878
1.38417	175198.32795809343
1.38701	389390.986588223
1.38986	308293.74353420467
1.39271	370842.9404567056
1.39555	579914.074428596
1.39839	434293.9026138583
1.40123	849098.6034629281
1.40407	1537278.7735600343
1.40691	2093529.449479953
1.40974	1114299.4058432765
1.41258	341280.72405554133
1.41541	836479.2419212394
1.41824	1084120.3051498914
1.42107	632581.8759693359
1.4239	427482.9328091233
1.42673	937507.9315406278
1.42955	1498207.8037278121
1.43237	973397.4071582046
1.43519	1632933.5828656508
1.43801	1164996.3216885214
1.44083	1456259.7850183928
1.44365	2281063.176989274
1.44646	2498106.280086869
1.44927	4309914.416708654
1.45208	5292246.765925192
1.45489	4264730.8240720555
1.45769	5131595.091884687
1.4605	5714596.378047329
1.4633	5896819.174410323
1.4661	6245695.281629484
1.4689	4733544.476839519
1.47169	4977263.678472491
1.47449	4832410.238272599
1.47728	4855262.61864683
1.48007	4927023.588956395
1.48286	6607320.525943721
1.48564	7968425.789732332
1.48842	8012619.432992892
1.4912	8200124.2962604435
1.49398	7877993.480205864
1.49676	7032985.1134899855
1.49953	8361429.327094514
1.5023	9691690.825915497
1.50507	9549477.93569404
1.50784	9041061.450426048
1.51061	9432004.193049384
1.51337	9945189.245924221
1.51613	10719847.593272742
1.51888	11598363.10496408
1.52164	12815507.042911012
1.52439	13510178.965365753
1.52714	12991792.87942431
1.52989	12800074.9345187
1.53263	13449241.656868886
1.53538	14183168.458690016
1.53812	14256066.855440777
1.54086	14119161.163792394
1.54359	14176860.89792491
1.54632	14745826.098704487
1.54905	14859725.90281708
1.55178	15403131.28574284
1.5545	15268062.696957566
1.55723	14757853.501563022
1.55995	14806665.012087861
1.56266	15238758.618848985
1.56538	16067262.261839882
1.56809	16494039.180931818
1.5708	16428866.207646152
1.57351	15927391.20725521
1.57621	15403912.771511829
1.57891	14302951.054002311
1.58161	15173357.682908213
1.5843	16959595.295718152
1.587	17305977.90375349
1.58969	17236430.074811503
1.59238	17135738.186423436
1.59506	16857216.12699212
1.59774	16499255.8358908
1.60042	16225796.138019856
1.6031	16406545.259515963
1.60577	16742769.801421525
1.60844	16808535.706311807
1.61111	16509536.478491941
1.61378	16154099.41865775
1.61644	16099453.812098406
1.6191	15697602.221994687
1.62176	15182359.59648775
1.62441	15081771.550232306
1.62707	14747495.341899848
1.62971	13841282.988096245
1.63236	13452659.945869157
1.635	15006777.81481887
1.63764	17141379.15981654
1.64028	17819691.273247045
1.64292	17690946.93809267
1.64555	16821530.192810804
1.64818	15132617.367318422
1.65081	15022188.065291265
1.65343	16455812.828371353
1.65605	16992443.171654284
1.65867	17129401.491527736
1.66128	16739416.490580406
1.6639	14771086.45695269
1.66651	10909585.91158693
1.66911	10589823.878639793
1.67172	14015436.501267204
1.67432	16265392.467622088
1.67692	16129549.450769626
1.67951	15199207.40489337
1.68211	15369926.490439503
1.6847	15555081.78623087
1.68728	14876610.813531023
1.68987	14485223.195055235
1.69245	13665952.621435206
1.69503	11689829.603500798
1.6976	10593250.183157565
1.70018	11832471.494747568
1.70275	11840770.832847219
1.70531	12052498.65503462
1.70788	13258054.290160356
1.71044	13201349.623044705
1.713	13812783.957310967
1.71556	14507797.716732726
1.71811	15076906.399088258
1.72066	15810551.470297398
1.72321	15573611.95035129
1.72575	15197303.857715214
1.7283	14860968.188140059
1.73084	14218129.619240962
1.73337	13445658.242422935
1.73591	12877319.114280747
1.73844	12734842.118783653
1.74097	12850179.645205144
1.74349	12173092.607602252
1.74602	11200094.699678866
1.74854	10748731.324314121
1.75105	9832503.887191877
1.75357	8484064.89438491
1.75608	9672789.75511962
1.75859	12340453.19501384
1.7611	13303499.448537417
1.7636	12754006.982002351
1.7661	10478706.96352086
1.7686	8572899.09979135
1.7711	6789750.536402002
1.77359	4960968.774070332
1.77608	3134019.7176976474
1.77857	2296750.0021117656
1.78105	2777054.38275724
1.78354	3295522.230549681
1.78602	2594340.0898850164
1.78849	1962026.4196760522
1.79097	2547912.6409723097
1.79344	3504536.432992624
1.79591	4461065.127865128
1.79837	5569143.357194549
1.80084	3588177.785423482
1.8033	1684205.290301927
1.80576	810428.8038341398
1.80821	536787.4480503636
1.81067	1571786.2036410067
1.81312	2447010.2217559284
1.81557	1341661.665272963
1.81801	713944.8926399457
1.82046	1707084.1238350943
1.8229	2608979.0964526376
1.82533	1778189.518445483
1.82777	614866.5709306702
1.8302	399345.91950499057
1.83263	777219.4079385302
1.83506	1311180.4868075596
1.83749	2069438.4090707474
1.83991	2456033.723528405
1.84233	1983174.4347702046
1.84475	1843207.3815684384
1.84716	2115403.488650346
1.84957	2643610.351454708
1.85198	2574555.05044088
1.85439	1341834.470922116
1.8568	957824.8748196103
1.8592	1252889.87957831
1.8616	959780.8714878727
1.864	497268.2978831474
1.86639	439348.50689055515
1.86878	699957.9731202832
1.87118	1259775.6808006812
1.87356	1965116.2034055379
1.87595	2397189.172996671
1.87833	3597837.8161618677
1.88071	5618169.4859022945
1.88309	5495182.0320800925
1.88547	4237563.8928320985
1.88784	3819876.0628402904
1.89021	3485849.574424236
1.89258	5427881.522576853
1.89494	6891020.11664059
1.89731	4461183.874967713
1.89967	1725653.3541215889
1.90203	578313.9625284557
1.90439	533579.2304864875
1.90674	914628.7288553531
1.90909	1003602.9707229164
1.91144	643476.1430282545
1.91379	295552.21171387774
1.91613	268111.409788572
1.91848	493022.16646917246
1.92082	761525.9104533509
1.92315	747778.7170894773
1.92549	542250.9744247018
1.92782	625385.1300348202
1.93015	939368.9926767724
1.93248	1214390.8450065944
1.93481	1266125.0352112362
1.93713	1101442.6154391156
1.93945	1139814.2871331172
1.94177	1515842.3298014551
1.94409	1784612.4781989474
1.94641	1809414.96825809
1.94872	2180706.134626242
1.95103	2667339.829802148
1.95334	1782255.1423182203
1.95564	1239069.5166313834
1.95795	1472003.5753401555
1.96025	1545304.400125474
1.96255	1578224.7602638332
1.96484	1900139.2072990919
1.96714	2746237.825310734
1.96943	3884294.4144612835
1.97172	4542632.287871381
1.97401	4182278.3436591234
1.97629	4504769.252001939
1.97858	5618393.081931071
1.98086	6259567.468541353
1.98314	6969653.7441658955
1.98541	7423356.467943504
1.98769	6872026.580342457
1.98996	5474384.505985
1.99223	5246426.39517168
1.9945	6202239.462704552
1.99677	5903921.21258606
1.99903	5793211.418305496
2.00129	6997420.712239035
2.00355	8716235.923836067
2.00581	9702433.605991885
2.00806	10049885.766344372
2.01031	11697942.723061604
2.01256	12437245.11240047
2.01481	11374170.324214393
2.01706	10157112.420469765
2.0193	10274996.974362263
2.02154	11956813.300660372
2.02378	13721358.406321552
2.02602	14067067.355932007
2.02825	14393311.451763745
2.03049	14978173.142973503
2.03272	15789320.355830414
2.03494	16623906.31956475
2.03717	17222103.19481117
2.03939	17483767.080897495
2.04162	18245314.89875701
2.04384	19022516.507483464
2.04605	19862535.45520484
2.04827	20566965.461599458
2.05048	20500182.33763071
2.05269	19508132.12537828
2.0549	19366258.981571116
2.05711	19864207.496863022
2.05931	20564206.174676776
2.06151	21100699.01491409
2.06371	21552945.857118078
2.06591	21849314.079329494
2.06811	22098531.873969268
2.0703	22258384.336253874
2.07249	22256543.01794508
2.07468	21989650.792649966
2.07686	21930497.185580786
2.07905	22112136.19767019
2.08123	22323479.797289897
2.08341	22461728.077222608
2.08559	22547190.39417371
2.08776	22654027.543520726
2.08994	22604929.17333512
2.09211	22429239.13114225
2.09428	22243708.966717947
2.09645	22324620.931219745
2.09861	22338400.593771167
2.10077	22254728.548828237
2.10293	22073805.91556151
2.10509	21814219.703144994
2.10725	21561881.46890866
2.1094	21817536.288728945
2.11155	22093477.373626083
2.1137	22150275.44037151
2.11585	21767528.869012672
2.11799	21474871.847955048
2.12013	21390265.833522268
2.12227	21468479.997326005
2.12441	21646298.680443503
2.12655	21741016.230080914
2.12868	21736609.80658912
2.13081	21755859.072964847
2.13294	21785357.55910165
2.13507	21541869.329827107
2.13719	21042172.987065084
2.13931	20609367.97207911
2.14143	20240068.726109944
2.14355	19692258.704289824
2.14567	19422429.302945774
2.14778	19204534.700388156
2.14989	18924659.67019999
2.152	18384479.30332607
2.1541	18537331.468309376
2.15621	18766052.16019094
2.15831	18810408.63442245
2.16041	18159795.730961375
2.16251	17865819.923604343
2.1646	17691429.24895074
2.1667	17610672.885245252
2.16879	17783038.188796986
2.17087	17929794.12574231
2.17296	17986368.4466955
2.17504	17918685.493702687
2.17713	17757484.498630907
2.1792	17488762.68893508
2.18128	17114877.2573066
2.18336	16622647.267626084
2.18543	16037239.16248717
2.1875	15408587.345135499
2.18957	14640366.51970647
2.19163	13302749.056632048
2.1937	11246194.284220008
2.19576	9072453.590676548
2.19782	7044327.846527365
2.19987	5991624.555424888
2.20193	5419778.5594036775
2.20398	5249641.393182879
2.20603	5352764.76892142
2.20808	5765132.602531396
2.21012	6318345.098616844
2.21217	6963134.413694318
2.21421	7262589.349934514
2.21625	7204078.058808672
2.21828	6837086.598551144
2.22032	6655323.270136727
2.22235	6505680.013768341
2.22438	6250388.708812489
2.22641	5552623.871617685
2.22843	4783913.988473963
2.23046	4121042.100412238
2.23248	3720363.8927988573
2.2345	3603069.1535235746
2.23651	3515287.4071548064
2.23853	3419930.0458291364
2.24054	3057637.168470142
2.24255	2655174.2949180887
2.24456	2250319.3846995095
2.24657	2327894.3696887647
2.24857	2628290.750822792
2.25057	3045017.2995439405
2.25257	3200670.7291286695
2.25457	3345545.8293386335
2.25656	3482250.143498801
2.25856	3611836.542241692
2.26055	3396324.8154161046
2.26254	3002348.0718900342
2.26453	2530818.3848931165
2.26651	2252695.7725681686
2.2685	2135991.3318847194
2.27048	2331698.8044617292
2.27246	2629979.887950825
2.27443	2911145.3060279633
2.27641	2953793.208594088
2.27838	2813175.0543331113
2.28036	2599006.0121697993
2.28233	2439934.4380525923
2.28429	2310032.907551274
2.28626	2188480.7764239567
2.28823	2030448.252437681
2.29019	1936252.682948083
2.29215	1890621.6805152162
2.29411	1942219.3999986227
2.29607	1991537.837306546
2.29802	2038837.1948562441
2.29998	2109529.6335113454
2.30193	2262494.8176649236
2.30388	2509898.1974823447
2.30583	2967013.6903769495
2.30778	3430836.6757239136
2.30972	3871822.0945748473
2.31167	3841294.0811975035
2.31361	3507213.1746310275
2.31555	2601038.005471753
2.31749	1875076.9290028377
2.31943	1304650.810126027
2.32137	1264356.0931485505
2.32331	1259938.6218264145
2.32524	1283965.5763485811
2.32718	1259862.6929423066
2.32911	1250607.166524307
2.33104	1263685.7263231708
2.33297	1261047.0686755953
2.3349	1251322.3526844701
2.33683	1230025.9130237463
2.33876	1205723.3463688905
2.34068	1177081.0429067458
2.34261	1104389.4170926774
2.34453	1035554.6926659993
2.34646	970326.2928735847
2.34838	1019067.2223127094
2.3503	1132159.9398160493
2.35223	1376066.869255398
2.35415	1612680.2051352982
2.35607	1842015.5822076662
2.35799	2006353.5662837485
2.35991	2176826.807436581
2.36183	2354704.6691992385
2.36375	2288444.370846938
2.36566	2090244.3568326144
2.36758	1588926.1122598343
2.3695	1177720.7567171743
2.37142	824280.0736297901
2.37334	859422.2982590114
2.37526	917095.3333821865
2.37718	1008928.943519553
2.3791	1100262.49125563
2.38101	1203824.8655317451
2.38293	1402431.0975244867
2.38485	1603924.7197380324
2.38677	1808366.5193348785
2.3887	1815054.420879095
2.39062	1784768.6225238615
2.39254	1731325.3136082483
2.39446	1729963.7668571714
2.39639	1762154.757782456
2.39831	1816804.4441667576
2.40024	1834162.6488727096
2.40216	1780226.2198446703
2.40409	1814327.594642236
2.40602	1905318.5078966366
2.40795	2242999.0837637912
2.40989	2541275.4018038893
2.41182	2787660.5485161273
2.41376	2917219.7337918566
2.4157	3052944.2484595785
2.41764	3333830.2772062584
2.41958	3518275.4224005328
2.42152	3624306.017416707
2.42347	3300563.083576222
