#wavelength	surface flux
0.676892	39780.28715629994
0.678297	40993.33919291737
0.679702	42204.73266400346
0.681109	43420.02793640797
0.682517	44648.30310287384
0.683926	45884.725650224034
0.685337	47114.89338713092
0.686749	48365.09865413779
0.688164	49608.29869412719
0.689581	50757.590908412494
0.691	51360.52578716117
0.692422	51043.318569844225
0.693847	52976.21338653775
0.695274	55450.60900993474
0.696705	57138.728344945244
0.698139	58266.907291813084
0.699576	59521.03402619201
0.701017	60609.88302336965
0.702461	61326.93980044889
0.70391	63319.44127399979
0.705362	65223.496302216554
0.706819	66338.64093382524
0.70828	67530.57157521088
0.709745	68647.15168330254
0.711216	70369.24336932239
0.71269	71623.80341327765
0.71417	72568.74408560884
0.715655	72233.53093640709
0.717145	70696.3095415808
0.71864	73387.25292522775
0.72014	74869.00990101231
0.721647	75514.46267477488
0.723158	75486.58557421736
0.724676	74895.95990985751
0.726199	74819.08396130394
0.727728	75939.67923225809
0.729264	74681.87276161136
0.730805	75480.65993069613
0.732353	77768.44674811352
0.733907	77528.51399218125
0.735468	77603.93977660389
0.737035	76988.43288363697
0.738609	76833.55772669241
0.74019	75919.54919672692
0.741777	73118.88279147516
0.743372	70794.39570218291
0.744973	68393.03698057687
0.746582	64629.453809579856
0.748197	60234.09436107258
0.74982	55076.63420343441
0.751451	49016.529111720956
0.753088	42208.8583230586
0.754734	34939.76285702905
0.756386	27433.04232796923
0.758047	20081.60378980774
0.759715	13497.886246959115
0.76139	7946.100420825956
0.763074	3884.362245383946
0.764765	1399.3173971296983
0.766464	384.09047843152035
0.768172	490.37513631741376
0.769887	464.8259578849737
0.77161	2402.0307791904406
0.773341	6842.904400342251
0.775081	13740.876326452099
0.776829	22563.697691324673
0.778585	29226.805506125685
0.780349	35527.84154839424
0.782121	55513.77370803948
0.783902	72368.7819038985
0.785691	86752.87372117821
0.787489	100651.29647522832
0.789295	113374.24577054362
0.79111	123715.1967700629
0.792933	102458.52740135712
0.794764	54396.29547054553
0.796604	136164.02488658298
0.798453	171721.89011766965
0.80031	184596.5551321271
0.802176	195297.35970428
0.804051	205323.0557722273
0.805934	215323.75135044832
0.807826	223431.02388096167
0.809727	224666.81154573328
0.811636	225402.65932932004
0.813554	230838.76469580192
0.81548	254078.4478828763
0.817416	265948.68650449475
0.81936	276645.8116790722
0.821313	283029.8102975797
0.823274	282829.6331448692
0.825244	302072.9569301185
0.827223	310626.69583830785
0.829211	311989.8222160383
0.831208	315902.8160220396
0.833213	330941.4484718071
0.835227	337752.51345258934
0.837249	337340.64597342093
0.83928	348836.24033597915
0.841321	372760.3134632992
0.843369	391230.40901565255
0.845427	401792.10948747094
0.847493	414691.46720512246
0.849567	422329.8021316576
0.851651	420674.7746803626
0.853742	440026.6218020334
0.855843	460990.144466077
0.857952	473008.8595215587
0.86007	483373.73965698975
0.862196	489932.40003615373
0.864331	501249.0017889105
0.866474	514455.3200949643
0.868626	526304.0042220053
0.870786	541958.419001661
0.872955	554925.0131634143
0.875132	561225.178901282
0.877317	571326.5553037884
0.879511	572078.5376771472
0.881713	573369.7084687402
0.883923	575038.1933357099
0.886142	578648.6183990602
0.888369	578856.0046501684
0.890604	582363.305989784
0.892847	541446.0884486968
0.895099	538534.2272981706
0.897358	581391.6945734307
0.899626	643878.1261092337
0.901901	673005.7701775288
0.904185	708572.0046589203
0.906476	710986.252357154
0.908776	725221.244247662
0.911083	761322.0920076442
0.913398	747326.7213043588
0.915721	739229.984766452
0.918051	711597.1728290541
0.92039	798530.8598428129
0.922736	802878.2137055108
0.925089	701354.0660751441
0.927451	503723.66269061004
0.929819	327599.9467073757
0.932195	438469.9120696742
0.934579	387046.75193861895
0.93697	455343.0095606355
0.939369	607468.8243209762
0.941774	614482.5410866117
0.944187	439245.6109036917
0.946607	377532.0438387843
0.949035	536117.8626413812
0.951469	513391.615488894
0.953911	544876.9006824426
0.956359	761962.1704288075
0.958814	540769.804868163
0.961277	448270.85416129645
0.963746	480996.1654244199
0.966222	510667.36547843117
0.968705	513817.4855864617
0.971194	801993.4323180602
0.97369	919369.875270143
0.976193	847773.5431895206
0.978702	958156.8210994783
0.981217	978825.0196918901
0.983739	1037284.3829758215
0.986268	1061763.7655212302
0.988802	1154751.8616376293
0.991343	1243646.5760425602
0.99389	1265295.9414409176
0.996444	1334092.9591684444
0.999003	1375180.459920795
1.00157	1391573.2535804743
1.00414	1425524.9571882081
1.00672	1479393.0164445052
1.0093	1520783.1444975939
1.01189	1563776.2734021433
1.01448	1623509.118935976
1.01708	1657417.512618353
1.01969	1686071.335383903
1.0223	1704958.2936063968
1.02492	1678563.748710002
1.02754	1719296.8408362938
1.03017	1680656.0799616096
1.0328	1819538.5539950964
1.03544	1868066.223915819
1.03808	1901539.2239013007
1.04073	1935371.7261384625
1.04339	1965975.7677659893
1.04604	1993443.3871320807
1.04871	2000754.8643061125
1.05138	2021899.4481982628
1.05405	2070199.668893241
1.05673	2112606.7618206693
1.05941	2145479.4942156198
1.0621	2172622.4784800876
1.06479	2201701.6614969675
1.06749	2227557.772808571
1.07019	2224683.570833881
1.07289	2264548.3718604976
1.0756	2312944.6227551703
1.07832	2330080.2687035287
1.08104	2367141.47305539
1.08376	2408001.569308331
1.08649	2410601.180865999
1.08922	2357483.790923617
1.09195	2303691.781481676
1.09469	2252056.619570146
1.09743	2263973.516380449
1.10018	1586992.7780269366
1.10293	1041066.7655959736
1.10568	771229.4225831561
1.10844	1420429.9637073902
1.1112	1153760.777994174
1.11396	766321.6851753771
1.11673	780448.4872010048
1.1195	711465.9373329529
1.12228	428079.1248361941
1.12505	760070.8099753954
1.12783	751300.6641528904
1.13062	855277.2735825375
1.13341	382960.29062994185
1.1362	873136.3642425898
1.13899	1294117.0241688634
1.14178	1025601.9405336056
1.14458	1347181.865973918
1.14738	1632911.1479388615
1.15019	832488.3494223238
1.153	210057.60545934355
1.1558	303788.0910623048
1.15862	358709.9131998613
1.16143	423873.65144118515
1.16425	799373.7096151802
1.16707	1259923.555481656
1.16989	992868.0421684885
1.17271	1238469.660499315
1.17554	1797591.4925801142
1.17837	2227052.598572494
1.1812	2391258.635158466
1.18403	2819862.160859171
1.18686	2804280.3503120816
1.1897	2820709.360571575
1.19253	3242866.6359725404
1.19537	3451088.898014023
1.19822	3573078.0309914346
1.20106	3703401.6917894264
1.2039	3645020.994404696
1.20675	3798919.7858333094
1.2096	3862216.931938551
1.21245	3851124.7284589275
1.2153	4027792.231283892
1.21815	4129326.5498774014
1.221	4200955.2306242585
1.22385	4307270.824305604
1.22671	4418744.692544676
1.22957	4472881.020109708
1.23242	4471757.1605843995
1.23528	4549396.507382005
1.23814	4648602.112595817
1.241	4710071.697827754
1.24387	4768353.938423542
1.24673	4809053.393404336
1.24959	4843818.1158781545
1.25245	4876176.94214381
1.25532	4970742.153475974
1.25818	5038963.504769356
1.26105	5015361.505887163
1.26392	5033506.647982081
1.26678	5083967.028357215
1.26965	5079119.784284287
1.27252	5048782.141486881
1.27538	5184942.652039548
1.27825	5182843.654494053
1.28112	5052001.842803147
1.28399	5183083.791409882
1.28686	5063973.523960559
1.28973	4795020.577831042
1.2926	4649077.3418447375
1.29546	4849058.767186525
1.29833	4984410.313838847
1.3012	4569668.864249542
1.30407	4526676.968274033
1.30694	4419404.555203708
1.30981	4577187.362969804
1.31267	4222596.526000674
1.31554	4732239.473868868
1.31841	5295009.648220842
1.32128	4565508.0255611045
1.32414	3639134.6208973546
1.32701	3489167.974828033
1.32987	2506202.1235604757
1.33274	1177837.449364078
1.3356	699881.5468114587
1.33847	188245.9607381265
1.34133	43541.31743036937
1.34419	116416.9814368336
1.34705	160945.16473849045
1.34991	57373.07561045949
1.35277	17782.15596823132
1.35563	39472.989464108294
1.35849	38793.529975108875
1.36135	9726.674809332164
1.3642	28464.31069610897
1.36706	30790.803826333882
1.36991	21619.833262743174
1.37277	106710.98508019194
1.37562	277597.5821020975
1.37847	335615.4713976861
1.38132	105116.29842254061
1.38417	6493.784498176438
1.38701	15787.34163745628
1.38986	12124.829167624579
1.39271	15462.145980405345
1.39555	27800.53485369544
1.39839	30045.72683988526
1.40123	73747.07400064761
1.40407	134507.08521870113
1.40691	191766.48417931495
1.40974	82725.51130816023
1.41258	18002.786652703304
1.41541	63413.353750965085
1.41824	79668.09672919431
1.42107	33012.79260777176
1.4239	21605.055081538878
1.42673	59024.30791860954
1.42955	111046.90783321939
1.43237	92653.64882967721
1.43519	225810.7092094617
1.43801	131681.53932440162
1.44083	156227.02735550012
1.44365	281654.56713824754
1.44646	361599.62086481455
1.44927	870637.1172708418
1.45208	1196615.2849624525
1.45489	865963.8482297767
1.45769	1128160.4893878542
1.4605	1349269.2944293239
1.4633	1471383.1114605675
1.4661	1540158.9358713208
1.4689	918433.2592084669
1.47169	979545.9617477066
1.47449	840439.6715573671
1.47728	728748.1378064522
1.48007	809440.2706820044
1.48286	1513441.367581754
1.48564	2101682.8165862914
1.48842	2180999.364009247
1.4912	2216482.530901366
1.49398	1998000.1687041158
1.49676	1570371.6730897797
1.49953	1972475.8181202791
1.5023	2716014.2388566774
1.50507	2840097.962723006
1.50784	2608296.426006316
1.51061	2794866.344539205
1.51337	3217514.828831621
1.51613	3815780.149806249
1.51888	4313921.815216581
1.52164	5076824.9308941495
1.52439	5725841.475518595
1.52714	5517527.974302065
1.52989	5389435.052084265
1.53263	5757473.488863276
1.53538	6107702.760020738
1.53812	6442633.994111488
1.54086	6672029.69179405
1.54359	6750539.853745955
1.54632	7189328.209277007
1.54905	7090827.787682226
1.55178	7478961.003048821
1.5545	7585362.077994043
1.55723	7309602.597731283
1.55995	7475362.89492695
1.56266	7857033.545200594
1.56538	8506227.063416235
1.56809	8823206.546314724
1.5708	8729206.659591977
1.57351	8268308.621576528
1.57621	7856176.219707162
1.57891	6901684.37484056
1.58161	7550854.073904214
1.5843	9036864.376356876
1.587	9355596.34923795
1.58969	9235298.757534726
1.59238	8976256.191788321
1.59506	8551614.747080905
1.59774	8115456.422440987
1.60042	7785882.879995816
1.6031	7707050.704819042
1.60577	7827926.8500823425
1.60844	7825730.028908867
1.61111	7537338.081909962
1.61378	7018606.944606137
1.61644	6604062.999573501
1.6191	6081762.318087543
1.62176	5379115.174301234
1.62441	4765145.952464127
1.62707	4309365.5234422805
1.62971	3507405.3083871854
1.63236	3094739.377470455
1.635	4713028.883720016
1.63764	7098428.96025629
1.64028	7872263.307520113
1.64292	7586092.187829157
1.64555	6307181.397259145
1.64818	4320200.700903101
1.65081	4211413.265022779
1.65343	5729051.734208812
1.65605	6256458.231813192
1.65867	6490973.816697285
1.66128	6162487.570217055
1.6639	4836049.07030642
1.66651	2519967.168987597
1.66911	1761431.380453098
1.67172	3594835.662746823
1.67432	5130135.087619519
1.67692	4825089.194419959
1.67951	3863895.587454984
1.68211	3939961.7078050002
1.6847	4058680.8383558127
1.68728	3416055.586796461
1.68987	3190239.7597002685
1.69245	2873612.4157121787
1.69503	1929606.4054499902
1.6976	1397814.3833504822
1.70018	1805987.6499818384
1.70275	1815119.1435234111
1.70531	2103881.2728435425
1.70788	2760049.611830202
1.71044	2796102.92929768
1.713	3328311.25230053
1.71556	3732589.878066263
1.71811	4098795.400366506
1.72066	4735519.460384885
1.72321	4554395.24139173
1.72575	4186345.4560751254
1.7283	4009120.691756057
1.73084	3735673.5056110285
1.73337	3379398.0746180387
1.73591	3179297.2298289174
1.73844	3258385.1836795374
1.74097	3450299.6759968298
1.74349	3263015.713376911
1.74602	2910094.3423864236
1.74854	2756161.352532825
1.75105	2458844.5175947333
1.75357	2001114.8041432332
1.75608	2470671.784292129
1.75859	3429493.847921147
1.7611	3620134.092895542
1.7636	3341932.874648714
1.7661	2535037.321596381
1.7686	1960001.0336049194
1.7711	1377567.8434687643
1.77359	849108.5917544463
1.77608	469698.4658181909
1.77857	316208.08674337296
1.78105	393172.8784399489
1.78354	480510.02226037125
1.78602	365338.01522952906
1.78849	250175.80523832556
1.79097	342064.8846001388
1.79344	541835.0059655193
1.79591	936689.9680787553
1.79837	1393428.9330836958
1.80084	828107.0568788118
1.8033	230154.59676280158
1.80576	80845.69637097936
1.80821	53520.36386717101
1.81067	182988.4334663159
1.81312	287733.6409178304
1.81557	146913.69342482017
1.81801	77523.85330705877
1.82046	219737.6249975346
1.8229	331396.6079275275
1.82533	205176.66321230488
1.82777	55923.12419085447
1.8302	25551.3134655722
1.83263	57369.74277405937
1.83506	120450.64750380567
1.83749	227088.26117197485
1.83991	272916.2002067272
1.84233	200124.1281704108
1.84475	181910.52908258475
1.84716	257167.26557917896
1.84957	423508.19438537466
1.85198	458827.0663638108
1.85439	227045.33015578438
1.8568	134799.588665289
1.8592	175037.37051032236
1.8616	127094.57881692599
1.864	50598.89126274837
1.86639	26605.748608810787
1.86878	43929.31032328517
1.87118	102104.10172402093
1.87356	185395.06660861472
1.87595	289660.88944208476
1.87833	673988.9963385215
1.88071	1256695.3752843456
1.88309	1234944.909396268
1.88547	857518.4466001482
1.88784	693210.9489597889
1.89021	603276.1078901137
1.89258	1126920.8688493313
1.89494	1609826.929428706
1.89731	996420.811637756
1.89967	297837.9349463583
1.90203	47100.138331881986
1.90439	25524.92926542485
1.90674	48278.419929978685
1.90909	53160.150730036214
1.91144	32721.55732882417
1.91379	13868.882220281135
1.91613	14761.593582838455
1.91848	33516.28815108425
1.92082	56666.190393571145
1.92315	56802.01144152189
1.92549	38614.0443535329
1.92782	44486.28425922984
1.93015	73727.88384622126
1.93248	103431.76718583686
1.93481	113499.85721781732
1.93713	101492.19157846305
1.93945	106442.10262066648
1.94177	146092.4985224693
1.94409	190684.27696646948
1.94641	247504.97898087918
1.94872	376737.34325909836
1.95103	492252.44609436736
1.95334	310184.70441943663
1.95564	186124.21701559113
1.95795	215330.80160791194
1.96025	225541.75325280262
1.96255	241083.74506350316
1.96484	326741.18141798064
1.96714	545663.3149851582
1.96943	853730.4582042388
1.97172	1042824.9468231804
1.97401	909083.7077637101
1.97629	887581.8688143702
1.97858	1139670.6766534902
1.98086	1397324.2574930785
1.98314	1696312.430661536
1.98541	1851552.5289095426
1.98769	1662134.8761097451
1.98996	1259913.691880083
1.99223	1272719.3312765732
1.9945	1693594.3496417326
1.99677	1604070.8023678227
1.99903	1521618.1535325109
2.00129	1883080.1443979507
2.00355	2486792.571224947
2.00581	2944855.4415137987
2.00806	3263659.8125173687
2.01031	4106463.013352307
2.01256	4369024.312091123
2.01481	3748948.3313302537
2.01706	3065641.411476298
2.0193	2894868.067188003
2.02154	3233937.1939140116
2.02378	3509179.1074104332
2.02602	3743777.220630612
2.02825	4487126.477603136
2.03049	5159181.771501306
2.03272	5459981.551911637
2.03494	5470625.681130396
2.03717	5616392.179636603
2.03939	6443140.999971782
2.04162	7440317.943683138
2.04384	8220328.347528888
2.04605	8933087.754308313
2.04827	9485226.375033593
2.05048	9333959.213071099
2.05269	8266495.87064131
2.0549	7835104.902816484
2.05711	8206498.55121237
2.05931	8952429.474427816
2.06151	9570522.973450946
2.06371	9972348.400290465
2.06591	10216026.169786166
2.06811	10380553.725141276
2.0703	10457370.08671244
2.07249	10408583.244123226
2.07468	10158586.467574667
2.07686	10076806.513521396
2.07905	10193578.289902268
2.08123	10301651.948729549
2.08341	10306814.492724089
2.08559	10243005.884710962
2.08776	10285533.29051845
2.08994	10242187.154802594
2.09211	10083181.090164658
2.09428	9873593.608503064
2.09645	9838850.708647886
2.09861	9762717.055456372
2.10077	9625896.740529774
2.10293	9439128.056830455
2.10509	9215825.898305805
2.10725	8964753.432952723
2.1094	8993325.87075114
2.11155	9013756.206078494
2.1137	8878024.551769882
2.11585	8444292.0347698
2.11799	8116430.018933897
2.12013	7918183.759454845
2.12227	7850351.935315392
2.12441	7898751.809065103
2.12655	7959080.884598579
2.12868	7925504.5865746
2.13081	7905652.000198842
2.13294	7888312.727249111
2.13507	7627415.35252269
2.13719	7172629.827942497
2.13931	6800182.427281771
2.14143	6482593.120027472
2.14355	5938134.256020366
2.14567	5637439.476697118
2.14778	5414856.387304619
2.14989	5176256.765782836
2.152	4751440.835370405
2.1541	4894902.547788663
2.15621	5116150.790288426
2.15831	5189552.206218504
2.16041	4651141.915910984
2.16251	4353305.3839499
2.1646	4177689.541886422
2.1667	4115089.10476924
2.16879	4270809.903283399
2.17087	4477507.678036986
2.17296	4651769.726627185
2.17504	4747155.290296394
2.17713	4654901.780380508
2.1792	4428503.862582084
2.18128	4125535.652380543
2.18336	3798298.953309885
2.18543	3492484.896555895
2.1875	3189758.706184193
2.18957	2860005.7295893775
2.19163	2383187.8530273438
2.1937	1770479.835132044
2.19576	1190398.0976814495
2.19782	727247.672737948
2.19987	537870.5447677121
2.20193	459349.2337434898
2.20398	471152.34366600245
2.20603	541480.051055414
2.20808	635213.3922858145
2.21012	726852.8745781973
2.21217	801719.8605516122
2.21421	809163.4974384812
2.21625	766379.9307914367
2.21828	682321.1330407279
2.22032	629608.1216896571
2.22235	602953.5599265827
2.22438	577466.2406783826
2.22641	506049.39207908534
2.22843	417654.33577338886
2.23046	337923.3396525488
2.23248	286426.9222293821
2.2345	267748.1467111799
2.23651	253877.78679657256
2.23853	240873.70534260955
2.24054	202488.8112977189
2.24255	156149.1579285443
2.24456	105891.63782938763
2.24657	102924.57335219166
2.24857	131705.7300337726
2.25057	179082.45184839933
2.25257	204426.02081355368
2.25457	226016.51869995956
2.25656	245460.44659654764
2.25856	265086.5010308475
2.26055	248349.81541476888
2.26254	214511.0689329261
2.26453	179429.1893676023
2.26651	159978.8938758796
2.2685	153742.31054206638
2.27048	173298.35540348396
2.27246	202473.97751806743
2.27443	230194.23158741288
2.27641	236187.24403201867
2.27838	223269.50099830094
2.28036	203166.94899129198
2.28233	190560.34029667807
2.28429	181256.58818521068
2.28626	172465.4448185788
2.28823	156555.03965210935
2.29019	148211.47431645886
2.29215	145726.77312176945
2.29411	155815.99949908894
2.29607	160910.01480699593
2.29802	161813.54395713832
2.29998	156715.9542351107
2.30193	178651.73239281363
2.30388	231453.06457210582
2.30583	370772.2452470613
2.30778	515801.26939842076
2.30972	656647.3074067123
2.31167	661202.4391168616
2.31361	588693.3464714321
2.31555	382668.3440355541
2.31749	232777.90212340007
2.31943	123528.28688571583
2.32137	124112.47584665088
2.32331	129907.48478039111
2.32524	139800.59074275263
2.32718	136060.08770926247
2.32911	132727.00309017856
2.33104	130262.59137759001
2.33297	125840.75833399262
2.3349	120578.75984231754
2.33683	114007.11847301228
2.33876	107636.25787863185
2.34068	101089.33141886286
2.34261	89790.69829941858
2.34453	79790.36359566888
2.34646	71150.3189329929
2.34838	77351.31229673667
2.3503	91174.95876118989
2.35223	119979.50571731069
2.35415	147316.22445573471
2.35607	173495.8593079617
2.35799	191978.6146121915
2.35991	210785.29229443605
2.36183	229982.91077772822
2.36375	218983.99899871115
2.36566	193737.5501988276
2.36758	138112.65208040166
2.3695	95697.9207154494
2.37142	61751.244961705976
2.37334	68445.45994574102
2.37526	79109.97349980322
2.37718	96037.01878281124
2.3791	115397.30964053897
2.38101	136234.09188947547
2.38293	162837.20386836494
2.38485	185241.5138795587
2.38677	203358.6260921532
2.3887	193063.65879265944
2.39062	179667.5830749685
2.39254	169558.99683369213
2.39446	172411.4197625011
2.39639	183630.3108723832
2.39831	198231.16301677225
2.40024	206118.32791288165
2.40216	201124.38643396902
2.40409	211446.08667549258
2.40602	231750.70353047198
2.40795	296102.92090692045
2.40989	352660.23020576825
2.41182	398980.6145207081
2.41376	418540.0022127531
2.4157	439287.67568067595
2.41764	492251.6020013089
2.41958	530584.911585418
2.42152	557022.2991501169
2.42347	497857.530638588
2.42542	457231.414363554
2.42737	481643.45425769314
2.42932	577593.5176106531
