#wavelength	surface flux
0.8	137111.79165842908
0.8002000000000001	139044.86866185002
0.8004000500000003	141539.84148871698
0.8006001500125003	144041.10887835326
0.8008003000500035	146543.00158483713
0.8010005001250161	149045.5197644988
0.8012007502500472	151548.66357370175
0.8014010504376099	153551.9118511525
0.8016014007002193	155388.0015907263
0.8018018010503944	157224.55035273495
0.8020022515006572	159061.55825193494
0.8022027520635323	160899.02540310816
0.8024033027515483	162838.36910763895
0.8026039035772362	164877.58253840808
0.8028045545531306	166917.30577253504
0.8030052556917691	168957.53893747146
0.803206007005692	170998.28216069733
0.8034068085074435	173190.38143365658
0.8036076602095705	175805.87181478043
0.8038085621246229	178422.01606849753
0.8040095142651542	181038.81435827966
0.8042105166437206	183656.26684763335
0.8044115692728815	186266.191560249
0.8046126721651998	188524.8405027835
0.8048138253332411	190784.05410755184
0.8050150287895745	193043.83251572345
0.805216282546772	195304.17586849653
0.8054175866174087	197565.0843071066
0.8056189410140631	199855.79981632
0.8058203457493168	202155.36534270388
0.8060218008357541	204455.50576046642
0.8062233062859632	206756.22121333453
0.8064248621125346	209057.5118450643
0.806626468328063	211758.03721707937
0.8068281249451449	214801.6379326697
0.8070298319763813	217845.99954844263
0.8072315894343755	220891.12225461725
0.8074333973317341	223937.00624146953
0.8076352556810671	226280.54036939633
0.8078371644949874	226932.15400312925
0.8080391237861113	227583.9305402708
0.8082411335670578	228235.87002154623
0.8084431938504498	228887.97248769263
0.8086453046489125	229491.0130816361
0.8088474659750746	229177.72502896973
0.8090496778415686	228864.3586542898
0.809251940261029	228550.91393801637
0.8094542532460944	228237.39086056364
0.8096566168094059	227923.7894023419
0.8098590309636085	228055.440802606
0.8100614957213493	228291.35853310965
0.8102640110952797	228527.335243046
0.8104665770980536	228763.37094715988
0.8106691937423283	228999.4656601999
0.8108718610407639	229751.47608271363
0.8110745790060241	230898.12304002885
0.8112773476507757	232045.0566590844
0.8114801669876885	233192.27701154441
0.8116830370294355	234339.78416909184
0.8118859577886929	234988.88493964518
0.8120889292781401	234602.3402697295
0.8122919515104597	234215.69896364637
0.8124950244983374	233828.96099723666
0.8126981482544621	233442.12634633543
0.8129013227915257	233175.3679199866
0.8131045481222237	234284.54126194227
0.8133078242592543	235393.9918972336
0.8135111512153191	236503.7198951834
0.813714529003123	237613.72532513284
0.8139179576353739	238724.00825643993
0.8141214371247829	250108.59511559558
0.8143249674840641	263488.3346393795
0.814528548725935	276871.4190980363
0.8147321808631167	290257.8493278259
0.8149358639083326	303647.62616516877
0.8151395978743097	312275.9136374266
0.8153433827737784	317687.0345178959
0.8155472186194719	323099.50817858335
0.8157511054241268	328513.3349576849
0.815955043200483	333928.51519348496
0.8161590319612831	338427.22653911903
0.8163630717192736	341245.26436989685
0.8165671624872033	344064.0067101292
0.8167713042778252	346883.4537359494
0.8169754971038948	349703.6056235275
0.8171797409781707	352014.9422435868
0.8173840359134155	350259.1982959163
0.8175883819223938	348503.01541226095
0.8177927790178745	346746.39348288364
0.8179972272126291	344989.3323980235
0.8182017265194322	343231.83204789396
0.8184062769510622	351141.5919724754
0.8186108785203001	360541.0452240108
0.8188155312399301	369942.8483388464
0.8190202351227402	379347.00190447125
0.819224990181521	388753.5065084816
0.8194297964290664	394260.2953702264
0.8196346538781738	397416.49674438447
0.8198395625416434	400573.4871688849
0.8200445224322789	403731.2668409927
0.820249533562887	406889.8359580177
0.8204545959462778	410576.9072864855
0.8206597095952644	415114.23951648385
0.8208648745226633	419652.70607954316
0.8210700907412941	424192.3072592425
0.8212753582639793	428733.0433392322
0.8214806771035456	430919.0324089073
0.8216860472728215	418590.46338076727
0.8218914687846397	406258.81221036956
0.822096941651836	393924.0781271729
0.822302465887249	381586.26036046253
0.8225080415037209	369245.35813930386
0.8227136685140968	375104.9707331476
0.8229193469312254	383032.537288132
0.8231250767679583	390962.0857347579
0.8233308580371503	398893.61656849104
0.8235366907516598	406827.1302849385
0.8237425749243477	417392.8275416481
0.8239485105680789	429355.2185458353
0.824154497695721	441320.60014776594
0.824360536320145	453288.9730950993
0.8245666264542252	465260.33813566895
0.8247727681108388	475147.16525926325
0.8249789613028664	482046.7271439214
0.8251852060431922	488948.01391905674
0.825391502344703	495851.02601588273
0.8255978502202894	502755.7638657392
0.8258042496828445	509267.93528133683
0.8260107007452654	513866.8248693704
0.8262172034204517	518466.8641797963
0.8264237577213068	523068.05350005097
0.8266303636607373	527670.3931176377
0.8268370212516525	532273.8833201267
0.8270437305069654	527410.5797690838
0.8272504914395923	521806.2020531856
0.8274573040624523	516200.42324285716
0.8276641683884679	510593.242987831
0.8278710844305652	504984.6609377344
0.8280780522016729	507339.2922243365
0.8282850717147234	513335.12315651146
0.8284921429826521	519332.4530464133
0.8286992660183978	525331.2822687924
0.8289064408349024	531331.6111984728
0.8291136674451112	533612.1265957272
0.8293209458619727	531200.8221263528
0.8295282760984382	528788.9148308642
0.829735658167463	526376.404558549
0.8299430920820048	523963.2911586688
0.8301505778550254	521821.99020930525
0.8303581154994891	520767.4448822481
0.8305657050283641	519712.63591885817
0.8307733464546212	518657.5632532282
0.8309810397912352	517602.2268194301
0.8311887850511829	516546.62655152567
0.8313965822474458	534190.3206596293
0.8316044313930077	552706.3711068151
0.8318123325008561	571227.0505666299
0.8320202855839813	589752.3601963004
0.8322282906553774	608282.3011533802
0.8324363477280413	613670.4766348843
0.8326444568149735	613767.3057199416
0.8328526179291771	613864.15901227
0.8330608310836596	613961.0365179218
0.8332690962914304	614057.9382429498
0.8334774135655034	613098.4543486619
0.833685782918895	610958.6860950928
0.8338942043646247	608818.3828994617
0.834102677915716	606677.54462803
0.834311203585195	604536.1711470323
0.8345197813860912	607012.4202768065
0.8347284113314379	625034.4400143547
0.8349370934342709	643060.9652568272
0.8351458277076294	661091.9971305884
0.8353546141645565	679127.5367623483
0.8355634528180977	697167.5852790083
0.8357723436813022	674309.0465787696
0.8359812867672226	650939.744214661
0.8361902820889144	627564.5995249731
0.8363993296594368	604183.6110491059
0.8366084294918518	580796.7773261118
0.8368175815992247	586133.085265845
0.8370267859946247	601365.2859574112
0.8372360426911234	616601.2946991455
0.8374453517017962	631841.1124430638
0.8376547130397217	647084.7401414161
0.8378641267179816	656249.4488043702
0.8380735927496613	659380.7993308414
0.8382831111478488	662512.9326949425
0.8384926819256358	665645.8490923827
0.8387023050961173	668779.5487189251
0.8389119806723914	671671.3536731432
0.8391217086675596	673880.9061154396
0.8393314890947265	676091.0109458448
0.8395413219670003	678301.6683024579
0.8397512072974922	680512.8783234117
0.8399611450993165	683131.9697988896
0.8401711353855914	705979.5113353507
0.8403811781694378	728832.7647571899
0.8405912734639802	751691.73149239
0.8408014212823464	774556.4129692849
0.8410116216376671	797426.810616546
0.8412218745430766	818046.240153674
0.8414321800117124	838014.216089193
0.8416425380567154	857987.1840187054
0.8418529486912297	877965.145190205
0.8420634119284025	897948.1008519805
0.8422739277813847	910204.8615438596
0.8424844962633302	915653.207412406
0.842695117387396	921102.9153674127
0.8429057911667428	926553.9857494083
0.8431165176145345	932006.418899002
0.8433272967439382	935891.459146746
0.8435381285681244	935950.8397295492
0.8437490131002665	936010.2351574983
0.8439599503535415	936069.6454343043
0.84417094034113	936129.0705636794
0.8443819830762154	936633.2331454104
0.8445930785719846	946096.4964838279
0.8448042268416277	955562.1256380749
0.8450154278983382	965030.1211996092
0.8452266817553128	974500.4837600333
0.8454379884257517	983973.2139110984
0.8456493479228583	995945.925481722
0.845860760259839	1008523.0855151374
0.846072225449904	1021103.389838561
0.8462837435062666	1033686.8392380681
0.8464953144421433	1046273.4344999323
0.8467069382707537	1054263.6532880312
0.8469186150053215	1058670.682616352
0.847130344659073	1063078.8137020064
0.8473421272452377	1067488.0468204278
0.8475539627770492	1071898.3822471332
0.8477658512677435	1077376.5512233323
0.8479777927305605	1085121.1524779454
0.8481897871787432	1092867.6898828703
0.848401834625538	1100616.1639221506
0.8486139350841944	1108366.575079936
0.8488260885679657	1115336.4144461667
0.8490382950901076	1112769.4845471692
0.8492505546638802	1110201.9129156957
0.8494628673025462	1107633.699391315
0.8496752330193721	1105064.8438135497
0.8498876518276269	1102495.3460218932
0.8501001237405839	1063064.8263430682
0.8503126487715191	1016266.4699106775
0.850525226933712	969456.4138892049
0.8507378582404455	922634.6553537273
0.8509505427050057	875801.1913785886
0.8511632803406821	847104.009777987
0.8513760711607672	830827.7043376813
0.8515889151785576	814547.3298209902
0.8518018124073523	798262.8852106836
0.8520147628604541	781974.3694892339
0.8522277665511693	785360.9419423649
0.8524408234928071	825142.5892620551
0.8526539336986805	864934.1819935859
0.8528670971821053	904735.7226233021
0.8530803139564007	944547.213638129
0.8532935840348901	986001.342716403
0.8535069074308987	1041254.6960653722
0.8537202841577566	1096521.8627527251
0.8539337142287962	1151802.846231756
0.8541471976573534	1207097.6499566222
0.8543607344567677	1262406.2773824297
0.8545743246403821	1288305.4372440756
0.8547879682215422	1309538.3164025235
0.8550016652135977	1330776.5037807582
0.8552154156299011	1352020.000705839
0.8554292194838088	1373268.808505166
0.8556430767886797	1388144.984225543
0.855856987557877	1399152.3596739941
0.8560709518047664	1410162.4869663003
0.8562849695427177	1421175.3667904334
0.8564990407851035	1432190.999834526
0.8567131655452999	1442449.004571731
0.8569273438366862	1451463.6621744772
0.8571415756726455	1460480.5734416258
0.8573558610665638	1469499.7389365945
0.8575702000318304	1478521.1592229272
0.8577845925818384	1488148.32140059
0.857999038729984	1501547.4896005716
0.8582135384896665	1514950.0075926
0.858428091874289	1528355.8762141275
0.8586426988972576	1541765.0963028066
0.8588573595719821	1555177.6686965125
0.8590720739118751	1562270.539212511
0.8592868419303532	1568619.6758659647
0.8595016636408359	1574970.3998035819
0.8597165390567462	1581322.7114221815
0.8599314681915105	1587676.611118687
0.8601464510585584	1594309.1480930892
0.860361487671323	1601090.3987723705
0.8605765780432408	1607873.3447643197
0.8607917221877518	1614657.9864927724
0.8610069201182988	1621444.3243816555
0.8612221718483286	1623631.774502046
0.8614374773912907	1619187.4065425869
0.8616528367606385	1614741.927491139
0.8618682499698288	1610295.3370699252
0.8620837170323213	1605847.6350011071
0.8622992379615795	1604167.7718351197
0.8625148127710699	1616189.9655163323
0.8627304414742627	1628215.1647459662
0.8629461240846313	1640243.3702754094
0.8631618606156526	1652274.582856236
0.8633776510808066	1664308.8032402056
0.8635934954935769	1678718.5953025888
0.8638093938674504	1693326.4731033056
0.8640253462159173	1707938.0028734717
0.8642413525524714	1722553.1855260804
0.8644574128906095	1737172.021974349
0.8646735272438323	1743477.5921403146
0.8648896956256433	1745917.1399868713
0.8651059180495498	1748357.2977203894
0.8653221945290621	1750798.0654933387
0.8655385250776946	1753239.443458235
0.8657549097089641	1763626.9718878814
0.8659713484363913	1784189.1351848678
0.8661878412735006	1804756.4390226877
0.866404388233819	1825328.8846864644
0.8666209893308775	1845906.4734616475
0.8668376445782103	1863953.9202353454
0.8670543539893549	1871658.0880637267
0.8672711175778525	1879364.1819340703
0.8674879353572469	1887072.2023278729
0.8677048073410862	1894782.149726777
0.8679217335429217	1902494.0246125355
0.8681387139763074	1911215.3844905219
0.8683557486548015	1919988.9775744304
0.8685728375919655	1928764.7640566204
0.8687899808013633	1937542.744485412
0.8690071782965637	1946322.9194093223
0.869224430091138	1962451.5148537746
0.8694417361986609	1981573.3123069075
0.8696590966327107	2000699.8902093994
0.869876511406869	2019831.2497563679
0.8700939805347206	2038967.392143214
0.8703115040298544	2057766.4362750673
0.870529081905862	2076179.309806953
0.8707467141763385	2094596.7865572153
0.8709644008548827	2113018.867676664
0.8711821419550964	2131445.554316382
0.8713999374905854	2147991.9737723237
0.871617787474958	2158037.1761800377
0.8718356919218269	2168084.889888362
0.8720536508448075	2178135.1155251144
0.8722716642575187	2188187.85371827
0.8724897321735832	2198243.1050959784
0.8727078546066265	2206836.252739241
0.8729260315702784	2215409.2670320184
0.873144263078171	2223984.4245783594
0.8733625491439405	2232561.725914088
0.8735808897812266	2241141.1715751537
0.8737992850036719	2243142.6630340954
0.874017734824923	2242814.091972663
0.8742362392586293	2242485.4387684655
0.874454798318444	2242156.703400967
0.8746734120180236	2241827.8858496267
0.8748920803710283	2245080.5798994023
0.875110803391121	2251933.2476188624
0.8753295810919689	2258787.6285052565
0.875548413487242	2265643.722986872
0.8757673005906139	2272501.531492108
0.8759862424157616	2283083.049127104
0.8762052389763657	2304436.97939228
0.8764242902861098	2325796.2481400077
0.8766433963586814	2347160.856704928
0.8768625572077712	2368530.806421996
0.8770817728470732	2389694.9018819467
0.8773010432902849	2394374.5794508522
0.8775203685511077	2399055.4269391564
0.8777397486432454	2403737.444639327
0.8779591835804065	2408420.6328439284
0.8781786733763015	2413104.9918455747
0.8783982180446457	2412092.1716878335
0.878617817599157	2409383.945636261
0.8788374720535569	2406675.0425281767
0.8790571814215703	2403965.4621943156
0.8792769457169257	2401255.2044653716
0.879496764953355	2386126.6226211274
0.8797166391445934	2359829.9787765173
0.8799365683043796	2333526.7607709435
0.8801565524464557	2307216.9669608693
0.8803765915845676	2280900.5957023175
0.8805966857324639	2269000.669227089
0.880816834903897	2293324.079901598
0.881037039112623	2317653.5714287856
0.8812572983724012	2341989.145328853
0.8814776126969944	2366330.803122406
0.8816979821001687	2388965.3001305726
0.8819184065956938	2371275.351847182
0.8821388861973429	2353580.981076702
0.8823594209188923	2335882.186713546
0.882580010774122	2318178.9676518077
0.8828006557768155	2300471.322785294
0.8830213559407598	2298869.488704196
0.8832421112797452	2301319.142475737
0.8834629218075651	2303769.408660719
0.8836837875380171	2306220.287412248
0.8839047084849018	2308671.7788834656
0.884125684662023	2320813.410500053
0.8843467160831886	2340722.9961384186
0.8845678027622095	2360637.5591731938
0.8847889447129001	2380557.100848731
0.8850101419490785	2400481.622409684
0.8852313944845657	2415592.34729358
0.885452702333187	2420159.1362645486
0.8856740655087704	2424727.066932759
0.8858954840251476	2429296.139583635
0.8861169578961539	2433866.354502672
0.886338487135628	2434119.9719076455
0.886560071757412	2376915.7290658173
0.8867817117753515	2319697.18516328
0.8870034072032955	2262464.336624741
0.8872251580550963	2205217.1798741347
0.8874469643446101	2147955.7113343053
0.8876688260856963	2153007.822361507
0.8878907432922178	2170960.753051706
0.8881127159780409	2188918.171974566
0.8883347441570356	2206880.080252178
0.8885568278430749	2224846.479006841
0.8887789670500358	2249873.9518854767
0.8890011617917983	2279913.4352961257
0.8892234120822464	2309960.4285776406
0.8894457179352669	2340014.9336074516
0.8896680793647509	2370076.952263544
0.8898904963845921	2370149.4497902067
0.8901129690086883	2312986.829934581
0.8903354972509405	2255809.919424006
0.8905580811252535	2198618.714685758
0.8907807206455347	2141413.2121464037
0.8910034158256963	2082779.4878098513
0.8912261666796527	2011494.9493242095
0.8914489732213227	1940192.5897039264
0.8916718354646282	1868872.404493668
0.8918947534234944	1797534.3892371762
0.8921177271118502	1726178.5394769143
0.8923407565436284	1634326.4617440586
0.8925638417327644	1539110.8389107015
0.8927869826931977	1443871.412171604
0.8930101794388711	1348608.1755758282
0.8932334319837308	1253321.1231709186
0.8934567403417267	1183709.9955961886
0.8936801045268123	1130050.8325004822
0.8939035245529441	1076378.254614038
0.8941270004340824	1022692.2585831012
0.894350532184191	968992.8410531704
0.8945741198172371	986149.6321996314
0.8947977633471915	1120839.546161105
0.8950214627880284	1255563.132601063
0.8952452181537254	1390320.3999375512
0.8954690294582639	1525111.3565909546
0.8956928967156286	1646263.9488202217
0.8959168199398075	1678720.0161339573
0.8961407991447926	1711184.1974645294
0.8963648343445789	1743656.4948404336
0.896588925553165	1776136.9102906631
0.8968130727845534	1808625.4458447595
0.8970372760527496	1802095.231006373
0.8972615353717629	1790680.3359321153
0.8974858507556059	1779262.5871340877
0.8977102222182949	1767841.9838988637
0.8979346497738496	1756418.5255128245
0.8981591334362931	1877266.4336869807
0.8983836732196523	2070482.21584639
0.8986082691379572	2263746.3019512114
0.8988329212052417	2457058.70407756
0.8990576294355432	2650419.4343046066
0.8992823938429022	2786416.218924413
0.8995072144413631	2837082.229754988
0.8997320912449734	2887760.9070882523
0.8999570242677847	2938452.254090838
0.9001820135238516	2989156.273930178
0.9004070590272328	3032469.977572918
0.9006321607919896	3036985.498892207
0.9008573188321878	3041502.1490918305
0.9010825331618959	3046019.928454002
0.9013078037951865	3050538.837261014
0.9015331307461353	3055058.875795226
0.9017585140288219	3060020.438992903
0.9019839536573292	3065021.1749144155
0.9022094496457435	3070023.1610199045
0.9024350020081551	3075026.397621926
0.9026606107586572	3080030.8850330957
0.902886275911347	3167656.349061644
0.9031119974803249	3295132.1780099394
0.9033377754796951	3422639.8759154733
0.903563609923565	3550179.4507454266
0.903789500826046	3677750.9104691735
0.9040154482012526	3750404.914836043
0.904241452063303	3751894.999968688
0.9044675124263188	3753385.4576226156
0.9046936293044254	3754876.2878909563
0.9049198027117517	3756367.4908668646
0.9051460326624297	3762338.6315734526
0.9053723191705955	3787386.294644801
0.9055986622503881	3812440.2196318936
0.9058250619159507	3837500.4081002343
0.9060515181814298	3862566.8616157076
0.9062780310609752	3887639.5817445423
0.9065046005687405	3726717.926941241
0.906731226718883	3555379.6157590733
0.9069579095255627	3383998.4699993343
0.907184649002944	3212574.478953142
0.907411445165195	3041107.631909014
0.9076382980264862	3119252.3658740628
0.907865207600993	3301097.6657792456
0.9080921739028933	3482988.427009351
0.9083191969463691	3664924.660929735
0.9085462767456058	3846906.3789086873
0.9087734133147922	3947281.8042304046
0.9090006066681211	3953373.496075349
0.909227856819788	3959466.7108432464
0.9094551637839932	3965561.448914844
0.9096825275749393	3971657.710670958
0.9099099482068329	3989594.741917785
0.9101374256938848	4049613.140951939
0.9103649600503083	4109646.5445858235
0.9105925512903209	4169694.956570605
0.9108201994281437	4229758.380658445
0.9110479044780008	4289836.820602238
0.9112756664541204	4342334.739671973
0.911503485370734	4394671.922638843
0.9117313612420768	4447022.189901455
0.9119592940823873	4499385.544730867
0.912187283905908	4551761.990399003
0.9124153307268845	4387063.718774863
0.9126434345595664	4143534.086166442
0.9128715954182063	3899943.5711500985
0.9130998133170609	3656292.158504879
0.9133280882703902	3412579.8330065133
0.913556420292458	3338209.1196763096
0.9137848093975312	3438527.154723005
0.9140132555998806	3538870.2692784495
0.9142417589137806	3639238.469612539
