#wavelength	surface flux
0.8	2584333.9017912713
0.8002000000000001	2599473.668623954
0.8004000500000003	2614794.502622613
0.8006001500125003	2630120.957554783
0.8008003000500035	2645451.244100687
0.8010005001250161	2660785.363218235
0.8012007502500472	2676123.3158655395
0.8014010504376099	2689666.377954982
0.8016014007002193	2702610.3078725794
0.8018018010503944	2715557.473772656
0.8020022515006572	2728507.8764642132
0.8022027520635323	2741461.5167564326
0.8024033027515483	2754398.9230794674
0.8026039035772362	2767320.481581301
0.8028045545531306	2780245.270472761
0.8030052556917691	2793173.2905614497
0.803206007005692	2806104.5426551495
0.8034068085074435	2819192.705156753
0.8036076602095705	2832714.9205395523
0.8038085621246229	2846240.5164761865
0.8040095142651542	2859769.4938118136
0.8042105166437206	2873301.85339177
0.8044115692728815	2886783.748367586
0.8046126721651998	2897952.9296240443
0.8048138253332411	2909124.9031758076
0.8050150287895745	2920299.669720969
0.805216282546772	2931477.229957764
0.8054175866174087	2942657.5845846124
0.8056189410140631	2954151.000597637
0.8058203457493168	2965735.1154502803
0.8060218008357541	2977322.1263316213
0.8062233062859632	2988912.0339656887
0.8064248621125346	3000504.8390766564
0.806626468328063	3012914.067100708
0.8068281249451449	3026025.1167436764
0.8070298319763813	3039139.4441490723
0.8072315894343755	3052257.050136309
0.8074333973317341	3065377.935525048
0.8076352556810671	3076685.7809787923
0.8078371644949874	3083624.26748568
0.8080391237861113	3090564.4886141964
0.8082411335670578	3097506.444797991
0.8084431938504498	3104450.136470838
0.8086453046489125	3111336.6297259047
0.8088474659750746	3117127.592766501
0.8090496778415686	3122920.0035478654
0.809251940261029	3128713.8624319206
0.8094542532460944	3134509.1697807023
0.8096566168094059	3140305.925956314
0.8098590309636085	3147349.717247438
0.8100614957213493	3154686.809043028
0.8102640110952797	3162025.735111568
0.8104665770980536	3169366.495911628
0.8106691937423283	3176709.0919018905
0.8108718610407639	3185053.587203922
0.8110745790060241	3194164.8648230145
0.8112773476507757	3203278.420261519
0.8114801669876885	3212394.2540888805
0.8116830370294355	3221512.366874694
0.8118859577886929	3229905.1213459987
0.8120889292781401	3236788.6383885806
0.8122919515104597	3243673.8763104226
0.8124950244983374	3250560.835541745
0.8126981482544621	3257449.5165128745
0.8129013227915257	3264480.8826977573
0.8131045481222237	3273128.0551234814
0.8133078242592543	3281777.3893423127
0.8135111512153191	3290428.885894696
0.813714529003123	3299082.545321219
0.8139179576353739	3307738.3681626
0.8141214371247829	3331391.659168051
0.8143249674840641	3357958.7052005585
0.814528548725935	3384532.3929945584
0.8147321808631167	3411112.7242105426
0.8149358639083326	3437699.7005093223
0.8151395978743097	3455904.4951520786
0.8153433827737784	3468445.9965615324
0.8155472186194719	3480990.6333463336
0.8157511054241268	3493538.406290329
0.815955043200483	3506089.316177569
0.8161590319612831	3516563.7514073984
0.8163630717192736	3523230.1690450585
0.8165671624872033	3529898.2532871207
0.8167713042778252	3536568.0045502502
0.8169754971038948	3543239.423251199
0.8171797409781707	3548064.38249502
0.8173840359134155	3538136.3752663545
0.8175883819223938	3528205.886035893
0.8177927790178745	3518272.9141831184
0.8179972272126291	3508337.459087378
0.8182017265194322	3498399.5201278734
0.8184062769510622	3504397.8679774664
0.8186108785203001	3512850.4564104932
0.8188155312399301	3521305.157990617
0.8190202351227402	3529761.9732461455
0.819224990181521	3538220.902705482
0.8194297964290664	3562372.8955334686
0.8196346538781738	3595988.6178174685
0.8198395625416434	3629612.7440320263
0.8200445224322789	3663245.276278152
0.820249533562887	3696886.2166573294
0.8204545959462778	3722586.583326839
0.8206597095952644	3735499.700023284
0.8208648745226633	3748416.0449989135
0.8210700907412941	3761335.619060785
0.8212753582639793	3774258.423016159
0.8214806771035456	3784363.2765994454
0.8216860472728215	3777088.743813226
0.8218914687846397	3769812.3923938093
0.822096941651836	3762534.2218865347
0.822302465887249	3755254.231836637
0.8225080415037209	3747972.421789223
0.8227136685140968	3761582.2081471686
0.8229193469312254	3777567.236435365
0.8231250767679583	3793556.2609806387
0.8233308580371503	3809549.2827820396
0.8235366907516598	3825546.302838903
0.8237425749243477	3842622.2659172914
0.8239485105680789	3860272.237079611
0.824154497695721	3877926.62073471
0.824360536320145	3895585.417985726
0.8245666264542252	3913248.6299360543
0.8247727681108388	3929214.4796458078
0.8249789613028664	3942747.0543632656
0.8251852060431922	3956283.012224415
0.825391502344703	3969822.354075023
0.8255978502202894	3983365.080761106
0.8258042496828445	3996130.352663047
0.8260107007452654	4005106.6091709584
0.8262172034204517	4014085.109742987
0.8264237577213068	4023065.8549401616
0.8266303636607373	4032048.845323639
0.8268370212516525	4041034.0814547082
0.8270437305069654	4043129.0930521856
0.8272504914395923	4044686.026601391
0.8274573040624523	4046243.3493839847
0.8276641683884679	4047801.061497272
0.8278710844305652	4049359.16303859
0.8280780522016729	4057349.5666834973
0.8282850717147234	4068281.9832579694
0.8284921429826521	4079217.1329365736
0.8286992660183978	4090155.0164026064
0.8289064408349024	4101095.6343394974
0.8291136674451112	4109312.0167968096
0.8293209458619727	4114091.8800269105
0.8295282760984382	4118872.938222812
0.829735658167463	4123655.1916832686
0.8299430920820048	4128438.640707084
0.8301505778550254	4133600.197583703
0.8303581154994891	4140267.4109778744
0.8305657050283641	4146936.291175401
0.8307733464546212	4153606.8385929717
0.8309810397912352	4160279.0536474073
0.8311887850511829	4166952.936755594
0.8313965822474458	4186263.3894449067
0.8316044313930077	4206165.122343366
0.8318123325008561	4226071.830675068
0.8320202855839813	4245983.515683844
0.8322282906553774	4265900.178613874
0.8324363477280413	4276134.908323953
0.8326444568149735	4282472.279964097
0.8328526179291771	4288811.235947143
0.8330608310836596	4295151.776669195
0.8332690962914304	4301493.902526419
0.8334774135655034	4307008.542693854
0.833685782918895	4311598.461741094
0.8338942043646247	4316189.528268091
0.834102677915716	4320781.742561724
0.834311203585195	4325375.104908927
0.8345197813860912	4333122.64964669
0.8347284113314379	4351485.538742125
0.8349370934342709	4369853.018559823
0.8351458277076294	4388225.090247453
0.8353546141645565	4406601.754953037
0.8355634528180977	4424983.013824789
0.8357723436813022	4414438.666309733
0.8359812867672226	4403534.468431292
0.8361902820889144	4392627.544503388
0.8363993296594368	4381717.893844498
0.8366084294918518	4370805.515772941
0.8368175815992247	4381222.513425585
0.8370267859946247	4398989.110988109
0.8372360426911234	4416760.150200019
0.8374453517017962	4434535.63217173
0.8376547130397217	4452315.558013931
0.8378641267179816	4464924.775201307
0.8380735927496613	4472402.047000165
0.8382831111478488	4479881.18811697
0.8384926819256358	4487362.199019048
0.8387023050961173	4494845.08017386
0.8389119806723914	4502342.778950155
0.8391217086675596	4509878.788961658
0.8393314890947265	4517416.682975659
0.8395413219670003	4524956.461463164
0.8397512072974922	4532498.124895296
0.8399611450993165	4540308.332589983
0.8401711353855914	4561362.675865355
0.8403811781694378	4582422.282726539
0.8405912734639802	4603487.154489445
0.8408014212823464	4624557.292470301
0.8410116216376671	4645632.697985649
0.8412218745430766	4664057.420852131
0.8414321800117124	4681713.97050238
0.8416425380567154	4699374.9342900505
0.8418529486912297	4717040.313318672
0.8420634119284025	4734710.108692035
0.8422739277813847	4746987.761456617
0.8424844962633302	4754513.904816961
0.842695117387396	4762041.9297131365
0.8429057911667428	4769571.836615535
0.8431165176145345	4777103.625994664
0.8433272967439382	4784436.56029504
0.8435381285681244	4791281.672118656
0.8437490131002665	4798128.495220227
0.8439599503535415	4804977.030027569
0.84417094034113	4811827.276968618
0.8443819830762154	4818905.889483956
0.8445930785719846	4830552.215966327
0.8448042268416277	4842201.454030313
0.8450154278983382	4853853.604403813
0.8452266817553128	4865508.667814906
0.8454379884257517	4877166.644991853
0.8456493479228583	4889172.378734386
0.845860760259839	4901264.156025578
0.846072225449904	4913358.956261094
0.8462837435062666	4925456.78019667
0.8464953144421433	4937557.628588239
0.8467069382707537	4947277.385288911
0.8469186150053215	4955141.22602338
0.847130344659073	4963007.0327180335
0.8473421272452377	4970874.805864355
0.8475539627770492	4978744.5459539695
0.8477658512677435	4987237.732243654
0.8479777927305605	4997052.670149876
0.8481897871787432	5006870.061790572
0.848401834625538	5016689.907779183
0.8486139350841944	5026512.208729286
0.8488260885679657	5035904.573840261
0.8490382950901076	5040028.589200905
0.8492505546638802	5044153.635565391
0.8494628673025462	5048279.713191466
0.8496752330193721	5052406.822336954
0.8498876518276269	5056534.963259722
0.8501001237405839	5032059.802994296
0.8503126487715191	5001868.596654115
0.850525226933712	4971669.842512365
0.8507378582404455	4941463.538682081
0.8509505427050057	4911249.683275821
0.8511632803406821	4889966.843958285
0.8513760711607672	4874799.9672724
0.8515889151785576	4859629.298867319
0.8518018124073523	4844454.83779515
0.8520147628604541	4829276.583107721
0.8522277665511693	4835647.787531459
0.8524408234928071	4881880.722135226
0.8526539336986805	4928125.214972657
0.8528670971821053	4974381.2689333
0.8530803139564007	5020648.886907378
0.8532935840348901	5066271.686466308
0.8535069074308987	5106362.382286477
0.8537202841577566	5146463.100780633
0.8539337142287962	5186573.844454418
0.8541471976573534	5226694.615814096
0.8543607344567677	5266825.417366622
0.8545743246403821	5286003.16485892
0.8547879682215422	5301856.529014386
0.8550016652135977	5317713.85651089
0.8552154156299011	5333575.148339268
0.8554292194838088	5349440.405490615
0.8556430767886797	5362154.081666549
0.855856987557877	5372954.971290178
0.8560709518047664	5383758.561136207
0.8562849695427177	5394564.851879701
0.8564990407851035	5405373.844195884
0.8567131655452999	5415921.66763302
0.8569273438366862	5426039.766378094
0.8571415756726455	5436160.394647856
0.8573558610665638	5446283.553074689
0.8575702000318304	5456409.242291117
0.8577845925818384	5466731.746382728
0.857999038729984	5478270.397121642
0.8582135384896665	5489811.9325232385
0.858428091874289	5501356.353308685
0.8586426988972576	5512903.6601993255
0.8588573595719821	5524453.853916693
0.8590720739118751	5533274.242599229
0.8592868419303532	5541774.643758114
0.8595016636408359	5550277.17001729
0.8597165390567462	5558781.821908027
0.8599314681915105	5567288.599961739
0.8601464510585584	5571570.411368262
0.860361487671323	5573609.581589763
0.8605765780432408	5575649.261603817
0.8607917221877518	5577689.451537878
0.8610069201182988	5579730.1515194215
0.8612221718483286	5553298.816526041
0.8614374773912907	5485813.846672734
0.8616528367606385	5418312.005576982
0.8618682499698288	5350793.289020914
0.8620837170323213	5283257.692785718
0.8622992379615795	5226420.496133617
0.8625148127710699	5222594.922911358
0.8627304414742627	5218768.393295792
0.8629461240846313	5214940.907047822
0.8631618606156526	5211112.46392829
0.8633776510808066	5207283.063697979
0.8635934954935769	5285484.67087663
0.8638093938674504	5370430.136974322
0.8640253462159173	5455396.839438536
0.8642413525524714	5540384.783578364
0.8644574128906095	5625393.97470421
0.8646735272438323	5634232.36473997
0.8648896956256433	5607641.548366305
0.8651059180495498	5581044.084288545
0.8653221945290621	5554439.970844791
0.8655385250776946	5527829.206372639
0.8657549097089641	5528589.573677741
0.8659713484363913	5564399.71352578
0.8661878412735006	5600218.805908797
0.866404388233819	5636046.853064906
0.8666209893308775	5671883.857232787
0.8668376445782103	5702388.270742814
0.8670543539893549	5711098.733591084
0.8672711175778525	5719811.374055072
0.8674879353572469	5728526.192679167
0.8677048073410862	5737243.19000792
0.8679217335429217	5745962.366586012
0.8681387139763074	5764833.723795655
0.8683557486548015	5784214.025026799
0.8685728375919655	5803599.171333276
0.8687899808013633	5822989.163926287
0.8690071782965637	5842384.00401747
0.869224430091138	5848900.394454232
0.8694417361986609	5850176.216170455
0.8696590966327107	5851452.356842105
0.869876511406869	5852728.816548925
0.8700939805347206	5854005.59537067
0.8703115040298544	5857702.63884887
0.870529081905862	5864167.304314875
0.8707467141763385	5870633.585947244
0.8709644008548827	5877101.484150021
0.8711821419550964	5883570.999327345
0.8713999374905854	5891848.361095007
0.871617787474958	5906361.715903323
0.8718356919218269	5920878.699050355
0.8720536508448075	5935399.311443174
0.8722716642575187	5949923.5539890835
0.8724897321735832	5964451.427595636
0.8727078546066265	5978666.212438232
0.8729260315702784	5992879.732615755
0.873144263078171	6007096.806173306
0.8733625491439405	6021317.433999248
0.8735808897812266	6035541.616982153
0.8737992850036719	6041821.134662051
0.874017734824923	6045287.092910436
0.8742362392586293	6048753.917648382
0.874454798318444	6052221.609092511
0.8746734120180236	6055690.167459502
0.8748920803710283	6061944.326573492
0.875110803391121	6070998.441154542
0.8753295810919689	6080054.819264244
0.875548413487242	6089113.461468473
0.8757673005906139	6098174.368333253
0.8759862424157616	6111896.374022153
0.8762052389763657	6139102.365089576
0.8764242902861098	6166315.157654746
0.8766433963586814	6193534.753418066
0.8768625572077712	6220761.154080334
0.8770817728470732	6247754.1947896825
0.8773010432902849	6256002.385291219
0.8775203685511077	6264252.637840392
0.8777397486432454	6272504.952952692
0.8779591835804065	6280759.331143781
0.8781786733763015	6289015.772929406
0.8783982180446457	6276003.329422809
0.878617817599157	6256659.922942543
0.8788374720535569	6237311.680610666
0.8790571814215703	6217958.601218211
0.8792769457169257	6198600.6835559085
0.879496764953355	6188000.811219186
0.8797166391445934	6185276.697910695
0.8799365683043796	6182551.903573879
0.8801565524464557	6179826.428038478
0.8803765915845676	6177100.27113419
0.8805966857324639	6183418.720376791
0.880816834903897	6212457.80023303
0.881037039112623	6241504.139859243
0.8812572983724012	6270557.741070361
0.8814776126969944	6299618.605681794
0.8816979821001687	6328284.7259805035
0.8819184065956938	6347494.640834022
0.8821388861973429	6366709.358166275
0.8823594209188923	6385928.879177841
0.882580010774122	6405153.205069653
0.8828006557768155	6424382.337042947
0.8830213559407598	6446041.737966812
0.8832421112797452	6468316.581970489
0.8834629218075651	6490596.994685152
0.8836837875380171	6512882.977503001
0.8839047084849018	6535174.531816557
0.884125684662023	6532201.715840705
0.8843467160831886	6508977.524546847
0.8845678027622095	6485747.5272051655
0.8847889447129001	6462511.7223641435
0.8850101419490785	6439270.108571917
0.8852313944845657	6438180.965782056
0.885452702333187	6485593.310975798
0.8856740655087704	6533017.509255832
0.8858954840251476	6580453.563585424
0.8861169578961539	6627901.476928575
0.886338487135628	6670084.157064109
0.886560071757412	6642052.930370108
0.8867817117753515	6614014.695869434
0.8870034072032955	6585969.451810121
0.8872251580550963	6557917.196439827
0.8874469643446101	6529857.928005672
0.8876688260856963	6548012.0484539205
0.8878907432922178	6575736.612326961
0.8881127159780409	6603468.107340951
0.8883347441570356	6631206.535228729
0.8885568278430749	6658951.89772345
0.8887789670500358	6671467.5222123815
0.8890011617917983	6673177.78039442
0.8892234120822464	6674888.466141005
0.8894457179352669	6676599.579559025
0.8896680793647509	6678311.1207554005
0.8898904963845921	6676474.985131219
0.8901129690086883	6667868.513297967
0.8903354972509405	6659259.889846758
0.8905580811252535	6650649.114239681
0.8907807206455347	6642036.185938712
0.8910034158256963	6631559.416351529
0.8912261666796527	6604442.188700002
0.8914489732213227	6577318.181741553
0.8916718354646282	6550187.39378134
0.8918947534234944	6523049.823124162
0.8921177271118502	6495905.468074337
0.8923407565436284	6467229.2232805025
0.8925638417327644	6438297.023549813
0.8927869826931977	6409357.590769181
0.8930101794388711	6380410.923130356
0.8932334319837308	6351457.018824626
0.8934567403417267	6339761.649887788
0.8936801045268123	6338792.00311208
0.8939035245529441	6337822.1139246775
0.8941270004340824	6336851.982264978
0.894350532184191	6335881.608072364
0.8945741198172371	6370066.739752097
0.8947977633471915	6462562.033036974
0.8950214627880284	6555080.450145168
0.8952452181537254	6647621.996857584
0.8954690294582639	6740186.678956734
0.8956928967156286	6822477.975433685
0.8959168199398075	6837969.053764794
0.8961407991447926	6853464.00486549
0.8963648343445789	6868962.829703961
0.896588925553165	6884465.5292486325
0.8968130727845534	6899972.104468192
0.8970372760527496	6901690.678327132
0.8972615353717629	6901684.040148239
0.8974858507556059	6901677.4003098
0.8977102222182949	6901670.758811402
0.8979346497738496	6901664.11565263
0.8981591334362931	6935529.728020651
0.8983836732196523	6987927.747790806
0.8986082691379572	7040338.86706587
0.8988329212052417	7092763.089120752
0.8990576294355432	7145200.417231194
0.8992823938429022	7178359.052068431
0.8995072144413631	7182841.517702999
0.8997320912449734	7187325.103953973
0.8999570242677847	7191809.811101509
0.9001820135238516	7196295.639425833
0.9004070590272328	7202547.659740265
0.9006321607919896	7218054.344970977
0.9008573188321878	7233564.906873012
0.9010825331618959	7249079.346415515
0.9013078037951865	7264597.664567906
0.9015331307461353	7280119.862299828
0.9017585140288219	7301652.446964376
0.9019839536573292	7323707.77073872
0.9022094496457435	7345768.608343992
0.9024350020081551	7367834.961158691
0.9026606107586572	7389906.830561587
0.902886275911347	7415323.581189554
0.9031119974803249	7442356.491536591
0.9033377754796951	7469396.160111215
0.903563609923565	7496442.588602969
0.903789500826046	7523495.778701866
0.9040154482012526	7538308.571400069
0.904241452063303	7537259.939969104
0.9044675124263188	7536211.046380281
0.9046936293044254	7535161.890568062
0.9049198027117517	7534112.472466889
0.9051460326624297	7537358.558320654
0.9053723191705955	7558897.82799132
0.9055986622503881	7580442.482479383
0.9058250619159507	7601992.52313107
0.9060515181814298	7623547.951292933
0.9062780310609752	7645108.768311821
0.9065046005687405	7634172.3765424155
0.906731226718883	7621420.026771773
0.9069579095255627	7608664.488913705
0.907184649002944	7595905.762171171
0.907411445165195	7583143.845746937
0.9076382980264862	7603739.5332258055
0.907865207600993	7638195.045746383
0.9080921739028933	7672659.172145081
0.9083191969463691	7707131.914575373
0.9085462767456058	7741613.275191288
0.9087734133147922	7764559.691073185
0.9090006066681211	7774178.882813218
0.909227856819788	7783800.479351174
0.9094551637839932	7793424.4812882785
0.9096825275749393	7803050.889225863
0.9099099482068329	7814190.851257814
0.9101374256938848	7830704.242670973
0.9103649600503083	7847221.762431976
0.9105925512903209	7863743.411572918
0.9108201994281437	7880269.191126161
0.9110479044780008	7896799.102124275
0.9112756664541204	7913424.688130622
0.911503485370734	7930056.525925851
0.9117313612420768	7946692.52168053
0.9119592940823873	7963332.6764341425
0.912187283905908	7979976.991226449
0.9124153307268845	7966657.595403277
0.9126434345595664	7942458.283975287
0.9128715954182063	7918252.922719463
0.9130998133170609	7894041.510123312
0.9133280882703902	7869824.044674014
0.913556420292458	7866197.843778286
0.9137848093975312	7883813.055462063
0.9140132555998806	7901432.670948759
0.9142417589137806	7919056.691339328
0.9144703193535092	7936685.117735005
0.9146989369333476	7950518.586351426
0.9149276116675811	7952896.510349592
0.9151563435704979	7955275.028828755
0.9153851326563907	7957654.141937541
