#wavelength	surface flux
0.676892	1182305.4525710673
0.678297	1200359.153369933
0.679702	1208937.51628097
0.681109	1219421.7341007057
0.682517	1252430.676644715
0.683926	1278441.7340701541
0.685337	1298539.238597212
0.686749	1319057.8914738959
0.688164	1337887.9793777755
0.689581	1355907.6325405377
0.691	1361536.9281021033
0.692422	1383396.6160172343
0.693847	1419615.0735058878
0.695274	1447569.4880917822
0.696705	1470191.7335748575
0.698139	1492462.7496877615
0.699576	1515245.7839472676
0.701017	1538365.0432492439
0.702461	1561051.3958773413
0.70391	1584729.1074364665
0.705362	1609039.9422495507
0.706819	1633069.7639771963
0.70828	1657466.6361699903
0.709745	1682197.5713472108
0.711216	1707381.235091243
0.71269	1732811.3134398481
0.71417	1758529.8691452264
0.715655	1783850.775592216
0.717145	1808790.638518089
0.71864	1836533.3482997057
0.72014	1863830.782461583
0.721647	1891071.9330071928
0.723158	1918671.3539196283
0.724676	1946657.1868076448
0.726199	1975193.3280067563
0.727728	2004485.7774228859
0.729264	2033109.700247801
0.730805	2063030.2229292602
0.732353	2094023.4682860554
0.733907	2124292.705035235
0.735468	2155038.526218343
0.737035	2186227.633179852
0.738609	2218488.2768266248
0.74019	2251124.675417405
0.741777	2282963.602315932
0.743372	2315891.2046199525
0.744973	2349040.462829361
0.746582	2382570.989019583
0.748197	2416864.224049297
0.74982	2450842.268851389
0.751451	2484532.4618169796
0.753088	2517692.344089585
0.754734	2550277.979970824
0.756386	2580854.702960643
0.758047	2608036.1749971323
0.759715	2627110.212509422
0.76139	2623858.630589464
0.763074	2525468.5491332845
0.764765	1940509.85096124
0.766464	1039905.747568145
0.768172	1245223.8864932319
0.769887	812479.0304082833
0.77161	2109537.2992876275
0.773341	2843222.478882814
0.775081	2971498.5948944245
0.776829	3045873.162196369
0.778585	3099226.201866174
0.780349	3146393.320231972
0.782121	3206443.6205046987
0.783902	3259143.177004331
0.785691	3309212.815061669
0.787489	3359185.852110586
0.789295	3408803.085461365
0.79111	3457988.7044389993
0.792933	3480222.9009610717
0.794764	3351922.631686494
0.796604	3554554.0624809465
0.798453	3661924.3519657897
0.80031	3714660.4866199275
0.802176	3767541.6587849115
0.804051	3820965.6594371335
0.805934	3874014.6572180884
0.807826	3927436.8939217604
0.809727	3978991.264171951
0.811636	4032489.282620664
0.813554	4089807.602686955
0.81548	4151651.489412149
0.817416	4209701.950213614
0.81936	4267262.887636282
0.821313	4328119.4237452345
0.823274	4386652.073936883
0.825244	4451013.661441075
0.827223	4512419.936275031
0.829211	4573143.858565196
0.831208	4636375.089900575
0.833213	4702226.9429006
0.835227	4766228.300169058
0.837249	4828300.393126234
0.83928	4894307.988820444
0.841321	4964906.517231593
0.843369	5035165.724249851
0.845427	5103396.347132894
0.847493	5173627.181032828
0.849567	5243826.085472083
0.851651	5315200.572617713
0.853742	5388062.289693085
0.855843	5461616.861934149
0.857952	5535767.492053438
0.86007	5608299.591279109
0.862196	5648261.319355355
0.864331	5732491.443506246
0.866474	5819197.771374527
0.868626	5898418.246490824
0.870786	5971222.765079912
0.872955	6052911.552610051
0.875132	6133729.091065265
0.877317	6220492.94725679
0.879511	6290255.131671457
0.881713	6376788.431362794
0.883923	6467816.486601886
0.886142	6549937.3808206795
0.888369	6631020.345179932
0.890604	6708955.862176314
0.892847	6786158.315417984
0.895099	6883729.149767784
0.897358	6978902.190995758
0.899626	7071358.310098555
0.901901	7163835.206292749
0.904185	7260110.421015074
0.906476	7351259.928155032
0.908776	7443175.212390746
0.911083	7540304.5983354375
0.913398	7628542.916077866
0.915721	7717424.253266096
0.918051	7806553.471107521
0.92039	7915676.427496303
0.922736	8009852.629382818
0.925089	8073381.023272703
0.927451	8095126.157412879
0.929819	8110921.397626465
0.932195	8278020.557303647
0.934579	8378854.6731830025
0.93697	8502311.422087274
0.939369	8639621.46738977
0.941774	8748092.400981793
0.944187	8803841.173875729
0.946607	8893855.115448676
0.949035	9039544.422107698
0.951469	9125890.620999968
0.953911	9250621.000340814
0.956359	9398998.689832978
0.958814	9436516.194219775
0.961277	9504888.247210205
0.963746	9613323.439734856
0.966222	9733588.691823807
0.968705	9821776.53030093
0.971194	10019681.103753837
0.97369	10183682.840962514
0.976193	10279441.642793722
0.978702	10411831.675866662
0.981217	10531620.54630415
0.983739	10652921.300749255
0.986268	10773896.191263966
0.988802	10885551.489120942
0.991343	10976514.730063388
0.99389	11115402.097635694
0.996444	11274732.443046996
0.999003	11390194.308938947
1.00157	11495634.127736978
1.00414	11611439.487681547
1.00672	11744863.550328279
1.0093	11896092.227252228
1.01189	12019665.893009191
1.01448	12150157.502356132
1.01708	12303868.346125847
1.01969	12443055.365762046
1.0223	12550050.981244879
1.02492	12658970.733192572
1.02754	12796040.241841815
1.03017	12929746.59719226
1.0328	13087036.01945441
1.03544	13233056.255922608
1.03808	13365342.314062072
1.04073	13496742.61777537
1.04339	13629512.663765803
1.04604	13766857.424482455
1.04871	13902149.919947341
1.05138	14031173.66140673
1.05405	14173223.69273361
1.05673	14314781.357040893
1.05941	14447909.404415086
1.0621	14581732.177592548
1.06479	14722752.582886325
1.06749	14862376.09308132
1.07019	14996327.611357704
1.07289	15137187.330590324
1.0756	15276420.261255702
1.07832	15414043.157644052
1.08104	15557930.66708599
1.08376	15697160.903132904
1.08649	15832014.385463621
1.08922	15951610.008629963
1.09195	16060197.488583539
1.09469	16182520.341575595
1.09743	16326693.363894511
1.10018	16283638.902302606
1.10293	16238594.6502603
1.10568	16244258.264654336
1.10844	16612947.427000467
1.1112	16662508.839956593
1.11396	16721630.971427403
1.11673	16853177.51684786
1.1195	17035829.978947327
1.12228	17086016.651389167
1.12505	17442656.798862875
1.12783	17574421.102207724
1.13062	17648261.878630567
1.13341	17301049.85351812
1.1362	17701525.458868567
1.13899	18205112.82584934
1.14178	18297040.6485738
1.14458	18488425.99517078
1.14738	18729970.678576495
1.15019	18637768.02143461
1.153	18368882.90603949
1.1558	18675353.30167814
1.15862	18810158.105304684
1.16143	18927862.12178304
1.16425	19259813.69880265
1.16707	19601742.788891204
1.16989	19585870.589722067
1.17271	19737243.873021558
1.17554	20057012.53618625
1.17837	20311969.850600436
1.1812	20493329.959692314
1.18403	20743764.587654896
1.18686	20852756.653408546
1.1897	20976679.15177498
1.19253	21218263.703362312
1.19537	21400324.970444784
1.19822	21547872.842244674
1.20106	21720975.298516374
1.2039	21845978.85155808
1.20675	22004346.879994433
1.2096	22144096.967159588
1.21245	22282586.7186691
1.2153	22480378.009438556
1.21815	22642078.823913977
1.221	22797537.341356665
1.22385	22954920.477051787
1.22671	23110259.60033748
1.22957	23260260.448225524
1.23242	23401387.880621795
1.23528	23555336.08349037
1.23814	23708227.52643434
1.241	23855024.7558622
1.24387	24004951.911809426
1.24673	24153627.3639159
1.24959	24289235.48175347
1.25245	24394126.473024383
1.25532	24581094.758631736
1.25818	24736551.420499623
1.26105	24869775.169301935
1.26392	25003096.433830384
1.26678	25146363.785346452
1.26965	25288129.07600056
1.27252	25417365.332489334
1.27538	25571664.466928683
1.27825	25708440.44321847
1.28112	25828835.149607103
1.28399	25979766.483831145
1.28686	26112407.262496416
1.28973	26213142.103591044
1.2926	26330359.4242681
1.29546	26495779.70268303
1.29833	26643875.409354478
1.3012	26733844.663520996
1.30407	26855830.6349844
1.30694	26974357.922703777
1.30981	27151121.10838475
1.31267	27262296.544222396
1.31554	27422252.912352215
1.31841	27567933.947382696
1.32128	27621810.202965293
1.32414	27593998.219793234
1.32701	27598081.048193637
1.32987	27442143.864840258
1.33274	26426087.264917336
1.3356	25422918.067949392
1.33847	23063564.013107777
1.34133	21419081.28561144
1.34419	23583986.544987462
1.34705	25066945.547907498
1.34991	24612218.52524123
1.35277	22778127.856733568
1.35563	22107541.17655419
1.35849	23945714.217837375
1.36135	22356516.77423659
1.3642	23807740.171165876
1.36706	25066216.23378913
1.36991	25057272.770358503
1.37277	26541876.69319669
1.37562	27657481.915594034
1.37847	27934986.71482445
1.38132	25516500.60255763
1.38417	22843069.308294225
1.38701	24281349.635471307
1.38986	23748526.744880784
1.39271	23355621.23128061
1.39555	24216956.84349535
1.39839	23402993.522911027
1.40123	24557806.23408468
1.40407	26925378.574155696
1.40691	27933963.19895715
1.40974	26117863.871619456
1.41258	22708880.16394412
1.41541	24919971.60832005
1.41824	26849753.78097939
1.42107	25940707.19918984
1.4239	24141606.558548503
1.42673	26244041.07781792
1.42955	27795507.966395676
1.43237	25129012.160679113
1.43519	25856574.087604754
1.43801	26005603.204021867
1.44083	26682080.903686147
1.44365	28719185.2525702
1.44646	28838058.99822984
1.44927	30003484.154726654
1.45208	30604173.031871703
1.45489	30103543.51525941
1.45769	30758233.166684132
1.4605	31129667.645529404
1.4633	31204605.697141636
1.4661	31502949.22213591
1.4689	31042398.55350689
1.47169	31304527.248558734
1.47449	31465495.06160151
1.47728	31797793.440499593
1.48007	31773110.963980433
1.48286	32285989.575584184
1.48564	32764842.900715824
1.48842	32692413.11196457
1.4912	32807026.760785032
1.49398	32933800.009564392
1.49676	33005451.12236297
1.49953	33477311.312087238
1.5023	33859091.84265912
1.50507	33991623.87931264
1.50784	33931635.32892415
1.51061	33963957.92617632
1.51337	34175199.47509605
1.51613	34380592.089820564
1.51888	34647054.37995458
1.52164	35056456.03937773
1.52439	35234204.4878549
1.52714	35172444.92635716
1.52989	35220708.30572674
1.53263	35415763.531171106
1.53538	35662055.80698326
1.53812	35766290.066982284
1.54086	35832621.54972827
1.54359	35969425.62404704
1.54632	36176931.981967874
1.54905	36292648.42775902
1.55178	36429393.3505458
1.5545	36489492.47005086
1.55723	36518987.97347377
1.55995	36643957.300938234
1.56266	36803879.647448815
1.56538	36975890.15373153
1.56809	37106835.214238934
1.5708	37188607.38657722
1.57351	37231567.815495715
1.57621	37280860.41514266
1.57891	37287743.49318688
1.58161	37437562.776510015
1.5843	37649716.02969615
1.587	37759045.97094336
1.58969	37834695.850814976
1.59238	37928672.765579864
1.59506	38004862.27094023
1.59774	38060244.65546315
1.60042	38140933.45802844
1.6031	38253447.58506717
1.60577	38346227.43269288
1.60844	38422778.35931648
1.61111	38492171.72756538
1.61378	38568639.20735632
1.61644	38658635.94182375
1.6191	38718194.772439554
1.62176	38791779.66177972
1.62441	38907879.54218229
1.62707	38994025.846104264
1.62971	39054078.0750364
1.63236	39108475.96298421
1.635	39195267.23539957
1.63764	39279248.04477995
1.64028	39345419.549015515
1.64292	39418503.12440206
1.64555	39496056.05771855
1.64818	39555138.949687146
1.65081	39597650.92563533
1.65343	39652169.22201702
1.65605	39718815.84791388
1.65867	39759745.62824467
1.66128	39788972.3374789
1.6639	39860247.838993445
1.66651	39923903.15737696
1.66911	39934711.45605604
1.67172	40027432.81965882
1.67432	40159545.64782972
1.67692	40233531.547789864
1.67951	40295461.588415645
1.68211	40352951.55213823
1.6847	40408830.1054973
1.68728	40462012.7743449
1.68987	40469504.979359336
1.69245	40436423.0529152
1.69503	40424775.22261007
1.6976	40476357.83804245
1.70018	40594365.59547797
1.70275	40667495.29207705
1.70531	40674288.93281979
1.70788	40662369.1259413
1.71044	40645984.8330095
1.713	40633499.17111118
1.71556	40650309.12284587
1.71811	40744922.88646063
1.72066	40797002.97475629
1.72321	40790595.34914409
1.72575	40813568.256662026
1.7283	40768330.04606781
1.73084	40640740.2317357
1.73337	40501717.132734716
1.73591	40407840.57003372
1.73844	40361110.08262895
1.74097	40332582.56933177
1.74349	40141796.403028406
1.74602	39912356.65888704
1.74854	39810533.00277109
1.75105	39493897.60655319
1.75357	38970762.624396175
1.75608	39277381.75905128
1.75859	40171059.02598004
1.7611	40677018.77044845
1.7636	40686235.200698346
1.7661	40073048.70268705
1.7686	39299953.267414294
1.7711	38673104.11522198
1.77359	37768077.32155059
1.77608	36205905.33124992
1.77857	35329187.54380489
1.78105	36013005.61275528
1.78354	36594489.85032272
1.78602	35553394.63342461
1.78849	34932566.776952155
1.79097	35661079.85741097
1.79344	36222311.74531365
1.79591	35957542.59121098
1.79837	35248275.94498511
1.80084	33073472.53468102
1.8033	32241474.58000165
1.80576	30107555.922325764
1.80821	28909678.149982102
1.81067	30882197.664256938
1.81312	33902485.50829424
1.81557	32666456.56246268
1.81801	30808075.278700087
1.82046	32569137.530412845
1.8229	35117317.27174563
1.82533	33665317.787001565
1.82777	31078697.43029695
1.8302	31593269.338875636
1.83263	33562817.52154839
1.83506	34831930.716046415
1.83749	35786241.84823431
1.83991	36752476.95661004
1.84233	36387706.50240246
1.84475	35876530.59287848
1.84716	35936073.9957251
1.84957	35631671.65117052
1.85198	33521393.114784095
1.85439	30389461.814568847
1.8568	30325591.972498074
1.8592	31874839.58834176
1.8616	31112609.013311114
1.864	30105155.46804846
1.86639	31808514.005278222
1.86878	34354201.63304932
1.87118	35867990.7814547
1.87356	36713281.9616466
1.87595	36851623.02730118
1.87833	37143973.72991563
1.88071	38117341.87146251
1.88309	37754463.428879075
1.88547	36870082.01693464
1.88784	37275447.93049129
1.89021	37498107.324436486
1.89258	38573950.37222315
1.89494	39272802.11625511
1.89731	38120739.848161526
1.89967	36249343.51431062
1.90203	34240459.93985023
1.90439	33439870.59749166
1.90674	34786906.8863048
1.90909	35640284.08362162
1.91144	34082940.333225995
1.91379	31966279.754669264
1.91613	31670694.28568641
1.91848	33130260.076978173
1.92082	34706969.3480524
1.92315	34260093.22251213
1.92549	32789570.424817055
1.92782	33573652.6454007
1.93015	35227351.72117225
1.93248	36115621.29496848
1.93481	36092230.54251999
1.93713	35115265.20028562
1.93945	34103497.75446144
1.94177	34125252.94000693
1.94409	34509076.91250448
1.94641	34216191.51552415
1.94872	34087777.95788224
1.95103	34594646.8812845
1.95334	33109808.308556996
1.95564	32526226.980255116
1.95795	33660414.9117119
1.96025	34282285.99784279
1.96255	34391602.9982732
1.96484	34698256.00281181
1.96714	35646159.0909191
1.96943	36835983.70099338
1.97172	37254640.02257704
1.97401	36608516.949007645
1.97629	36784797.04215435
1.97858	37774669.59721132
1.98086	38354577.37347439
1.98314	38853720.76175806
1.98541	39111601.8328195
1.98769	38676312.72603492
1.98996	37644147.47648892
1.99223	37290198.86562398
1.9945	37747326.75972976
1.99677	37492051.68286812
1.99903	37399785.622285746
2.00129	38200641.11417195
2.00355	39264590.110706314
2.00581	39689569.67935207
2.00806	39583313.04406884
2.01031	40241913.942669205
2.01256	40750533.3979015
2.01481	40507437.92589531
2.01706	40014704.00349865
2.0193	39888854.26641014
2.02154	40359527.134854235
2.02378	40989005.01582549
2.02602	41225730.911727205
2.02825	41381574.414490014
2.03049	41552387.63746083
2.03272	41753194.754860595
2.03494	41936366.17367229
2.03717	42024982.60119838
2.03939	42082550.64605338
2.04162	42277519.48505241
2.04384	42416800.62044459
2.04605	42574907.14602013
2.04827	42768975.77811515
2.05048	42860639.292937964
2.05269	42652053.391443305
2.0549	42575124.91010254
2.05711	42650273.78797912
2.05931	42799581.56635109
2.06151	42934280.143708795
2.06371	43038277.09740491
2.06591	43123813.37150569
2.06811	43187370.55559841
2.0703	43204752.5049764
2.07249	43171417.901651844
2.07468	43111843.93797698
2.07686	43129967.09958855
2.07905	43175400.69693433
2.08123	43224304.09645386
2.08341	43269712.455836646
2.08559	43322393.52173444
2.08776	43355605.14527299
2.08994	43341246.63179312
2.09211	43302884.43423839
2.09428	43273702.91562442
2.09645	43308310.1545184
2.09861	43329764.412487656
2.10077	43335883.29212313
2.10293	43331006.999055676
2.10509	43323117.796661034
2.10725	43337153.7376186
2.1094	43415400.22995896
2.11155	43484135.30528521
2.1137	43513569.18424478
2.11585	43482785.52451227
2.11799	43461797.09084308
2.12013	43471274.82140422
2.12227	43495730.74344338
2.12441	43518989.82701239
2.12655	43516715.91668474
2.12868	43512521.290839344
2.13081	43517667.272746295
2.13294	43531778.770486996
2.13507	43532595.85964926
2.13719	43506743.47395285
2.13931	43486347.81043806
2.14143	43480890.671962
2.14355	43496301.642719105
2.14567	43493849.311935894
2.14778	43478281.91581948
2.14989	43454575.0542477
2.152	43433274.61395688
2.1541	43430330.66170625
2.15621	43438916.71237996
2.15831	43452957.94427353
2.16041	43457516.815313175
2.16251	43453382.2126564
2.1646	43442867.92603845
2.1667	43426349.872555755
2.16879	43403672.655694984
2.17087	43372719.6564834
2.17296	43338594.04952286
2.17504	43305196.06063625
2.17713	43300751.88749223
2.1792	43314271.29347574
2.18128	43333143.43354956
2.18336	43344350.10838179
2.18543	43342590.107569546
2.1875	43339776.78998924
2.18957	43334548.11313929
2.19163	43316868.769563444
2.1937	43273809.545169406
2.19576	43222098.8570526
2.19782	43168276.54675671
2.19987	43156835.16871962
2.20193	43155510.58038867
2.20398	43161099.30190021
2.20603	43167380.85485284
2.20808	43170346.96610005
2.21012	43166598.15500041
2.21217	43151935.02512491
2.21421	43121649.104712
2.21625	43090199.46840071
2.21828	43060908.95559588
2.22032	43055106.11746284
2.22235	43051407.34496475
2.22438	43043300.29376009
2.22641	43015228.94647685
2.22843	42987847.26880941
2.23046	42965011.567848764
2.23248	42951223.02917893
2.2345	42953198.69468884
2.23651	42955153.26372379
2.23853	42954628.8497117
2.24054	42896209.597507395
2.24255	42814361.49638202
2.24456	42714390.0657478
2.24657	42653719.452328585
2.24857	42633708.938537836
2.25057	42645083.86601304
2.25257	42685166.5622088
2.25457	42708237.47809039
2.25656	42717789.344605826
2.25856	42706724.840540275
2.26055	42653937.621353075
2.26254	42572035.58715741
2.26453	42450085.33366445
2.26651	42359770.505468935
2.2685	42298284.05491283
2.27048	42298647.52124742
2.27246	42331335.245306686
2.27443	42368081.983398244
2.27641	42366630.074056275
2.27838	42301662.51385401
2.28036	42214090.30278193
2.28233	42159612.30964386
2.28429	42169883.04756743
2.28626	42200226.439510725
2.28823	42144712.59068857
2.29019	41849702.682874195
2.29215	41369870.75452356
2.29411	40519208.31329111
2.29607	39630847.31316121
2.29802	38716625.16183269
2.29998	37954326.10540177
2.30193	37272044.28517131
2.30388	36676765.84242682
2.30583	36190771.802925766
2.30778	35916105.19549113
2.30972	35985411.28787826
2.31167	36413683.104783505
2.31361	36838678.94826381
2.31555	37013247.99637369
2.31749	36964574.494947635
2.31943	36808898.25431083
2.32137	36603331.34391237
2.32331	36473535.5712471
2.32524	36404434.11356577
2.32718	36452903.98545473
2.32911	36561107.08007739
2.33104	36753208.866626956
2.33297	37013300.353361
2.3349	37295194.78510599
2.33683	37599654.812163144
2.33876	37921141.59787114
2.34068	38254454.57936602
2.34261	38660208.303360455
2.34453	39059563.57671244
2.34646	39456104.55348488
2.34838	39447480.29861892
2.3503	39288989.17912937
2.35223	38879933.431659274
2.35415	38509549.49652446
2.35607	38174267.09899294
2.35799	38097740.53205138
2.35991	38196258.78732001
2.36183	38506038.03491108
2.36375	38564596.59305164
2.36566	38482193.57062623
2.36758	38072827.5444512
2.3695	38070278.18708171
2.37142	38328508.745613255
2.37334	38638793.096508905
2.37526	38534059.24437659
2.37718	37737174.16562336
2.3791	37045977.09017409
2.38101	36504467.2190258
2.38293	36775453.5333727
2.38485	37331672.054801494
2.38677	38179127.67188217
2.3887	38889874.11430556
2.39062	39397396.72142192
2.39254	39353766.385808535
2.39446	38848337.620163344
2.39639	38042709.98342277
2.39831	37280480.81693265
2.40024	36692365.89932583
2.40216	36438898.08542097
2.40409	36439282.00386428
2.40602	36546161.97050018
2.40795	36679056.22383802
2.40989	36734348.71000193
2.41182	36693564.396467336
2.41376	36708616.28975723
2.4157	36776259.86808194
2.41764	37018674.98399255
2.41958	37187997.035205424
2.42152	37297888.27680428
2.42347	37114058.04828737
2.42542	36859187.36143573
2.42737	36493277.03869432
2.42932	36176353.28287606
2.43128	35892679.702467084
