#wavelength	surface flux
0.8	83943163.32590072
0.8002000000000001	84933274.0742997
0.8004000500000003	84545260.6894668
0.8006001500125003	84143227.39036922
0.8008003000500035	83741093.58294682
0.8010005001250161	83338859.24207239
0.8012007502500472	82936524.34261332
0.8014010504376099	83378620.16470417
0.8016014007002193	84103718.69663979
0.8018018010503944	84828998.50320838
0.8020022515006572	85554459.62972894
0.8022027520635323	86280102.1215305
0.8024033027515483	86901192.61463776
0.8026039035772362	87419803.72100542
0.8028045545531306	87938544.4801497
0.8030052556917691	88457414.924484
0.803206007005692	88976415.08642894
0.8034068085074435	89430058.62310271
0.8036076602095705	89700247.65482171
0.8038085621246229	89970504.23379843
0.8040095142651542	90240828.37692006
0.8042105166437206	90511220.10107736
0.8044115692728815	90764457.1150696
0.8046126721651998	90276995.62356071
0.8048138253332411	89789412.26667935
0.8050150287895745	89301707.0139583
0.805216282546772	88813879.8349242
0.8054175866174087	88325930.69909562
0.8056189410140631	87945019.23063686
0.8058203457493168	87594345.66679096
0.8060218008357541	87243584.43455455
0.8062233062859632	86892735.51200992
0.8064248621125346	86541798.87723488
0.806626468328063	86380401.34677432
0.8068281249451449	86381829.98122546
0.8070298319763813	86383258.97283521
0.8072315894343755	86384688.32169285
0.8074333973317341	86386118.02788773
0.8076352556810671	86503145.27528712
0.8078371644949874	86898463.50344677
0.8080391237861113	87293880.56116354
0.8082411335670578	87689396.47314452
0.8084431938504498	88085011.26410389
0.8086453046489125	88476692.94639696
0.8088474659750746	88793403.70259412
0.8090496778415686	89110193.63648073
0.809251940261029	89427062.76785061
0.8094542532460944	89744011.11650358
0.8096566168094059	90061038.70224337
0.8098590309636085	89902305.31350522
0.8100614957213493	89632157.94989677
0.8102640110952797	89361943.04944737
0.8104665770980536	89091660.59527275
0.8106691937423283	88821310.57048449
0.8108718610407639	88671825.59249257
0.8110745790060241	88614774.08139534
0.8112773476507757	88557708.30742031
0.8114801669876885	88500628.2670018
0.8116830370294355	88443533.9565732
0.8118859577886929	88616695.69586577
0.8120889292781401	89268182.25631
0.8122919515104597	89919831.6883943
0.8124950244983374	90571644.03283665
0.8126981482544621	91223619.33036502
0.8129013227915257	91882104.7172054
0.8131045481222237	92613429.93910031
0.8133078242592543	93344937.99230076
0.8135111512153191	94076628.92251432
0.813714529003123	94808502.77546053
0.8139179576353739	95540559.59687008
0.8141214371247829	95777441.13240285
0.8143249674840641	95918323.58209574
0.814528548725935	96059241.25240096
0.8147321808631167	96200194.15212396
0.8149358639083326	96341182.29007185
0.8151395978743097	95968772.39457175
0.8153433827737784	95249372.33050112
0.8155472186194719	94529792.41641472
0.8157511054241268	93810032.60734995
0.815955043200483	93090092.85833241
0.8161590319612831	92212138.0980207
0.8163630717192736	91044750.40251626
0.8165671624872033	89877070.86008923
0.8167713042778252	88709099.39777544
0.8169754971038948	87540835.9425955
0.8171797409781707	86011964.2493199
0.8173840359134155	81606194.74189939
0.8175883819223938	77199323.7921071
0.8177927790178745	72791351.12457484
0.8179972272126291	68382276.46387455
0.8182017265194322	63972099.534513526
0.8184062769510622	62982970.26548263
0.8186108785203001	62520211.98025127
0.8188155312399301	62057338.00544923
0.8190202351227402	61594348.31215297
0.819224990181521	61131242.871433675
0.8194297964290664	64053196.98419259
0.8196346538781738	69016290.01089291
0.8198395625416434	73980623.81084794
0.8200445224322789	78946198.69425505
0.820249533562887	83913014.97138155
0.8204545959462778	87592076.7555605
0.8206597095952644	89197453.72441123
0.8208648745226633	90803232.0375054
0.8210700907412941	92409411.79517761
0.8212753582639793	94015993.0977876
0.8214806771035456	95509754.77474104
0.8216860472728215	96306308.92024723
0.8218914687846397	97103062.20428984
0.822096941651836	97900014.67665388
0.822302465887249	98697166.38713555
0.8225080415037209	99494517.38554527
0.8227136685140968	100522092.78675105
0.8229193469312254	101576037.73419118
0.8231250767679583	102630246.16786851
0.8233308580371503	103684718.1536537
0.8235366907516598	104739453.7574361
0.8237425749243477	105676260.60271081
0.8239485105680789	106550657.57746837
0.824154497695721	107425273.15146905
0.824360536320145	108300107.3793634
0.8245666264542252	109175160.31581469
0.8247727681108388	109621989.39066753
0.8249789613028664	109455319.69566046
0.8251852060431922	109288608.3332295
0.825391502344703	109121855.292958
0.8255978502202894	108955060.56442629
0.8258042496828445	108861731.08636518
0.8260107007452654	109125369.95114233
0.8262172034204517	109389074.7256354
0.8264237577213068	109652845.42632216
0.8266303636607373	109916682.06968422
0.8268370212516525	110180584.67220698
0.8270437305069654	110143805.41877925
0.8272504914395923	110083515.48210284
0.8274573040624523	110023210.47294225
0.8276641683884679	109962890.3875294
0.8278710844305652	109902555.22209515
0.8280780522016729	110333521.62640895
0.8282850717147234	110989175.70481886
0.8284921429826521	111644993.6967477
0.8286992660183978	112300975.64317505
0.8289064408349024	112957121.58508854
0.8291136674451112	113719353.3472109
0.8293209458619727	114615337.72887762
0.8295282760984382	115511546.10663855
0.829735658167463	116407978.53649497
0.8299430920820048	117304635.0744577
0.8301505778550254	118040206.1529996
0.8303581154994891	118132127.17914082
0.8305657050283641	118224071.18553865
0.8307733464546212	118316038.17793803
0.8309810397912352	118408028.16208564
0.8311887850511829	118500041.1437291
0.8313965822474458	119333350.13804872
0.8316044313930077	120201273.86113232
0.8318123325008561	121069414.5651475
0.8320202855839813	121937772.30433828
0.8322282906553774	122806347.13296391
0.8324363477280413	123636892.9558559
0.8326444568149735	124452248.65036622
0.8328526179291771	125267808.1837992
0.8330608310836596	126083571.60711679
0.8332690962914304	126899538.97128913
0.8334774135655034	127247527.15631734
0.833685782918895	127072626.36160825
0.8338942043646247	126897681.8417006
0.834102677915716	126722693.58566283
0.834311203585195	126547661.58256121
0.8345197813860912	126710054.15784705
0.8347284113314379	128008437.31026234
0.8349370934342709	129307145.05846499
0.8351458277076294	130606177.48360312
0.8353546141645565	131905534.6668497
0.8355634528180977	133205216.68939154
0.8357723436813022	131673076.23657149
0.8359812867672226	130105582.94464494
0.8361902820889144	128537697.77939619
0.8363993296594368	126969420.64285569
0.8366084294918518	125400751.4370305
0.8368175815992247	124392593.12869777
0.8370267859946247	123577363.55742262
0.8372360426911234	122761930.17875493
0.8374453517017962	121946292.94174263
0.8376547130397217	121130451.7954212
0.8378641267179816	121218834.47766139
0.8380735927496613	122204666.7288912
0.8382831111478488	123190745.43818323
0.8384926819256358	124177070.66715208
0.8387023050961173	125163642.477429
0.8389119806723914	125770222.95649974
0.8391217086675596	125306841.17474683
0.8393314890947265	124843343.54754883
0.8395413219670003	124379730.04594398
0.8397512072974922	123916000.6409634
0.8399611450993165	123458495.46381402
0.8401711353855914	123315725.99915434
0.8403811781694378	123172920.84212855
0.8405912734639802	123030079.98381345
0.8408014212823464	122887203.41528371
0.8410116216376671	122744291.12761185
0.8412218745430766	122561964.68128611
0.8414321800117124	122368135.04961076
0.8416425380567154	122174256.96052742
0.8418529486912297	121980330.40192175
0.8420634119284025	121786355.36167659
0.8422739277813847	123120582.99826503
0.8424844962633302	125801592.7749041
0.842695117387396	128483272.80398393
0.8429057911667428	131165623.25307113
0.8431165176145345	133848644.28977188
0.8433272967439382	135489863.6438384
0.8435381285681244	134588613.94895706
0.8437490131002665	133687138.94165221
0.8439599503535415	132785438.56559609
0.84417094034113	131883512.76444529
0.8443819830762154	130908819.57432768
0.8445930785719846	128472519.78257075
0.8448042268416277	126035610.91586722
0.8450154278983382	123598092.82194734
0.8452266817553128	121159965.34850416
0.8454379884257517	118721228.34319231
0.8456493479228583	119170876.09724998
0.845860760259839	120316340.8464978
0.846072225449904	121462091.96193293
0.8462837435062666	122608129.51514716
0.8464953144421433	123754453.57775036
0.8467069382707537	124630795.58380301
0.8469186150053215	125296690.57280822
0.847130344659073	125962752.03556089
0.8473421272452377	126628980.01367858
0.8475539627770492	127295374.54879148
0.8477658512677435	127705963.11488856
0.8479777927305605	127573130.2877275
0.8481897871787432	127440264.25235969
0.848401834625538	127307365.00048296
0.8486139350841944	127174432.52379334
0.8488260885679657	127034448.75320914
0.8490382950901076	126808882.31725611
0.8492505546638802	126583259.48969397
0.8494628673025462	126357580.25642501
0.8496752330193721	126131844.6033474
0.8498876518276269	125906052.51635684
0.8501001237405839	125685758.35711537
0.8503126487715191	125466517.87528844
0.850525226933712	125247222.5833412
0.8507378582404455	125027872.46757095
0.8509505427050057	124808467.51427163
0.8511632803406821	125495355.02092037
0.8513760711607672	126803096.19020736
0.8515889151785576	128111164.2947887
0.8518018124073523	129419559.4163951
0.8520147628604541	130728281.63678113
0.8522277665511693	132378640.02092387
0.8524408234928071	134660620.7026853
0.8526539336986805	136943171.87961775
0.8528670971821053	139226293.69434458
0.8530803139564007	141509986.28952244
0.8532935840348901	143623967.69259253
0.8535069074308987	144300358.11331338
0.8537202841577566	144976917.63164
0.8539337142287962	145653646.28984627
0.8541471976573534	146330544.13021666
0.8543607344567677	147007611.19504726
0.8545743246403821	146836665.48849326
0.8547879682215422	146530976.04361808
0.8550016652135977	146225210.1763817
0.8552154156299011	145919367.8676785
0.8554292194838088	145613449.0983979
0.8556430767886797	144724977.30499196
0.855856987557877	143482619.01997283
0.8560709518047664	142239950.14538324
0.8562849695427177	140996970.60357454
0.8564990407851035	139753680.31688002
0.8567131655452999	138885277.56110463
0.8569273438366862	138631432.72827563
0.8571415756726455	138377524.4342384
0.8573558610665638	138123552.66312757
0.8575702000318304	137869517.39907423
0.8577845925818384	138320464.5595464
0.857999038729984	143175501.09758598
0.8582135384896665	148031751.39475894
0.858428091874289	152889215.7545065
0.8586426988972576	157747894.48034266
0.8588573595719821	162607787.87586197
0.8590720739118751	160848003.02287105
0.8592868419303532	158307155.12964946
0.8595016636408359	155765672.02445453
0.8597165390567462	153223553.54848418
0.8599314681915105	150680799.54289415
0.8601464510585584	148020542.42263377
0.860361487671323	145297587.82409406
0.8605765780432408	142573952.48690552
0.8607917221877518	139849636.2408804
0.8610069201182988	137124638.91579455
0.8612221718483286	130844890.02679877
0.8614374773912907	119439897.86940587
0.8616528367606385	108032054.46397671
0.8618682499698288	96621359.09768897
0.8620837170323213	85207811.05756156
0.8622992379615795	75526638.05989091
0.8625148127710699	74430025.46815154
0.8627304414742627	73333138.72326413
0.8629461240846313	72235977.75669034
0.8631618606156526	71138542.4998748
0.8633776510808066	70040832.88424526
0.8635934954935769	79541483.53674726
0.8638093938674504	89913298.60697588
0.8640253462159173	100287706.63097173
0.8642413525524714	110664708.25697334
0.8644574128906095	121044304.13337928
0.8646735272438323	119914428.23634668
0.8648896956256433	113430839.88344637
0.8651059180495498	106945630.63345745
0.8653221945290621	100458800.08116226
0.8655385250776946	93970347.82121989
0.8657549097089641	91578922.0628391
0.8659713484363913	94434069.66168648
0.8661878412735006	97289931.0474349
0.866404388233819	100146506.39852937
0.8666209893308775	103003795.89346029
0.8668376445782103	105250332.1256508
0.8670543539893549	105001720.37135606
0.8672711175778525	104753046.46412256
0.8674879353572469	104504310.38841255
0.8677048073410862	104255512.1286835
0.8679217335429217	104006651.66938938
0.8681387139763074	102736246.65635733
0.8683557486548015	101414779.40194476
0.8685728375919655	100092981.78071694
0.8687899808013633	98770853.7100867
0.8690071782965637	97448395.10743709
0.869224430091138	95781314.11704594
0.8694417361986609	93973724.46917166
0.8696590966327107	92165682.9238858
0.869876511406869	90357189.36821353
0.8700939805347206	88548243.68915322
0.8703115040298544	87156802.33201295
0.870529081905862	86242858.37104495
0.8707467141763385	85328685.924087
0.8709644008548827	84414284.93401738
0.8711821419550964	83499655.3437008
0.8713999374905854	83126178.6543698
0.871617787474958	84621104.19217898
0.8718356919218269	86116403.46137396
0.8720536508448075	87612076.55538633
0.8722716642575187	89108123.56767134
0.8724897321735832	90604544.59171009
0.8727078546066265	91540628.17058437
0.8729260315702784	92468415.50832106
0.873144263078171	93396434.79289119
0.8733625491439405	94324686.08228256
0.8735808897812266	95253169.43449664
0.8737992850036719	94924335.47457194
0.874017734824923	94150015.97459438
0.8742362392586293	93375502.89474213
0.874454798318444	92600796.18661995
0.8746734120180236	91825895.80182081
0.8748920803710283	91346327.60732779
0.875110803391121	91163614.90606861
0.8753295810919689	90980856.52663401
0.875548413487242	90798052.45760456
0.8757673005906139	90615202.68755783
0.8759862424157616	91206924.53361326
0.8762052389763657	94040186.1065679
0.8764242902861098	96874155.99491383
0.8766433963586814	99708834.3757326
0.8768625572077712	102544221.42614745
0.8770817728470732	105369353.93975897
0.8773010432902849	107339199.4108855
0.8775203685511077	109309537.34338263
0.8777397486432454	111280367.86036043
0.8779591835804065	113251691.08496986
0.8781786733763015	115223507.14038286
0.8783982180446457	111847454.63007203
0.878617817599157	106879520.52304678
0.8788374720535569	101910344.43249711
0.8790571814215703	96939926.04792604
0.8792769457169257	91968265.05875874
0.879496764953355	89056255.79744403
0.8797166391445934	87996398.17995581
0.8799365683043796	86936275.59806314
0.8801565524464557	85875887.98552501
0.8803765915845676	84815235.27608275
0.8805966857324639	85042836.74029496
0.880816834903897	88506869.39671673
0.881037039112623	91971768.06130397
0.8812572983724012	95437532.95055704
0.8814776126969944	98904164.28103393
0.8816979821001687	102205678.89473495
0.8819184065956938	101600742.31068052
0.8821388861973429	100995654.49247946
0.8823594209188923	100390415.40232442
0.882580010774122	99785025.00239712
0.8828006557768155	99179483.2548695
0.8830213559407598	101758051.60868439
0.8832421112797452	105138138.69104975
0.8834629218075651	108519070.79518369
0.8836837875380171	111900848.13234468
0.8839047084849018	115283470.91384049
0.884125684662023	113989082.41220611
0.8843467160831886	108945665.40806058
0.8845678027622095	103900987.54966399
0.8847889447129001	98855048.52180187
0.8850101419490785	93807848.0091837
0.8852313944845657	92643761.71774967
0.885452702333187	99981807.09407733
0.8856740655087704	107321686.981748
0.8858954840251476	114663401.83938862
0.8861169578961539	122006952.12574024
0.886338487135628	128391134.4603829
0.886560071757412	121985782.3085002
0.8867817117753515	115578828.81857967
0.8870034072032955	109170273.5902838
0.8872251580550963	102760116.22318834
0.8874469643446101	96348356.31674717
0.8876688260856963	96451425.11833875
0.8878907432922178	97903178.72963403
0.8881127159780409	99355295.27933119
0.8883347441570356	100807774.85816754
0.8885568278430749	102260617.55689707
0.8887789670500358	102226716.49180213
0.8890011617917983	101137892.45700055
0.8892234120822464	100048796.21618979
0.8894457179352669	98959427.70131971
0.8896680793647509	97869786.84432003
0.8898904963845921	97440391.65212992
0.8901129690086883	98271174.98503368
0.8903354972509405	99102166.01377046
0.8905580811252535	99933364.79026507
0.8907807206455347	100764771.36645268
0.8910034158256963	101468351.95865098
0.8912261666796527	101027874.68313758
0.8914489732213227	100587287.2883052
0.8916718354646282	100146589.74662365
0.8918947534234944	99705782.03055713
0.8921177271118502	99264864.11256187
0.8923407565436284	100221740.9492684
0.8925638417327644	101406893.31892972
0.8927869826931977	102592341.97668386
0.8930101794388711	103778086.99660234
0.8932334319837308	104964128.45277563
0.8934567403417267	106835609.72549862
0.8936801045268123	109133294.7816645
0.8939035245529441	111431554.25909288
0.8941270004340824	113730388.3013915
0.894350532184191	116029797.05220011
0.8945741198172371	117512933.34196123
0.8947977633471915	117641796.5833817
0.8950214627880284	117770692.0406125
0.8952452181537254	117899619.72170755
0.8954690294582639	118028579.63472293
0.8956928967156286	118022462.9450897
0.8959168199398075	117139536.46723726
0.8961407991447926	116256389.25776513
0.8963648343445789	115373021.26149064
0.896588925553165	114489432.4232176
0.8968130727845534	113605622.68773487
0.8970372760527496	116181159.01648723
0.8972615353717629	119190200.73239471
0.8974858507556059	122199994.70873152
0.8977102222182949	125210541.13356158
0.8979346497738496	128221840.19499955
0.8981591334362931	129905237.72361739
0.8983836732196523	130862446.2748321
0.8986082691379572	131819894.12818398
0.8988329212052417	132777581.3434992
0.8990576294355432	133735507.98061907
0.8992823938429022	132384017.01262717
0.8995072144413631	127598021.59631795
0.8997320912449734	122810829.68115635
0.8999570242677847	118022440.96801709
0.9001820135238516	113232855.1576992
0.9004070590272328	109298765.37042521
0.9006321607919896	109854771.23799774
0.9008573188321878	110410916.10703772
0.9010825331618959	110967200.01229471
0.9013078037951865	111523622.98852809
0.9015331307461353	112080185.07050525
0.9017585140288219	113412078.13802771
0.9019839536573292	114811073.46172403
0.9022094496457435	116210418.53425024
0.9024350020081551	117610113.44304618
0.9026606107586572	119010158.27556887
0.902886275911347	120616497.81428981
0.9031119974803249	122322518.6159578
0.9033377754796951	124028965.92282625
0.903563609923565	125735839.84152064
0.903789500826046	127443140.47869584
0.9040154482012526	128387809.04030535
0.904241452063303	128344237.58942741
0.9044675124263188	128300655.24568678
0.9046936293044254	128257062.00636022
0.9049198027117517	128213457.86872381
0.9051460326624297	127956144.01444496
0.9053723191705955	126788786.56081294
0.9055986622503881	125621137.26781861
0.9058250619159507	124453196.062501
0.9060515181814298	123284962.8718813
0.9062780310609752	122116437.62296478
0.9065046005687405	122881489.38672693
0.906731226718883	123754617.25545558
0.9069579095255627	124627963.40615027
0.907184649002944	125501527.8933827
0.907411445165195	126375310.77173781
0.9076382980264862	124355054.5412855
0.907865207600993	121132313.44479665
0.9080921739028933	117908766.66303462
0.9083191969463691	114684413.99457768
0.9085462767456058	111459255.23795204
0.9087734133147922	112566048.23991482
0.9090006066681211	118677507.19144537
0.909227856819788	124790494.00770575
0.9094551637839932	130905009.0706786
0.9096825275749393	137021052.7624153
0.9099099482068329	141067582.9755573
0.9101374256938848	137754603.90243918
0.9103649600503083	134440796.5845543
0.9105925512903209	131126160.81484064
0.9108201994281437	127810696.38618107
0.9110479044780008	124494403.0914181
0.9112756664541204	125232660.76407395
0.911503485370734	126063929.93533538
0.9117313612420768	126895406.92388962
0.9119592940823873	127727091.78169075
0.912187283905908	128558984.56070659
0.9124153307268845	128359502.45476444
0.9126434345595664	127785566.19842318
0.9128715954182063	127211486.45801836
0.9130998133170609	126637263.19767818
0.9133280882703902	126062896.38152292
0.913556420292458	125850174.0224492
0.9137848093975312	126010515.83944272
0.9140132555998806	126170897.74189048
0.9142417589137806	126331319.73981383
