#wavelength	surface flux
0.8	2232175.046077517
0.8002000000000001	2236129.4638357856
0.8004000500000003	2240022.3536935523
0.8006001500125003	2243915.585295528
0.8008003000500035	2247809.790205405
0.8010005001250161	2251704.968666511
0.8012007502500472	2255601.120922227
0.8014010504376099	2259363.014383981
0.8016014007002193	2263080.549451883
0.8018018010503944	2266799.0139035517
0.8020022515006572	2270518.4079713346
0.8022027520635323	2274238.7318876316
0.8024033027515483	2277965.532682991
0.8026039035772362	2281698.700824495
0.8028045545531306	2285432.802258034
0.8030052556917691	2289167.8372169333
0.803206007005692	2292903.805934569
0.8034068085074435	2296703.8695498016
0.8036076602095705	2300681.93246355
0.8038085621246229	2304660.989893024
0.8040095142651542	2308641.0420868574
0.8042105166437206	2312622.089293738
0.8044115692728815	2316591.067493101
0.8046126721651998	2319999.1206960585
0.8048138253332411	2323408.025912314
0.8050150287895745	2326817.7833548766
0.805216282546772	2330228.393236799
0.8054175866174087	2333639.85577119
0.8056189410140631	2337220.5879097315
0.8058203457493168	2340849.888091567
0.8060218008357541	2344480.0955984434
0.8062233062859632	2348111.2106571984
0.8064248621125346	2351743.2334947158
0.806626468328063	2355628.7366202255
0.8068281249451449	2359732.1401572586
0.8070298319763813	2363836.5695451815
0.8072315894343755	2367942.025040448
0.8074333973317341	2372048.50689959
0.8076352556810671	2375846.1159313913
0.8078371644949874	2378898.694647101
0.8080391237861113	2381952.036507491
0.8082411335670578	2385006.1417033444
0.8084431938504498	2388061.0104254996
0.8086453046489125	2391101.8973381333
0.8088474659750746	2393869.0091832257
0.8090496778415686	2396636.812806283
0.809251940261029	2399405.3083802443
0.8094542532460944	2402174.496078101
0.8096566168094059	2404944.3760728794
0.8098590309636085	2408117.820111949
0.8100614957213493	2411386.3528935486
0.8102640110952797	2414655.702808344
0.8104665770980536	2417925.870060619
0.8106691937423283	2421196.8548547085
0.8108718610407639	2424698.880131614
0.8110745790060241	2428377.8201579796
0.8112773476507757	2432057.679919355
0.8114801669876885	2435738.45964567
0.8116830370294355	2439420.159566914
0.8118859577886929	2443096.9558656355
0.8120889292781401	2446762.574562092
0.8122919515104597	2450429.109663222
0.8124950244983374	2454096.561398128
0.8126981482544621	2457764.9299959666
0.8129013227915257	2461452.6149044293
0.8131045481222237	2465351.8955986155
0.8133078242592543	2469252.1511129756
0.8135111512153191	2473153.381691213
0.813714529003123	2477055.5875770957
0.8139179576353739	2480958.7690144507
0.8141214371247829	2486899.8527747407
0.8143249674840641	2493237.416120401
0.814528548725935	2499576.563856894
0.8147321808631167	2505917.29638033
0.8149358639083326	2512259.6140868943
0.8151395978743097	2517349.457100798
0.8153433827737784	2521593.276839808
0.8155472186194719	2525838.1575337513
0.8157511054241268	2530084.099447868
0.815955043200483	2534331.1028474653
0.8161590319612831	2538468.71495152
0.8163630717192736	2542404.9697147612
0.8165671624872033	2546342.208541689
0.8167713042778252	2550280.4316783273
0.8169754971038948	2554219.6393707516
0.8171797409781707	2557994.1970742512
0.8173840359134155	2560447.3845832464
0.8175883819223938	2562901.1853891164
0.8177927790178745	2565355.5996451895
0.8179972272126291	2567810.627504827
0.8182017265194322	2570266.2691214266
0.8184062769510622	2574178.254144024
0.8186108785203001	2578315.2323863734
0.8188155312399301	2582453.244873278
0.8190202351227402	2586592.2918633083
0.819224990181521	2590732.3736150838
0.8194297964290664	2595853.4563696086
0.8196346538781738	2601566.4921523887
0.8198395625416434	2607280.956194112
0.8200445224322789	2612996.848851849
0.820249533562887	2618714.1704827477
0.8204545959462778	2623912.10025012
0.8206597095952644	2628273.081848617
0.8208648745226633	2632635.1536925174
0.8210700907412941	2636998.316054378
0.8212753582639793	2641362.5692068245
0.8214806771035456	2645347.2352266586
0.8216860472728215	2646987.455928723
0.8218914687846397	2648628.086685963
0.822096941651836	2650269.127600893
0.822302465887249	2651910.578776051
0.8225080415037209	2653552.4403140033
0.8227136685140968	2658425.10642831
0.8229193469312254	2663665.7079556515
0.8231250767679583	2668907.619633377
0.8233308580371503	2674150.841789019
0.8235366907516598	2679395.3747502035
0.8237425749243477	2684651.7573464825
0.8239485105680789	2689915.0396296643
0.824154497695721	2695179.6377334134
0.824360536320145	2700445.551986689
0.8245666264542252	2705712.7827185285
0.8247727681108388	2710810.982414264
0.8249789613028664	2715666.486485984
0.8251852060431922	2720523.204433726
0.825391502344703	2725381.1365609528
0.8255978502202894	2730240.2831712156
0.8258042496828445	2734958.515297676
0.8260107007452654	2738987.6661709305
0.8262172034204517	2743017.8243318996
0.8264237577213068	2747048.99003241
0.8266303636607373	2751081.1635243464
0.8268370212516525	2755114.3450596547
0.8270437305069654	2758356.711925268
0.8272504914395923	2761538.0135640516
0.8274573040624523	2764720.1105282456
0.8276641683884679	2767903.0030166777
0.8278710844305652	2771086.6912282356
0.8280780522016729	2775156.5731526064
0.8282850717147234	2779632.1862380076
0.8284921429826521	2784108.9182266756
0.8286992660183978	2788586.769398344
0.8289064408349024	2793065.740032803
0.8291136674451112	2797266.9312036205
0.8293209458619727	2801117.4947485467
0.8295282760984382	2804969.020934354
0.829735658167463	2808821.5100017125
0.8299430920820048	2812674.9621913326
0.8301505778550254	2816569.4718614127
0.8303581154994891	2820624.9825225566
0.8305657050283641	2824681.5070613697
0.8307733464546212	2828739.0457313145
0.8309810397912352	2832797.5987859336
0.8311887850511829	2836857.166478808
0.8313965822474458	2842540.254549293
0.8316044313930077	2848300.072454028
0.8318123325008561	2854061.3303132444
0.8320202855839813	2859824.0284869224
0.8322282906553774	2865588.1673351447
0.8324363477280413	2870219.4587322883
0.8326444568149735	2874395.247409519
0.8328526179291771	2878572.0800339137
0.8330608310836596	2882749.9568664706
0.8332690962914304	2886928.8781682304
0.8334774135655034	2890960.3707969375
0.833685782918895	2894827.0216314653
0.8338942043646247	2898694.6391286994
0.834102677915716	2902563.22353031
0.834311203585195	2906432.7750780187
0.8345197813860912	2910697.0679010153
0.8347284113314379	2916287.9065263965
0.8349370934342709	2921880.1428614305
0.8351458277076294	2927473.7772555416
0.8353546141645565	2933068.8100582603
0.8355634528180977	2938665.2416191776
0.8357723436813022	2940087.903339596
0.8359812867672226	2941459.3680273164
0.8361902820889144	2942831.1755812084
0.8363993296594368	2944203.326086989
0.8366084294918518	2945575.8196303966
0.8368175815992247	2950120.028546806
0.8370267859946247	2955757.626691865
0.8372360426911234	2961396.634236458
0.8374453517017962	2967037.051532937
0.8376547130397217	2972678.87893374
0.8378641267179816	2977578.224644708
0.8380735927496613	2981740.6608071974
0.8382831111478488	2985904.1375787253
0.8384926819256358	2990068.6552194436
0.8387023050961173	2994234.213989576
0.8389119806723914	2998419.911302234
0.8391217086675596	3002660.400667495
0.8393314890947265	3006901.9501550947
0.8395413219670003	3011144.5600300664
0.8397512072974922	3015388.23055751
0.8399611450993165	3019671.3021305203
0.8401711353855914	3025859.401522905
0.8403811781694378	3032049.0479401364
0.8405912734639802	3038240.2417689734
0.8408014212823464	3044432.9833962703
0.8410116216376671	3050627.2732089735
0.8412218745430766	3056492.8935936056
0.8414321800117124	3062263.8996878504
0.8416425380567154	3068036.3485336215
0.8418529486912297	3073810.240491606
0.8420634119284025	3079585.5759225744
0.8422739277813847	3084644.300309425
0.8424844962633302	3089071.6551666707
0.842695117387396	3093500.1168626244
0.8429057911667428	3097929.6856740024
0.8431165176145345	3102360.3618775853
0.8433272967439382	3106710.149047341
0.8435381285681244	3110861.0109678744
0.8437490131002665	3115012.9106038865
0.8439599503535415	3119165.8482148047
0.84417094034113	3123319.824060129
0.8443819830762154	3127514.414331594
0.8445930785719846	3132507.3137876554
0.8448042268416277	3137501.461468578
0.8450154278983382	3142496.85768642
0.8452266817553128	3147493.502753316
0.8454379884257517	3152491.396981479
0.8456493479228583	3157605.906143168
0.845860760259839	3162749.4753214177
0.846072225449904	3167894.330391962
0.8462837435062666	3173040.4716762747
0.8464953144421433	3178187.899495912
0.8467069382707537	3183023.1626416612
0.8469186150053215	3187615.3087615725
0.847130344659073	3192208.602918015
0.8473421272452377	3196803.045397992
0.8475539627770492	3201398.636488593
0.8477658512677435	3206119.198636959
0.8479777927305605	3211103.860977447
0.8481897871787432	3216089.7694835193
0.848401834625538	3221076.924466721
0.8486139350841944	3226065.3262386653
0.8488260885679657	3231024.3102672277
0.8490382950901076	3235610.74048155
0.8492505546638802	3240198.317303428
0.8494628673025462	3244787.0410195095
0.8496752330193721	3249376.9119165274
0.8498876518276269	3253967.930281263
0.8501001237405839	3258340.1047649346
0.8503126487715191	3262669.458098075
0.850525226933712	3266999.8937695464
0.8507378582404455	3271331.412049935
0.8509505427050057	3275664.013209897
0.8511632803406821	3280400.982821637
0.8513760711607672	3285415.313258988
0.8515889151785576	3290430.8972789557
0.8518018124073523	3295447.7351949248
0.8520147628604541	3300465.8273203694
0.8522277665511693	3305578.5431218175
0.8524408234928071	3310865.212064447
0.8526539336986805	3316153.2026743134
0.8528670971821053	3321442.515281833
0.8530803139564007	3326733.1502174977
0.8532935840348901	3332019.5803831206
0.8535069074308987	3337260.65019566
0.8537202841577566	3342503.030275658
0.8539337142287962	3347746.7209506757
0.8541471976573534	3352991.722548359
0.8543607344567677	3358238.035396443
0.8545743246403821	3363540.8388338094
0.8547879682215422	3368853.7310296553
0.8550016652135977	3374167.9514485495
0.8552154156299011	3379483.5004225485
0.8554292194838088	3384800.3782837954
0.8556430767886797	3389897.9654867165
0.855856987557877	3394862.8725235686
0.8560709518047664	3399829.0207871767
0.8562849695427177	3404796.410587853
0.8564990407851035	3409765.0422359803
0.8567131655452999	3414747.6880957284
0.8569273438366862	3419752.5070531853
0.8571415756726455	3424758.577215383
0.8573558610665638	3429765.898895122
0.8575702000318304	3434774.4724052767
0.8577845925818384	3439846.42720119
0.857999038729984	3445307.7314976766
0.8582135384896665	3450770.4011202357
0.858428091874289	3456234.436410201
0.8586426988972576	3461699.837708987
0.8588573595719821	3467166.6053580996
0.8590720739118751	3472048.800635716
0.8592868419303532	3476863.1324957972
0.8595016636408359	3481678.6679388434
0.8597165390567462	3486495.4072657484
0.8599314681915105	3491313.350777487
0.8601464510585584	3495798.8417986855
0.860361487671323	3500108.3513987036
0.8605765780432408	3504418.9383761208
0.8607917221877518	3508730.6030002856
0.8610069201182988	3513043.3455406055
0.8612221718483286	3511205.673137001
0.8614374773912907	3500499.3314868095
0.8616528367606385	3489790.313251208
0.8618682499698288	3479078.617761041
0.8620837170323213	3468364.2443470033
0.8622992379615795	3459686.0528358915
0.8625148127710699	3461095.231247655
0.8627304414742627	3462504.7619540216
0.8629461240846313	3463914.645043065
0.8631618606156526	3465324.8806028804
0.8633776510808066	3466735.468721586
0.8635934954935769	3488352.9762769574
0.8638093938674504	3511632.2570352834
0.8640253462159173	3534917.3576137987
0.8642413525524714	3558208.2794674584
0.8644574128906095	3581505.024051576
0.8646735272438323	3586891.8552220766
0.8648896956256433	3583948.718694955
0.8651059180495498	3581004.846383702
0.8653221945290621	3578060.238104374
0.8655385250776946	3575114.893672972
0.8657549097089641	3577920.3055627276
0.8659713484363913	3588089.593730757
0.8661878412735006	3598261.4242208335
0.866404388233819	3608435.7976685306
0.8666209893308775	3618612.714709585
0.8668376445782103	3627707.0867982763
0.8670543539893549	3632374.9326945874
0.8672711175778525	3637043.945552376
0.8674879353572469	3641714.1256633736
0.8677048073410862	3646385.473319401
0.8679217335429217	3651057.9888123455
0.8681387139763074	3657372.808204699
0.8683557486548015	3663770.733745821
0.8685728375919655	3670170.2587683355
0.8687899808013633	3676571.3836720916
0.8690071782965637	3682974.108857082
0.869224430091138	3687200.9238272347
0.8694417361986609	3690542.7690701783
0.8696590966327107	3693885.449774432
0.869876511406869	3697228.966148862
0.8700939805347206	3700573.318402384
0.8703115040298544	3704290.143615333
0.870529081905862	3708432.7864890983
0.8707467141763385	3712576.4650235805
0.8709644008548827	3716721.1794776963
0.8711821419550964	3720866.9301104234
0.8713999374905854	3725629.179067287
0.871617787474958	3732516.7910979157
0.8718356919218269	3739406.125031558
0.8720536508448075	3746297.1812986843
0.8722716642575187	3753189.9603298735
0.8724897321735832	3760084.462555823
0.8727078546066265	3766325.5220930316
0.8729260315702784	3772558.1746662925
0.873144263078171	3778792.3854026906
0.8733625491439405	3785028.154691773
0.8735808897812266	3791265.4829231803
0.8737992850036719	3795984.9939221223
0.874017734824923	3800167.546602427
0.8742362392586293	3804351.1449209
0.874454798318444	3808535.7891389523
0.8746734120180236	3812721.4795180587
0.8748920803710283	3817474.530225333
0.875110803391121	3822797.860708179
0.8753295810919689	3828122.522023649
0.875548413487242	3833448.5145044476
0.8757673005906139	3838775.8384833666
0.8759862424157616	3845027.1202176847
0.8762052389763657	3853949.626425928
0.8764242902861098	3862874.3632607176
0.8766433963586814	3871801.331279718
0.8768625572077712	3880730.5310407258
0.8770817728470732	3889621.702066072
0.8773010432902849	3895371.615812483
0.8775203685511077	3901122.9670373388
0.8777397486432454	3906875.756099994
0.8779591835804065	3912629.9833599213
0.8781786733763015	3918385.6491766563
0.8783982180446457	3919046.387148208
0.878617817599157	3918191.216451059
0.8788374720535569	3917335.831961236
0.8790571814215703	3916480.233625291
0.8792769457169257	3915624.4213897614
0.879496764953355	3917027.3829822037
0.8797166391445934	3920461.673703174
0.8799365683043796	3923896.8229968254
0.8801565524464557	3927332.8310777997
0.8803765915845676	3930769.6981607974
0.8805966857324639	3936196.1675320202
0.880816834903897	3946619.119915326
0.881037039112623	3957044.6780367317
0.8812572983724012	3967472.8425476667
0.8814776126969944	3977903.6140997345
0.8816979821001687	3988228.783063232
0.8819184065956938	3996009.2450797306
0.8821388861973429	4003791.652211741
0.8823594209188923	4011576.004945527
0.882580010774122	4019362.303767493
0.8828006557768155	4027150.5491641685
0.8830213559407598	4035268.7926268377
0.8832421112797452	4043471.573807997
0.8834629218075651	4051676.405684447
0.8836837875380171	4059883.2887688684
0.8839047084849018	4068092.223574062
0.884125684662023	4070672.9398316555
0.8843467160831886	4068742.3583054314
0.8845678027622095	4066811.294133826
0.8847889447129001	4064879.747196177
0.8850101419490785	4062947.7173717944
0.8852313944845657	4065895.0687596966
0.885452702333187	4079524.581243857
0.8856740655087704	4093157.5011061365
0.8858954840251476	4106793.8291983777
0.8861169578961539	4120433.566372636
0.886338487135628	4133094.203354153
0.886560071757412	4132683.3435236416
0.8867817117753515	4132272.3809781726
0.8870034072032955	4131861.315692067
0.8872251580550963	4131450.147639641
0.8874469643446101	4131038.876795201
0.8876688260856963	4137722.580638899
0.8878907432922178	4145876.3726271237
0.8881127159780409	4154032.20306334
0.8883347441570356	4162190.0724571752
0.8885568278430749	4170349.9813183504
0.8887789670500358	4175943.1626927783
0.8890011617917983	4179715.526424453
0.8892234120822464	4183488.8332470628
0.8894457179352669	4187263.0833963742
0.8896680793647509	4191038.277108227
0.8898904963845921	4194738.705808051
0.8901129690086883	4198295.605211834
0.8903354972509405	4201853.393840467
0.8905580811252535	4205412.07191626
0.8907807206455347	4208971.639661566
0.8910034158256963	4212218.684625509
0.8912261666796527	4212665.583613795
0.8914489732213227	4213112.594326829
0.8916718354646282	4213559.716792541
0.8918947534234944	4214006.951038869
0.8921177271118502	4214454.297093758
0.8923407565436284	4219638.460493686
0.8925638417327644	4225596.605399986
0.8927869826931977	4231556.2398425145
0.8930101794388711	4237517.364193653
0.8932334319837308	4243479.978825879
0.8934567403417267	4249994.039049563
0.8936801045268123	4256851.460044186
0.8939035245529441	4263710.595394053
0.8941270004340824	4270571.44552776
0.894350532184191	4277434.0108739985
0.8945741198172371	4286798.796142998
0.8947977633471915	4300312.710689607
0.8950214627880284	4313830.003714852
0.8952452181537254	4327350.676063346
0.8954690294582639	4340874.728579934
0.8956928967156286	4353255.371884631
0.8959168199398075	4358196.850308963
0.8961407991447926	4363139.564102902
0.8963648343445789	4368083.51357529
0.896588925553165	4373028.699035043
0.8968130727845534	4377975.120791162
0.8970372760527496	4382086.072341039
0.8972615353717629	4386093.362756932
0.8974858507556059	4390101.654995428
0.8977102222182949	4394110.949306984
0.8979346497738496	4398121.2459421195
0.8981591334362931	4406234.739479059
0.8983836732196523	4416593.6550100455
0.8986082691379572	4426955.160269908
0.8988329212052417	4437319.255906085
0.8990576294355432	4447685.942566181
0.8992823938429022	4455505.760762739
0.8995072144413631	4459536.810679564
0.8997320912449734	4463568.868358867
0.8999570242677847	4467601.934052589
0.9001820135238516	4471636.008012734
0.9004070590272328	4476133.408718523
0.9006321607919896	4483055.563647157
0.9008573188321878	4489979.449114529
0.9010825331618959	4496905.065553266
0.9013078037951865	4503832.413396113
0.9015331307461353	4510761.4930759175
0.9017585140288219	4518629.614689346
0.9019839536573292	4526580.436244018
0.9022094496457435	4534533.245504073
0.9024350020081551	4542488.0429664515
0.9026606107586572	4550444.829128194
0.902886275911347	4558419.45387911
0.9031119974803249	4566403.712796685
0.9033377754796951	4574389.96777899
0.903563609923565	4582378.219325037
0.903789500826046	4590368.467933975
0.9040154482012526	4596702.91087842
0.904241452063303	4600891.398104081
0.9044675124263188	4605080.932451548
0.9046936293044254	4609271.514182601
0.9049198027117517	4613463.143559089
0.9051460326624297	4618379.4301532125
0.9053723191705955	4626378.242599765
0.9055986622503881	4634379.054749421
0.9058250619159507	4642381.8671021145
0.9060515181814298	4650386.680157902
0.9062780310609752	4658393.4944169475
0.9065046005687405	4662633.47887299
0.906731226718883	4666664.271358016
0.9069579095255627	4670696.071541158
0.907184649002944	4674728.879674345
0.907411445165195	4678762.696009571
0.9076382980264862	4685138.501962245
0.907865207600993	4692488.107007861
0.9080921739028933	4699839.549454737
0.9083191969463691	4707192.829762223
0.9085462767456058	4714547.948389789
0.9087734133147922	4721935.794078718
0.9090006066681211	4729361.163077318
0.909227856819788	4736788.388418159
0.9094551637839932	4744217.470565345
0.9096825275749393	4751648.409983066
0.9099099482068329	4758843.902814365
0.9101374256938848	4765197.810846326
0.9103649600503083	4771553.307355293
0.9105925512903209	4777910.392738385
0.9108201994281437	4784269.06739283
0.9110479044780008	4790629.331715931
0.9112756664541204	4797518.5788040105
0.911503485370734	4804421.620129761
0.9117313612420768	4811326.387215843
0.9119592940823873	4818232.880493695
0.912187283905908	4825141.100394868
0.9124153307268845	4828697.292104216
0.9126434345595664	4831037.155739162
0.9128715954182063	4833377.604340015
0.9130998133170609	4835718.638053019
0.9133280882703902	4838060.25702445
0.913556420292458	4842589.309873994
0.9137848093975312	4849374.82410702
0.9140132555998806	4856162.034718603
0.9142417589137806	4862950.942132839
0.9144703193535092	4869741.546773934
