#wavelength	surface flux
0.7	449502.95952095673
0.7001166666666666	450241.8677272624
0.7002333527777778	450857.1032816531
0.700350058336574	451472.44137530256
0.7004667833462966	452087.8820253002
0.7005835278101878	452703.4252487411
0.7007002917314895	453319.07106271834
0.7008170751134447	453934.8194843311
0.7009338779592968	454550.67053068057
0.7010507002722901	455045.3910942211
0.7011675420556689	455392.66145841905
0.701284403312678	455739.98970101046
0.7014012840465635	456087.3758316428
0.7015181842605713	456434.81985996355
0.701635103957948	456782.32179562206
0.701752043141941	457129.8816482698
0.701869001815798	457477.49942756013
0.7019859799827672	457936.35351880005
0.7021029776460976	458472.6579749742
0.7022199948090387	459009.0518152251
0.7023370314748403	459545.5350544491
0.7024540876467528	460082.10770754627
0.702571163328027	460618.76978941803
0.7026882585219152	461155.52131497156
0.7028053732316688	461692.3622991119
0.7029225074605406	462588.64711957105
0.7030396612117841	463623.8445207323
0.7031568344886527	464659.2144547939
0.7032740272944008	465694.75695051055
0.7033912396322832	466730.47203664365
0.7035084715055552	467766.35974195675
0.7036257229174727	468802.42009522114
0.7037429938712924	469838.653125212
0.7038602843702709	470765.1250608738
0.7039775944176659	471673.10583159514
0.7040949240167356	472581.23793244525
0.7042122731707383	473489.52138864505
0.7043296418829335	474397.9562254214
0.7044470301565806	475306.54246800375
0.70456443799494	476215.2801416258
0.7046818654012724	477124.1692715273
0.7047993123788394	477867.5152679274
0.7049167789309024	478610.7950134014
0.7050342650607243	479354.1986388343
0.7051517707715678	480097.726164871
0.7052692960666963	480841.3776121617
0.705386840949374	481585.15300135995
0.7055044054228656	482329.05235312425
0.7056219894904361	483036.1752404446
0.7057395931553511	483508.9175648746
0.705857216420877	483981.7386796923
0.7059748592902804	484454.6385980289
0.7060925217668288	484927.6173330191
0.70621020385379	485400.67489779834
0.7063279055544321	485873.8113055044
0.7064456268720246	486347.0265692792
0.7065633678098366	486861.03358901513
0.7066811283711383	487487.2503132708
0.7067989085592001	488113.5714069805
0.7069167083772933	488739.99688753876
0.7070345278286895	489366.52677234425
0.707152366916661	489993.16107879725
0.7072702256444803	490619.89982430066
0.7073881040154211	491246.74302626244
0.7075060020327569	491961.12621826696
0.7076239196997625	492802.96495770925
0.7077418570197124	493644.94400360726
0.7078598139958823	494487.0633793462
0.7079777906315483	495329.32310831524
0.7080957869299869	496171.7232139051
0.7082138028944751	497014.2637195122
0.7083318385282908	497856.94464853744
0.7084498938347124	498390.9552843147
0.708567968817018	498663.23886645806
0.7086860634784875	498935.5678291988
0.7088041778224007	499207.9421801002
0.7089223118520377	499480.36192672636
0.7090404655706796	499752.82707664353
0.709158638981608	500025.3376374193
0.709276832088105	500297.8936166219
0.7093950448934531	501001.7627601067
0.7095132774009353	501911.42545202834
0.7096315296138355	502821.239754399
0.7097498015354378	503731.2056924865
0.7098680931690269	504641.32329156273
0.7099864045178884	505551.59257690667
0.7101047355853081	506462.013573798
0.7102230863745722	507372.5863075215
0.7103414568889679	508229.2245516138
0.7104598471317828	509073.71589807695
0.7105782571063047	509918.34799309727
0.7106966868158224	510763.1208601333
0.710815136263625	511608.0345226471
0.7109336054530023	512453.08900410513
0.7110520943872445	513298.2843279764
0.7111706030696424	514143.62051773554
0.7112891315034873	514764.9331746666
0.7114076796920712	515375.6538535394
0.7115262476386865	515986.476319192
0.7116448353466263	516597.4005885885
0.711763442819184	517208.4266786968
0.711882070059654	517819.55460648745
0.7120007170713306	518430.7843889323
0.7121193838575091	519045.1433572406
0.7122380704214853	519691.1788312558
0.7123567767665555	520337.32197784947
0.7124755028960166	520983.5728149678
0.7125942488131658	521629.9313605585
0.7127130145213015	522276.39763257524
0.7128318000237216	522922.9716489687
0.7129506053237256	523569.6534276991
0.7130694304246129	524207.69838261383
0.7131882753296837	524815.2754618177
0.7133071400422386	525422.9538038685
0.7134260245655789	526030.7334256424
0.7135449289030065	526638.6143440201
0.7136638530578235	527246.596575884
0.7137827970333332	527854.6801381207
0.7139017608328388	528462.8650476176
0.7140207444596443	529064.8939590814
0.7141397479170543	529655.8606955942
0.7142587712083737	530246.9259265623
0.7143778143369084	530838.0896684027
0.7144968773059646	531429.3519375335
0.7146159601188489	532020.7127503756
0.7147350627788687	532612.1721233532
0.7148541852893318	533203.7300728929
0.7149733276535467	533618.257911136
0.7150924898748222	533854.2422110029
0.715211671956468	534090.2658415863
0.7153308739017941	534326.3288094416
0.715450095714111	534562.431121125
0.71556933739673	534798.5727831936
0.7156885989529628	535034.7538022058
0.7158078803861218	535270.9741847216
0.7159271816995193	534879.758547804
0.7160465028964692	534120.1888018689
0.7161658439802853	533360.4924609762
0.7162852049542819	532600.6695040269
0.7164045858217744	531840.7199099176
0.716523986586078	531080.6436575429
0.7166434072505089	530320.4407257931
0.716762847818384	529560.1110935545
0.7168823082930204	529561.7837426262
0.7170017886777359	529787.6717798166
0.7171212889758488	530013.5974650132
0.7172408091906781	530239.5608044907
0.7173603493255433	530465.5618045247
0.7174799093837642	530691.6004713922
0.7175994893686615	530917.6768113706
0.7177190892835562	531143.7908307392
0.7178387091317702	533402.2402224828
0.7179583489166254	535865.0739016937
0.7180780086414448	538328.3180531863
0.7181976883095517	540791.9727453707
0.7183173879242699	543256.0380466708
0.718437107488924	545720.5140255217
0.7185568470068389	548185.40075037
0.7186766064813399	550571.7116942161
0.7187963859157535	550983.5813984573
0.7189161853134061	551395.5197476491
0.719036004677625	551807.5267532325
0.7191558440117378	552219.6024266499
0.7192757033190732	552631.7467793467
0.7193955826029597	553043.9598227686
0.7195154818667269	553456.2415683647
0.7196354011137046	553802.6473759282
0.7197553403472235	553845.4899539086
0.7198752995706147	553888.3396723187
0.7199952787872098	553931.1965323484
0.720115278000341	553974.0605351882
0.7202352972133411	554016.9316820285
0.7203553364295432	554059.8099740598
0.7204753956522815	554102.6954124732
0.7205954748848902	554471.3214638853
0.7207155741307044	555558.129502791
0.7208356933930594	556645.118676368
0.7209558326752915	557732.2890148076
0.7210759919807375	558819.640548305
0.7211961713127342	559907.1733070565
0.7213163706746197	560994.8873212696
0.7214365900697322	562082.7826211506
0.7215568295014103	562629.8169164537
0.721677088972994	562531.3877502367
0.7217973684878227	562432.9421791589
0.7219176680492374	562334.4802004858
0.7220379876605789	562236.001811483
0.722158327325189	562137.5070094153
0.7222786870464099	562038.9957915472
0.7223990668275843	561940.468155143
0.7225194666720555	562239.4468168339
0.7226398865831676	562820.2096114567
0.7227603265642646	563401.0691998773
0.722880786618692	563982.0255982304
0.7230012667497951	564563.0788226497
0.7231217669609201	565144.2288892729
0.7232422872554135	565725.4758142402
0.7233628276366229	566306.819613696
0.7234833881078956	567320.2200140292
0.7236039686725803	568497.7877463112
0.7237245693340255	569675.55173988
0.7238451900955812	570853.51202745
0.7239658309605971	572031.6686417332
0.7240864919324239	573210.0216154536
0.7242071730144127	574388.5709813365
0.724327874209915	575567.3167721111
0.7244485955222832	574501.4387577439
0.7245693369548704	573064.22103194
0.7246900985110294	571626.7637698505
0.7248108801941148	570189.0669315469
0.7249316820074803	568751.1304771084
0.7250525039544815	567312.9543665918
0.7251733460384739	565874.5385600565
0.7252942082628137	564441.0097364938
0.7254150906308574	565977.8253231373
0.7255359931459625	567514.8970457121
0.7256569158114868	569052.2249469077
0.7257778586307888	570589.809069421
0.7258988216072273	572127.6494559543
0.7260198047441617	573665.7461492169
0.7261408080449525	575204.0991919311
0.72626183151296	576633.564508703
0.7263828751515454	577337.9427827649
0.7265039389640706	578042.4384532059
0.726625022953898	578747.0515395922
0.7267461271243904	579451.7820614934
0.7268672514789111	580156.630038481
0.7269883960208241	580861.5954901308
0.7271095607534942	581566.6784360232
0.7272307456802866	582211.439041404
0.7273519508045666	582693.0444717675
0.7274731761297006	583174.7301697024
0.7275944216590555	583656.496148587
0.7277156873959987	584138.3424218016
0.7278369733438982	584620.2690027291
0.727958279506122	585102.2759047522
0.7280796058860397	585584.3631412596
0.7282009524870207	585646.9979061486
0.7283223193124353	585089.1073510178
0.7284437063656539	584531.123814129
0.7285651136500483	583973.0472799833
0.7286865411689898	583414.877733083
0.7288079889258514	582856.6151579234
0.7289294569240056	582298.2595390027
0.7290509451668262	581739.8108608115
0.7291724536576875	581461.1016314245
0.7292939823999636	581414.2173196246
0.7294155313970303	581367.3251937728
0.7295371006522632	581320.4252525666
0.7296586901690385	581273.5174947035
0.7297802999507332	581226.6019188808
0.7299019300007252	581179.6785237954
0.7300235803223919	581132.7473081442
0.7301452509191123	581760.3410850972
0.7302669417942654	582699.383200718
0.7303886529512311	583638.5818233583
0.7305103843933897	584577.9369791027
0.7306321361241218	585517.4486940389
0.7307539081468093	586457.1169942626
0.7308757004648336	587396.9419058677
0.7309975130815778	588336.9234549592
0.7311193460004248	589748.0929021529
0.7312411992247582	591266.1330025455
0.7313630727579622	592784.426109621
0.7314849666034219	594302.9722655492
0.7316068807645224	595821.7715125027
0.7317288152446498	597340.8238926645
0.7318507700471907	598860.1294482239
0.7319727451755319	600379.6882213752
0.732094740633061	600351.8181793127
0.7322167564231665	600254.266355075
0.7323387925492371	600156.6982721997
0.7324608490146619	600059.1139279775
0.732582925822831	599961.5133196978
0.7327050229771347	599863.8964446503
0.7328271404809642	599766.2633001234
0.7329492783377112	599646.6633882975
0.7330714365507675	599311.2469459225
0.7331936151235259	598975.7746008072
0.7333158140593796	598640.2463436348
0.7334380333617229	598304.6621650856
0.7335602730339499	597969.0220558399
0.7336825330794556	597633.3260065758
0.7338048135016354	597297.5740079709
0.7339271143038857	597334.480613208
0.734049435489603	598620.2427259035
0.7341717770621846	599906.2191322848
0.7342941390250283	601192.4098680663
0.7344165213815324	602478.8149689701
0.734538924135096	603765.4344707258
0.7346613472891185	605052.2684090636
0.734783790847	606339.3168197247
0.7349062548121412	606888.8206219232
0.7350287391879431	606134.3966389904
0.7351512439778078	605379.8469187254
0.7352737691851374	604625.1714401747
0.735396314813335	603870.3701823768
0.7355188808658037	603115.4431243706
0.7356414673459482	602360.3902451866
0.7357640742571725	601605.2115238565
0.7358867016028818	601289.5393534933
0.7360093493864824	601407.9912262161
0.7361320176113801	601526.4628409175
0.736254706280982	601644.954200888
0.7363774153986956	601763.4653094187
0.7365001449679286	601881.9961698005
0.7366228949920899	602000.5467853259
0.7367456654745885	602119.1171592872
0.7368684564188344	602396.9904732464
0.7369912678282374	602764.9335949756
0.7371140997062088	603132.9380405586
0.7372369520561599	603501.0038202162
0.7373598248815024	603869.1309441696
0.7374827181856494	604237.3194226442
0.7376056319720137	604605.5692658654
0.7377285662440091	604973.8804840604
0.7378515210050496	605098.5998541096
0.7379744962585505	605150.0321650988
0.738097492007927	605201.4730481398
0.7382205082565949	605252.9225046613
0.738343545007971	605304.3805360922
0.7384666022654723	605355.8471438617
0.7385896800325165	605407.3223293992
0.7387127783125219	605458.8060941342
0.7388358971089073	605561.2597447145
0.7389590364250921	605668.8420163058
0.7390821962644963	605776.4422182757
0.7392053766305403	605884.0603536125
0.7393285775266454	605991.6964253053
0.7394517989562333	606099.3504363435
0.7395750409227259	606207.0223897166
0.7396983034295463	606294.449966234
0.739821586480118	605931.1416776743
0.7399448900778645	605567.7728377338
0.7400682142262109	605204.3434363189
0.740191558928582	604840.8534633375
0.7403149241884034	604477.3029086941
0.7404383100091014	604113.6917622917
0.7405617163941028	603750.0200140317
0.7406851433468352	603265.4111955431
0.7408085908707264	602227.7408820193
0.7409320589692048	601189.8976234436
0.7410555476456997	600151.8813909907
0.7411790569036406	599113.6921558331
0.7413025867464579	598075.3298891361
0.7414261371775823	597036.794562061
0.7415497082004452	595998.0861457655
0.7416732998184786	594982.6325595413
0.741796912035115	594017.2672924321
0.7419205448537874	593051.741131112
0.7420441982779297	592086.054048765
0.742167872310976	591120.20601857
0.7422915669563612	590154.1970137034
0.7424152822175206	589188.0270073361
0.7425390180978901	588221.6959726352
0.7426627746009065	587598.1961041135
0.7427865517300065	587392.7243978507
0.7429103494886282	587187.2184463033
0.7430341678802096	586981.6782437641
0.7431580069081896	586776.1037845245
0.7432818665760077	586570.4950628747
0.7434057468871037	586364.8520731048
0.7435296478449182	586159.1748095035
0.7436535694528923	585614.562252301
0.7437775117144678	584837.8707870728
0.7439014746330868	584061.0498732683
0.7440254582121922	583284.0994893109
0.7441494624552276	582507.0196136225
0.7442734873656368	581729.8102246216
0.7443975329468645	580952.4713007219
0.7445215992023557	580175.0028203349
0.7446456861355559	579087.8257349475
0.7447697937499119	577886.4267597895
0.7448939220488703	576684.8275514693
0.7450180710358784	575483.0280766155
0.7451422407143843	574281.028301849
0.7452664310878367	573078.8281937857
0.7453906421596846	571876.427719039
0.7455148739333779	570673.8268442127
0.7456391264123667	569244.7423982268
0.7457633996001021	567779.2383490498
0.7458876935000356	566313.4900491954
0.7460120081156189	564847.4974579604
0.7461363434503048	563381.2605346263
0.7462606995075466	561914.7792384702
0.7463850762907978	560448.0535287671
0.7465094738035127	558980.639227545
0.7466338920491467	557396.7965274123
0.746758331031155	555812.6898534946
0.7468827907529935	554228.3191618
0.7470072712181189	552643.6844083233
0.7471317724299886	551058.7855490539
0.7472562943920602	549473.6225399759
0.7473808371077922	547888.1953370617
0.7475054005806435	546266.0702253992
0.7476299848140736	544419.2576352991
0.7477545898115426	542572.1372431002
0.7478792155765113	540724.7089975021
0.7480038621124406	538876.9728471979
0.7481285294227926	537028.928740869
0.7482532175110298	535180.5766271872
0.7483779263806148	533331.9164548223
0.7485026560350116	531403.0023035231
0.7486274064776842	529257.396166362
0.748752177712097	527111.4324281819
0.7488769697417158	524965.1110293742
0.749001782570006	522818.431910336
0.7491266162004343	520671.3950114452
0.7492514706364677	518524.00027307036
0.7493763458815739	516376.24763557024
0.7495012419392209	514062.7631167247
0.7496261588128773	511511.148295882
0.7497510965060128	508959.10820590064
0.7498760550220971	506406.6427759053
0.7500010343646007	503853.75193500455
0.7501260345369949	501300.43561229575
0.750251055542751	498746.6937368693
0.7503760973853414	496192.5262377955
0.7505011600682389	493432.42886243307
0.750626243594917	490500.28017818066
0.7507513479688495	487567.6428024853
0.7508764731935109	484634.51665389305
0.7510016192723765	481700.90165094193
0.7511267862089218	478766.7977121597
0.7512519740066232	475832.2047560533
0.7513771826689577	472897.1227011192
0.7515024121994025	469739.27091795055
0.7516276626014359	466477.2531432369
0.751752933878536	463214.69169889984
0.7518782260341824	459951.58649432095
0.7520035390718548	456687.93743887317
0.7521288729950334	453423.74444191786
0.7522542278071992	450159.0074127961
0.7523796035118337	446893.7262608346
0.7525050001124189	443273.73893414345
0.7526304176124378	439576.1259702863
0.7527558560153731	435877.89673760656
0.752881315324709	432179.05113338446
0.7530067955439299	428479.5890548937
0.7531322966765205	424779.5103993947
0.7532578187259665	421078.81506411877
0.7533833616957542	417377.502946287
0.75350892558937	413307.23218799604
0.7536345104103016	409218.9625691827
0.7537601161620366	405130.0115721016
0.7538857428480638	401040.3790831837
0.7540113904718717	396950.0649888563
0.7541370590369503	392859.0691755141
0.7542627485467898	388767.3915295338
0.7543884590048808	384646.53672846075
0.7545141904147151	380240.8376670304
0.7546399427797842	375834.40432243026
0.7547657161035808	371427.236572272
0.754891510389598	367019.33429415565
0.7550173256413296	362610.6973656578
0.7551431618622698	358201.3256643396
0.7552690190559135	353791.21906773874
0.7553948972257561	349285.9703265187
0.7555207963752938	344463.08152825607
0.755646716508023	339639.3889151964
0.755772657627441	334814.8923533663
0.7558986197370455	329989.59170877514
0.756024602840335	325163.48684741114
0.7561506069408084	320336.57763523696
0.7562766320419653	315508.8639381897
0.7564026781473054	310508.95398840634
0.75652874526033	305206.60717072396
0.7566548333845401	299903.37662856927
0.7567809425234375	294599.2622146594
0.7569070726805247	289294.2637816836
0.7570332238593047	283988.381182303
0.7571593960632813	278681.61426915077
0.7572855892959586	273373.9628948461
0.7574118035608413	268095.91855112347
0.7575380388614347	262846.8254990279
0.7576642952012449	257596.8575980883
0.7577905725837782	252346.01470250613
0.7579168710125422	247094.296666432
0.7580431904910444	241841.70334401657
0.7581695310227928	236588.23458938734
0.7582958926112967	231333.89025662577
0.7584222752600652	226000.66724064588
0.7585486789726085	220621.74563104365
0.7586751037524372	215241.92753450447
0.7588015496030628	209861.21280160538
0.7589280165279966	204479.60128292808
0.7590545045307512	199097.0928289977
0.7591810136148396	193713.68729032512
0.7593075437837755	188329.38451738813
0.7594340950410726	183030.84567674898
0.7595606673902461	177756.56736345208
0.7596872608348112	172481.41000376435
0.7598138753782836	167205.37345118914
0.75994051102418	161928.4575591836
0.7600671677760173	156650.66218120014
0.7601938456373134	151371.98717064966
0.7603205446115863	146092.43238093372
0.7604472647023548	141009.24146406323
0.7605740059131385	135944.80935872777
0.7607007682474575	130879.5331813698
0.7608275517088319	125813.41279132685
0.7609543563007835	120746.4480478743
0.7610811820268336	115678.63881030091
0.7612080288905045	110609.98493786433
0.7613348968953197	105554.23176641282
0.7614617860448022	100779.66279953509
0.7615886963424764	96004.29807115636
0.7617156277918667	91228.13744866085
0.7618425803964988	86451.180799391
0.7619695541598982	81673.42799068088
0.7620965490855914	76894.87888983949
0.7622235651771058	72115.53336414244
0.7623506024379685	67519.66173556008
0.7624776608717082	63730.70164604837
0.7626047404818536	59941.11006318825
0.7627318412719337	56150.88688173749
0.762858963245479	52360.031996420774
0.7629861064060198	48568.54530195617
0.7631132707570876	44776.42669303854
0.7632404563022137	40983.67606435617
0.7633676630449308	37517.81641570559
0.7634948909887717	34748.56707057711
0.7636221401372697	31978.856183894713
0.7637494104939593	29208.683678728594
0.7638767020623748	26438.049478148947
0.7640040148460518	23666.953505199377
0.7641313488485262	20895.395682921087
0.7642587040733344	18123.375934335938
0.7643860805240132	15884.364681922034
0.7645134782041005	14281.57048564135
0.7646408971171346	12678.509156993954
0.764768337266654	11075.180651459035
0.7648957986561985	9471.584924506013
0.7650232812893079	7867.721931598708
0.7651507851695227	6263.591628192569
0.7652783103003843	4659.193969736061
0.7654058566854343	3750.3018897918764
0.7655334243282153	3315.4458049587192
0.7656610132322699	2880.5172441119907
0.765788623401142	2445.516195171378
