#wavelength	surface flux
0.428837	17028.729073765106
0.43312537	32740.093530780647
0.43745662370000005	37689.84692317685
0.4418311899370001	43386.57553152995
0.44624950183637	49888.040894649304
0.4507119968547338	56571.496159631264
0.45521911682328114	64538.50785382731
0.4597713079915139	74104.46861133217
0.4643690210714291	84129.38888685222
0.4690127112821433	95073.39486263342
0.47370283839496474	107507.02949207758
0.47843986677891437	120168.20682600125
0.48322426544670355	134712.0949595844
0.48805650810117057	151035.50210708586
0.4929370731821824	167785.7572086663
0.49786644391400414	184664.67938098803
0.5028451083531442	201970.25945090177
0.5078735594366757	217430.5814473359
0.5129522950310424	224419.89978486253
0.5180818179813528	224891.60517482864
0.5232626361611664	263379.6583883793
0.5284952625227781	273287.7170083526
0.5337802151480058	271865.8410555428
0.5391180172994858	262109.5070014973
0.5445091974724807	238239.6884729651
0.5499542894472055	199904.15569210125
0.5554538323416777	149148.14186012003
0.5610083706650945	94136.457413453
0.5666184543717453	47357.23052371017
0.5722846389154628	18920.93274669801
0.5780074853046174	5786.646967609252
0.5837875601576636	909.2448299310164
0.5896254357592402	35.56621678877361
0.5955216901168326	1721.5939562108952
0.6014769070180009	10828.993878390478
0.607491676088181	36954.21828114769
0.6135665928490629	96324.79497702493
0.6197022587775535	206756.71202699127
0.625899281365329	372723.60048436344
0.6321582741789823	587939.8020336861
0.6384798569207721	841787.2627864899
0.6448646554899798	1118282.25208637
0.6513133020448797	1419626.9992522069
0.6578264350653285	1722902.6657491897
0.6644046994159818	2022814.3281631323
0.6710487464101416	1302874.6681935983
0.677759233874243	2689851.497888874
0.6845368262129854	3052460.1127039455
0.6913821944751153	3282512.52715443
0.6982960164198664	3656858.0418252754
0.7052789765840651	3918381.591884402
0.7123317663499058	4103474.929012624
0.7194550840134049	4041532.138077027
0.7266496348535388	3900592.8687348515
0.7339161312020743	3540043.4486525888
0.741255292514095	2820306.216554211
0.748667845439236	1672755.0890988335
0.7561545238936284	581438.6920406896
0.7637160691325647	59639.737757020586
0.7713532298238903	45687.98695827146
0.7790667621221293	563461.7752637091
0.7868574297433505	2329546.3519071443
0.7947260040407841	2374781.7554169074
0.8026732640811919	6909756.681070929
0.8106999967220039	8384394.545108237
0.8188069966892239	10114143.024729794
0.8269950666561161	11951325.824469611
0.8352650173226772	13143088.454694375
0.8436176674959041	14883132.898214057
0.852053844170863	15258409.953279933
0.8605743826125718	16997637.848571412
0.8691801264386976	17823776.448604185
0.8778719277030844	19034147.489677746
0.8866506469801153	20483368.176929355
0.8955171534499164	19067220.531977255
0.9044723249844157	23569447.025116555
0.9135170482342599	24529146.765764695
0.9226522187166025	24426311.50418328
0.9318787409037684	13182415.342307126
0.941197528312806	18582985.95007716
0.9506095035959342	16690566.318269355
0.9601155986318936	15271335.622568669
0.9697167546182125	16593461.289086252
0.9794139221643946	24586725.835393947
0.9892080613860387	29008792.516593635
0.9991001419998989	32107469.57199607
1.0090911434198981	35403365.51441786
1.019182054854097	40359354.39111879
1.0293738754026378	39175915.55069887
1.0396676141566643	45101554.9517465
1.050064290298231	45928987.923220426
1.0605649332012133	48923586.92237161
1.0711705825332256	49588987.943374336
1.0818822883585577	51706907.38069188
1.0927011112421434	45028349.67845137
1.1036281223545648	17110117.74155725
1.1146644035781104	15394295.386830019
1.1258110476138916	17577769.578395437
1.1370691580900303	17513923.935425956
1.1484398496709307	24104168.116507962
1.1599242481676402	10614918.472057322
1.1715234906493166	18237595.440502945
1.1832387255558097	39855609.52011867
1.1950711128113678	52077922.933286026
1.2070218239394814	55771817.98167148
1.2190920421788762	64197279.538530305
1.2312829626006652	69482397.78273626
1.2435957922266716	73025922.48247884
1.2560317501489384	72637361.80053845
1.2685920676504279	73337704.49739197
1.281277988326932	72219122.91748996
1.2940907682102014	65691314.55290219
1.3070316758923035	60433987.58845984
1.3201019926512265	61207944.38296146
1.3333030125777388	15207815.723940272
1.3466360427035162	2777090.587792325
1.3601024031305513	1288458.2086880133
1.373703427161857	4301460.988295056
1.3874404614334754	1085512.3756096975
1.4013148660478103	2231877.1669138824
1.4153280147082883	1910533.8494568306
1.4294812948553712	2690585.0734171714
1.443776107803925	4149007.328567724
1.4582138688819641	9237684.45838557
1.4727960075707838	9256837.2244932
1.4875239676464918	14812864.924379578
1.5023992073229566	19693027.84985458
1.5174231993961862	26016396.37851571
1.532597431390148	36014541.76704743
1.5479234057040496	45690534.25734645
1.5634026397610903	51819492.72715322
1.579036666158701	54268962.04674326
1.594827032820288	67612798.11706915
1.610775303148491	70465661.92867593
1.6268830561799759	77328017.81979474
1.6431518867417756	88562076.00156981
1.6595834056091934	82593546.13859761
1.6761792396652853	86576101.6273028
1.6929410320619382	70067509.35631423
1.7098704423825577	60530732.84200994
1.7269691468063835	52220017.65232948
1.744238838274447	25088342.440895557
1.7616812266571917	29595801.510490697
1.7792980389237634	5853038.376194672
1.7970910193130012	8021728.328188362
1.815061929506131	3375559.3482970996
1.8332125488011928	2828199.662032188
1.8515446742892046	4101721.3300897866
1.8700601210320964	3110565.434081353
1.8887607222424174	8027209.232161561
1.9076483294648416	2587559.957097996
1.92672481275949	2430475.1936447653
1.9459920608870853	4092685.619829033
1.9654519814959561	4783629.2242853
1.9851065013109155	10333490.707425792
2.0049575663240247	13291468.503801433
2.025007141987265	19769828.05118713
2.0452572134071376	34653347.280344255
2.065709785541209	45175560.33586399
2.086366883396621	52728009.89874085
2.107230552230587	53753248.882015236
2.1283028577528933	65819906.8085977
2.1495858863304225	62053386.31759566
2.1710817451937263	58898592.44335554
2.1927925626456637	48049992.006000124
2.2147204882721203	35419151.48339429
2.2368676931548412	25078584.415983997
2.25923637008639	23745643.767421763
2.281828733787254	16425251.889925754
2.3046470211251266	6301784.320016763
2.327693491336378	4095179.238276376
2.3509704262497415	5467339.204758925
2.374480130512239	4467458.883268309
2.3982249318173614	6151387.4960615095
2.4222071811355352	8012154.956596756
2.4464292529468903	6913236.754697956
2.4708935454763594	4760441.906371442
2.4956024809311232	2586509.434944504
2.5205585057404343	1349071.288767479
2.5457640907978387	2064234.0495340447
2.5712217317058172	902753.7918498268
2.5969339490228753	866573.2740964021
2.622903288513104	1857543.5942083872
2.6491323213982354	2468674.8742433838
2.6756236446122177	474452.49468057946
2.7023798810583397	1415135.210454228
2.729403679868923	3007376.066381887
2.7566977166676123	1722616.057181207
2.7842646938342885	1406258.6985051273
2.812107340772631	1555591.4348953094
2.8402284141803578	2679985.3068711706
2.8686306983221614	1850871.9072575483
2.897317005305383	2375814.050532327
2.926290175358437	4620111.12118643
2.9555530771120213	5008705.619178242
2.9851086078831415	5045753.4987978935
3.014959693961973	6302938.434661489
3.0451092909015927	6068168.134441678
3.0755603838106085	6325661.552534123
3.1063159876487147	4530164.682220699
3.137379147525202	3101310.8439115006
3.168752939000454	2298956.651836004
3.200440468390459	1870360.9231832488
3.232444873074363	1410587.1999672921
3.264769321805107	3918515.7523915255
3.297417015023158	4138235.208056564
3.330391185173389	759807.8587093038
3.3636950970251234	2840077.0806737053
3.397332047995375	2535363.31822456
3.4313053684753285	1896085.2119683698
3.465618422160081	2020306.5610571208
3.5002746063816828	2737865.205018332
3.5352773524454997	3891571.4440575205
3.570630125969955	5243196.370733202
3.606336427229654	7831546.128076138
3.6423997915019504	10650803.995999081
3.67882378941697	14247046.50990499
3.7156120273111397	17600863.349008236
3.7527681475842516	20439219.60444418
3.7902958290600934	21170831.387221225
3.8281987873506953	23729652.320089888
3.8664807752242023	24539141.29342477
3.905145582976444	24809521.7503704
3.9441970388062084	25230031.71582298
3.983639009194271	24009879.145384476
4.023475399286213	22951182.77453584
4.063710153279075	22103358.568557672
4.1043472548118665	18597486.967682425
4.145390727359985	15774596.763301603
4.186844634633585	14535519.167011738
4.2287130809799205	12918252.11845977
4.27100021178972	11440236.212805737
4.313710213907617	10747723.285893735
4.356847316046694	7813558.880166821
4.40041578920716	5105391.725728977
4.444419947099232	3565389.362965255
4.488864146570225	2739554.8033208507
4.533752788035927	2311655.759793188
4.579090315916286	2491410.916874909
4.624881219075449	2713413.237706323
4.671130031266204	3311254.6836085487
4.717841331578866	2817359.315073127
4.765019744894654	2406177.4010479855
4.812669942343601	2716851.075790464
4.8607966417670365	3332262.380775403
4.9094046081847065	2980237.506003037
4.958498654266554	2703459.542114915
5.008083640809219	3228202.9045814658
5.058164477217312	3762862.974667503
5.108746121989485	3623236.0476390882
5.15983358320938	3084378.3690207084
5.211431919041474	2348131.565662779
5.263546238231889	3036256.948571067
5.316181700614208	3580025.2047931496
5.36934351762035	2088871.0689285763
5.423036952796553	1598472.7463975463
5.4772673223245185	1803256.0568642125
5.532039995547764	1920332.523041145
5.587360395503242	1484837.0834229826
5.643233999458275	1288489.366621283
5.6996663394528575	1182343.5445003596
5.756663002847385	1184915.881800336
5.814229632875859	1270683.081850974
5.872371929204618	1046605.505269635
5.931095648496664	1132870.0112696732
5.990406604981631	1474248.6883179958
6.050310671031448	1169156.7279437042
6.110813777741763	1850381.5882369843
6.17192191551918	1283493.552457751
6.233641134674372	2567477.6496367888
6.295977546021115	2747338.2152014505
6.358937321481327	1922587.753778374
6.42252669469614	812154.9235018048
6.486751961643101	736271.8898050576
6.551619481259532	845878.9111589987
6.617135676072128	704389.2179227892
6.683307032832849	1019274.9255721356
6.750140103161177	1123199.1861058797
6.81764150419279	1081379.828754003
6.885817919234718	906331.1313077648
6.954676098427065	1087013.0922635873
7.024222859411336	787965.2010928323
7.094465088005449	1015409.6802907158
7.165409738885503	792248.8714986206
7.237063836274358	807996.4350234198
7.309434474637103	735170.0574332039
7.382528819383473	681043.5670985157
7.456354107577308	637983.4951904163
7.530917648653081	823749.3159411297
7.606226825139612	789901.7892075581
7.682289093391009	532884.5044372982
7.759111984324918	664950.96053883
7.836703104168168	750994.9436568837
7.91507013520985	717825.2573132032
7.994220836561947	819745.9637648808
8.074163044927568	771747.219019613
8.154904675376844	781653.283254511
8.23645372213061	860227.2557444148
8.318818259351918	925385.7027959118
8.402006441945437	951812.236254963
8.486026506364892	1079982.6418135723
8.57088677142854	1165529.7825287576
8.656595639142825	1259938.022514271
8.743161595534254	1287561.5206272944
8.830593211489598	1404270.8687855885
8.918899143604493	1409435.886986613
9.00808813504054	1381264.1283256062
9.098169016390944	1468033.4089182932
9.189150706554853	1505286.1765366332
9.281042213620402	1471806.6458190877
9.373852635756606	1374008.2267461598
9.467591162114172	1355721.7378138492
9.562267073735315	1513310.4769399818
9.657889744472667	1342669.2062799376
9.754468641917395	1487304.2183901104
9.852013328336568	1136155.1770109613
9.950533461619933	1344389.5806289995
10.050038796236134	1248733.1424159533
10.150539184198495	1324758.8963064628
10.252044576040479	1152923.9916050555
10.354565021800884	949116.3516773757
10.458110672018893	940788.5224069684
10.562691778739081	1026264.4166455192
10.668318696526473	1034997.9124329292
10.775001883491738	1001364.4241298487
10.882751902326655	847478.5364247421
10.991579421349924	657564.1659885577
11.101495215563421	879380.989409537
11.212510167719055	843344.3612976993
11.324635269396246	767172.9144023699
11.43788162209021	805064.3667816019
11.552260438311112	629794.7178361485
11.667783042694223	613637.9116558414
11.784460873121166	579592.1585347386
11.902305481852377	639181.292604513
12.0213285366709	639264.785197316
12.14154182203761	652368.35805498
12.262957240257986	496397.6937240159
12.385586812660566	416018.5851496447
12.509442680787172	426205.25570605847
12.634537107595044	477752.75216611725
12.760882478670995	447907.24050607235
12.888491303457704	446417.2746303999
13.01737621649228	365292.2659422808
13.147549978657205	379142.63941613375
13.279025478443776	298942.88432737143
13.411815733228213	292826.35610894527
13.545933890560496	338571.4564160631
13.681393229466101	302279.7614064615
13.818207161760762	328155.4785119995
13.956389233378369	292591.2868236954
14.095953125712155	306265.21232752653
14.236912656969274	265691.48411501374
14.379281783538968	214922.0209077279
14.523074601374358	204710.13296194805
14.6683053473881	245103.34808283712
14.814988400861985	220888.87262042868
14.963138284870602	199934.097451006
15.11276966771931	220779.78593033826
15.263897364396504	237311.77695004735
15.41653633804047	184302.01472602002
15.570701701420873	151224.61044405817
15.726408718435081	138280.98882033667
15.883672805619431	213719.438815101
16.042509533675627	157746.53605129494
16.202934629012383	147185.58688774364
16.36496397530251	136128.9599236514
16.528613615055534	133103.8528314322
16.69389975120609	115686.06231644104
16.86083874871815	117126.70165897951
17.02944713620533	128760.78060314755
17.199741607567383	99078.81104689481
17.37173902364306	90626.92751104143
17.54545641387949	101627.57009449501
17.720910978018285	91167.87630167279
17.898120087798468	86245.5555764712
18.077101288676452	90665.72919048063
18.257872301563214	87379.09243132212
18.44045102457885	82117.83909909293
18.62485553482464	72135.4483626877
18.811104090172883	105790.89442896722
18.999215131074614	65837.82185189723
19.189207282385357	68164.73952874362
19.381099355209216	55499.44265688411
19.574910348761303	57028.46998259324
19.77065945224892	61764.604427038976
19.968366046771408	72833.80732917982
20.16804970723912	60901.64294248321
20.369730204311512	51405.34501734434
20.573427506354626	47009.86856174685
20.779161781418175	52990.992417785004
20.98695339923236	42136.4571348567
21.19682293322468	42689.95967565884
21.408791162556927	53247.59847406587
21.622879074182496	38022.710534025544
21.839107864924323	36522.37855428976
22.057498943573567	36640.87799226926
22.278073933009303	38634.4793386306
22.500854672339393	31234.16096946793
22.72586321906279	50472.9810240296
22.953121851253417	28987.186670917083
23.18265306976595	46239.33038986499
23.41447960046361	36601.42942050629
23.648624396468247	25719.65851154359
23.88511064043293	23699.155780041827
24.12396174683726	39029.69181095188
24.365201364305634	35449.95518482979
24.608853377948687	33058.65255807332
24.854941911728176	27868.522953723514
25.103491330845458	19193.505145066814
25.354526244153913	19037.897255307053
25.608071506595454	26790.75564372527
25.864152221661406	25260.152964923796
26.122793743878024	22575.97580022038
26.384021681316803	23952.019924652053
26.64786189812997	15148.464237414737
26.91434051711127	20190.665507279977
27.18348392228238	21798.21063216968
27.455318761505207	26691.605787493816
27.72987194912026	20619.94955168028
28.007170668611465	13938.472571533448
28.28724237529758	12478.96219036895
28.57011479905055	12312.15063817369
28.855815947041062	17114.14201252608
29.144374106511474	13073.48548435217
29.435817847576587	13675.676508759034
29.730176026052348	12883.783241974152
30.027477786312875	14036.294304449566
30.327752564176006	10502.169050362849
30.631030089817763	11031.578859296205
30.93734039071594	10034.364864204215
31.246713794623105	11168.521167798805
31.559180932569333	12830.81463461134
31.874772741895026	10044.59072753986
32.19352046931398	12102.035399690767
32.51545567400712	12120.30893457313
32.84061023074719	7306.95400871622
33.169016333054664	7762.931269180409
33.500706496385206	7903.184768654902
33.83571356134906	11432.46893462262
34.17407069696255	7934.195141480197
34.51581140393218	6604.476635568428
34.8609695179715	6812.094563708804
35.209579213151216	6222.834892240567
35.56167500528272	5554.221630870624
35.917291755335555	5245.50576387623
36.27646467288891	6675.870744555698
36.639229319617804	5988.652637395249
37.005621612813975	7547.533280256008
37.37567782894212	4922.193232879521
37.74943460723154	5504.230569252161
38.12692895330385	6868.797568131762
38.5081982428369	6272.449993047515
38.893280225265265	4399.775469773454
39.28221302751791	3741.5481295714694
39.6750351577931	5121.718476853018
40.071785509371026	3612.2628470544573
40.47250336446474	3621.5343803126675
40.87722839810939	3562.7423468873
41.28600068209048	4734.955405145895
41.69886068891139	4752.322354817849
42.1158492958005	4208.715966323744
42.53700778875851	3812.4411053628132
42.962377866646094	2937.2070595175205
43.392001645312554	2789.42805150193
43.825921661765676	2593.5498139404217
44.264180878383335	2627.8399277485273
44.70682268716717	2556.4321525005507
45.15389091403884	2660.0172889000773
45.60542982317923	3028.405353621002
46.06148412141103	2580.375239851273
46.52209896262513	2171.2129699478846
46.98731995225138	2100.3208404308684
47.4571931517739	2738.6343009745037
47.93176508329164	1943.4487656069402
48.411082734124555	2394.037708120703
48.8951935614658	1805.0766017167016
49.38414549708046	1641.0963239898551
49.877986952051266	1692.7922193930387
50.37676682157178	1631.4700630841498
50.88053448978749	1572.3336563790672
51.38933983468537	1515.287628216381
51.903233233032225	1460.2726909432474
52.422265565362544	1407.2079417530044
52.946488221016175	1356.027869759033
53.47595310322633	1306.6823690580788
54.010712634258596	1259.0890389683937
54.550819760601186	1213.1957947965957
55.0963279582072	1168.9399190146419
55.647291237789275	1126.2648575507333
56.20376415016716	1085.1225688177647
56.765801791668835	1045.4518715029149
57.33345980958552	1007.2070728515555
57.906794407681375	970.3340626549445
58.48586235175819	934.7816396474929
59.070720975275776	900.5145906993589
59.661428185028534	867.4767942162351
60.25804246687882	835.6339316043703
60.860622891547614	804.9348039124167
61.46922912046309	775.3455923792886
62.083921411667724	746.8279218528285
62.7047606257844	719.3367326272004
63.331808232042235	692.8459814966343
63.965126314362664	667.312532948151
64.60477757750628	642.7042359157059
65.25082535328136	618.9902338140881
65.90333360681416	596.1340474569726
66.56236694288232	574.1131332624883
67.22799061231113	552.8910002779485
67.90027051843424	532.4411430080361
68.57927322361859	512.7371664040136
69.26506595585477	493.7498321426088
69.95771661541333	475.4579145982606
70.65729378156746	457.8321569449705
71.36386671938313	440.85072044263165
72.07750538657696	424.49038048220154
72.79828044044274	408.7277076138447
73.52626324484716	393.5438871822358
74.26152587729563	378.91505394038046
75.00414113606858	364.82373232403796
75.75418254742928	351.24917817775474
76.51172437290357	338.1721310884796
77.27684161663261	325.5774323961302
78.04961003279894	313.4434687912531
78.83010613312693	301.75836825287263
79.6184071944582	290.5020531946293
80.41459126640278	279.6601047019068
81.2187371790668	269.2192281115216
82.03092455085748	259.1619596337659
82.85123379636605	249.47717523572496
83.6797461343297	240.14922947154827
84.51654359567301	231.1659560263044
85.36170903162974	222.51537278011043
86.21532612194603	214.18394638478514
87.0774793831655	206.16197292821013
87.94825417699715	198.43638846109317
88.82773671876713	190.99735709070464
89.71601408595481	183.83432803052278
90.61317422681435	176.936461840641
91.5193059690825	170.29563962645224
92.43449902877332	163.90031991609112
93.35884401906105	157.74364730741843
