#wavelength	surface flux
0.7	578694.3596016737
0.7001166666666666	579560.7991530094
0.7002333527777778	580379.890452935
0.700350058336574	581199.1182680769
0.7004667833462966	582018.482621187
0.7005835278101878	582837.9835350248
0.7007002917314895	583657.621032347
0.7008170751134447	584477.3951359186
0.7009338779592968	585297.305868507
0.7010507002722901	586068.5975565612
0.7011675420556689	586780.685352224
0.701284403312678	587492.891829185
0.7014012840465635	588205.2170072264
0.7015181842605713	588917.6609061308
0.701635103957948	589630.2235456845
0.701752043141941	590342.904945678
0.701869001815798	591055.7051259057
0.7019859799827672	591811.2244697006
0.7021029776460976	592596.5171876787
0.7022199948090387	593381.9407877774
0.7023370314748403	594167.4952918092
0.7024540876467528	594953.1807215916
0.702571163328027	595738.9970989443
0.7026882585219152	596524.9444456953
0.7028053732316688	597311.0227836695
0.7029225074605406	598264.4572503825
0.7030396612117841	599282.623909146
0.7031568344886527	600300.9602623526
0.7032740272944008	601319.4663382842
0.7033912396322832	602338.1421652288
0.7035084715055552	603356.9877714771
0.7036257229174727	604376.0031853268
0.7037429938712924	605395.1884350796
0.7038602843702709	606376.9044827668
0.7039775944176659	607352.400288718
0.7040949240167356	608328.0586773041
0.7042122731707383	609303.879675621
0.7043296418829335	610279.8633107716
0.7044470301565806	611256.0096098612
0.70456443799494	612232.3185999999
0.7046818654012724	613208.7903083042
0.7047993123788394	614113.0783303626
0.7049167789309024	615017.4340463487
0.7050342650607243	615921.9404882889
0.7051517707715678	616826.5976813022
0.7052692960666963	617731.4056505141
0.705386840949374	618636.3644210537
0.7055044054228656	619541.4740180565
0.7056219894904361	620430.7590459513
0.7057395931553511	621218.6701900858
0.705857216420877	622006.7126527448
0.7059748592902804	622794.8864558139
0.7060925217668288	623583.1916211843
0.70621020385379	624371.6281707488
0.7063279055544321	625160.1961264039
0.7064456268720246	625948.8955100528
0.7065633678098366	626755.6561220721
0.7066811283711383	627611.930132896
0.7067989085592001	628468.3468560551
0.7069167083772933	629324.906315334
0.7070345278286895	630181.6085345235
0.707152366916661	631038.4535374163
0.7072702256444803	631895.4413478087
0.7073881040154211	632752.5719895038
0.7075060020327569	633651.7453943912
0.7076239196997625	634612.0894822393
0.7077418570197124	635572.5936274345
0.7078598139958823	636533.2578566537
0.7079777906315483	637494.0821965786
0.7080957869299869	638455.0666738929
0.7082138028944751	639416.2113152862
0.7083318385282908	640377.5161474538
0.7084498938347124	641205.4947789202
0.708567968817018	641920.4388939482
0.7086860634784875	642635.5021663295
0.7088041778224007	643350.6846159234
0.7089223118520377	644065.9862625914
0.7090404655706796	644781.4071262002
0.709158638981608	645496.9472266202
0.709276832088105	646212.6065837238
0.7093950448934531	647123.1796369187
0.7095132774009353	648126.8040124092
0.7096315296138355	649130.5956586293
0.7097498015354378	650134.5546034569
0.7098680931690269	651138.6808747743
0.7099864045178884	652142.9745004715
0.7101047355853081	653147.4355084396
0.7102230863745722	654152.0639265748
0.7103414568889679	655136.7738179269
0.7104598471317828	656117.0838231555
0.7105782571063047	657097.5572133843
0.7106966868158224	658078.1940158447
0.710815136263625	659058.9942577721
0.7109336054530023	660039.957966407
0.7110520943872445	661021.085168993
0.7111706030696424	662002.37589278
0.7112891315034873	662894.6159468786
0.7114076796920712	663782.7480403723
0.7115262476386865	664671.0281558817
0.7116448353466263	665559.4563180764
0.711763442819184	666448.0325516318
0.711882070059654	667336.756881227
0.7120007170713306	668225.6293315432
0.7121193838575091	669117.8755942929
0.7122380704214853	670043.9134461484
0.7123567767665555	670970.105637645
0.7124755028960166	671896.4521945074
0.7125942488131658	672822.9531424618
0.7127130145213015	673749.6085072435
0.7128318000237216	674676.418314583
0.7129506053237256	675603.3825902251
0.7130694304246129	676528.6961049004
0.7131882753296837	677447.8520310114
0.7133071400422386	678367.1611497769
0.7134260245655789	679286.6234867282
0.7135449289030065	680206.2390674027
0.7136638530578235	681126.00791734
0.7137827970333332	682045.9300620871
0.7139017608328388	682966.0055271914
0.7140207444596443	683886.3430695845
0.7141397479170543	684807.027967557
0.7142587712083737	685727.8663130113
0.7143778143369084	686648.8581315238
0.7144968773059646	687570.0034486731
0.7146159601188489	688491.3022900416
0.7147350627788687	689412.7546812169
0.7148541852893318	690334.3606477905
0.7149733276535467	691176.7758076113
0.7150924898748222	691939.3222426346
0.715211671956468	692701.9957687305
0.7153308739017941	693464.7964070814
0.715450095714111	694227.7241788716
0.71556933739673	694990.7791052907
0.7156885989529628	695753.9612075306
0.7158078803861218	696517.2705067886
0.7159271816995193	696995.8620299605
0.7160465028964692	697307.3470777726
0.7161658439802853	697618.8840397594
0.7162852049542819	697930.4729245731
0.7164045858217744	698242.1137408678
0.716523986586078	698553.8064972985
0.7166434072505089	698865.5512025217
0.716762847818384	699177.347865196
0.7168823082930204	699864.0340840924
0.7170017886777359	700661.1103745453
0.7171212889758488	701458.3195110462
0.7172408091906781	702255.6615157366
0.7173603493255433	703053.1364107615
0.7174799093837642	703850.7442182684
0.7175994893686615	704648.4849604103
0.7177190892835562	705446.3586593422
0.7178387091317702	707131.832133263
0.7179583489166254	708906.6729855188
0.7180780086414448	710681.8096445847
0.7181976883095517	712457.2421597603
0.7183173879242699	714232.9705803554
0.718437107488924	716008.9949556877
0.7185568470068389	717785.315335083
0.7186766064813399	719526.60002648
0.7187963859157535	720384.8035325861
0.7189161853134061	721243.1500726098
0.719036004677625	722101.6396703903
0.7191558440117378	722960.2723497698
0.7192757033190732	723819.0481345971
0.7193955826029597	724677.9670487209
0.7195154818667269	725537.0291159977
0.7196354011137046	726365.3992347775
0.7197553403472235	727051.9369856043
0.7198752995706147	727738.5891593893
0.7199952787872098	728425.3557752037
0.720115278000341	729112.2368521206
0.7202352972133411	729799.2324092172
0.7203553364295432	730486.3424655722
0.7204753956522815	731173.5670402709
0.7205954748848902	732018.24241333
0.7207155741307044	733209.9262172392
0.7208356933930594	734401.8086351136
0.7209558326752915	735593.889700058
0.7210759919807375	736786.1694451815
0.7211961713127342	737978.6479035942
0.7213163706746197	739171.3251084186
0.7214365900697322	740364.2010927759
0.7215568295014103	741309.2547784399
0.721677088972994	741958.535004833
0.7217973684878227	742607.9234445961
0.7219176680492374	743257.4201157666
0.7220379876605789	743907.0250363819
0.722158327325189	744556.7382244843
0.7222786870464099	745206.5596981177
0.7223990668275843	745856.4894753302
0.7225194666720555	746717.2708308666
0.7226398865831676	747727.5546719176
0.7227603265642646	748738.0068936063
0.722880786618692	749748.6275240008
0.7230012667497951	750759.4165911664
0.7231217669609201	751770.3741231766
0.7232422872554135	752781.5001481079
0.7233628276366229	753792.7946940451
0.7234833881078956	754984.8945217598
0.7236039686725803	756245.7738290863
0.7237245693340255	757506.863282962
0.7238451900955812	758768.1629184157
0.7239658309605971	760029.672770474
0.7240864919324239	761291.3928741758
0.7242071730144127	762553.3232645617
0.724327874209915	763815.4639766766
0.7244485955222832	764049.5945997635
0.7245693369548704	764113.7566808194
0.7246900985110294	764177.9294555554
0.7248108801941148	764242.112925754
0.7249316820074803	764306.3070931975
0.7250525039544815	764370.511959669
0.7251733460384739	764434.7275269516
0.7252942082628137	764501.3553171437
0.7254150906308574	765959.5111455845
0.7255359931459625	767417.9099999969
0.7256569158114868	768876.5519208855
0.7257778586307888	770335.4369487616
0.7258988216072273	771794.565124142
0.7260198047441617	773253.9364875499
0.7261408080449525	774713.551079521
0.72626183151296	776125.6302876285
0.7263828751515454	777220.4282800735
0.7265039389640706	778315.4087388502
0.726625022953898	779410.5716943708
0.7267461271243904	780505.9171770512
0.7268672514789111	781601.4452173114
0.7269883960208241	782697.1558455772
0.7271095607534942	783793.0490922818
0.7272307456802866	784855.6666445616
0.7273519508045666	785828.0822385667
0.7274731761297006	786800.6599018369
0.7275944216590555	787773.3996613844
0.7277156873959987	788746.3015442254
0.7278369733438982	789719.3655773818
0.727958279506122	790692.5917878745
0.7280796058860397	791665.9802027368
0.7282009524870207	792446.4652095204
0.7283223193124353	792941.5147165833
0.7284437063656539	793436.6467318963
0.7285651136500483	793931.8612692128
0.7286865411689898	794427.1583422844
0.7288079889258514	794922.5379648693
0.7289294569240056	795418.0001507236
0.7290509451668262	795913.5449136094
0.7291724536576875	796552.0471270245
0.7292939823999636	797309.0429589179
0.7294155313970303	798066.1649567849
0.7295371006522632	798823.4131416514
0.7296586901690385	799580.7875345481
0.7297802999507332	800338.2881565099
0.7299019300007252	801095.9150285773
0.7300235803223919	801853.668171788
0.7301452509191123	802938.838309003
0.7302669417942654	804175.2566969009
0.7303886529512311	805411.8811545304
0.7305103843933897	806648.7117162367
0.7306321361241218	807885.7484163688
0.7307539081468093	809122.9912892865
0.7308757004648336	810360.4403693471
0.7309975130815778	811598.0956909225
0.7311193460004248	813078.7027443592
0.7312411992247582	814614.5110379719
0.7313630727579622	816150.5752996334
0.7314849666034219	817686.8955720066
0.7316068807645224	819223.4718977576
0.7317288152446498	820760.3043195636
0.7318507700471907	822297.3928801074
0.7319727451755319	823834.7376220773
0.732094740633061	824647.3211371633
0.7322167564231665	825427.3995675787
0.7323387925492371	826207.6080110659
0.7324608490146619	826987.9464892934
0.732582925822831	827768.415023934
0.7327050229771347	828549.013636663
0.7328271404809642	829329.7423491614
0.7329492783377112	830101.7515916143
0.7330714365507675	830786.8886522732
0.7331936151235259	831472.1399024422
0.7333158140593796	832157.5053611521
0.7334380333617229	832842.9850474395
0.7335602730339499	833528.5789803414
0.7336825330794556	834214.2871788992
0.7338048135016354	834900.1096621553
0.7339271143038857	835770.8177045276
0.734049435489603	837260.7812688224
0.7341717770621846	838750.993160378
0.7342941390250283	840241.4534205814
0.7344165213815324	841732.1620908277
0.734538924135096	843223.1192125212
0.7346613472891185	844714.3248270664
0.734783790847	846205.7789758812
0.7349062548121412	847330.8359265205
0.7350287391879431	847808.0190072536
0.7351512439778078	848285.2816185011
0.7352737691851374	848762.6237735166
0.735396314813335	849240.0454855583
0.7355188808658037	849717.5467678845
0.7356414673459482	850195.1276337588
0.7357640742571725	850672.7880964439
0.7358867016028818	851384.5728428618
0.7360093493864824	852327.6164415396
0.7361320176113801	853270.8172141492
0.736254706280982	854214.1751868876
0.7363774153986956	855157.690385956
0.7365001449679286	856101.3628375557
0.7366228949920899	857045.192567898
0.7367456654745885	857989.1796031954
0.7368684564188344	859025.5781482316
0.7369912678282374	860114.2895438761
0.7371140997062088	861203.1823914202
0.7372369520561599	862292.2567211067
0.7373598248815024	863381.5125631791
0.7374827181856494	864470.9499478936
0.7376056319720137	865560.5689055056
0.7377285662440091	866650.3694662774
0.7378515210050496	867655.1470495078
0.7379744962585505	868634.4566202813
0.738097492007927	869613.9294093164
0.7382205082565949	870593.5654438157
0.738343545007971	871573.3647509872
0.7384666022654723	872553.3273580442
0.7385896800325165	873533.4532922009
0.7387127783125219	874513.7425806812
0.7388358971089073	875509.9646246462
0.7389590364250921	876507.9344129653
0.7390821962644963	877506.0705295831
0.7392053766305403	878504.373002219
0.7393285775266454	879502.841858601
0.7394517989562333	880501.4771264599
0.7395750409227259	881500.2788335286
0.7396983034295463	882489.7726881311
0.739821586480118	883268.6681720311
0.7399448900778645	884047.6934718434
0.7400682142262109	884826.8486092081
0.740191558928582	885606.1336057616
0.7403149241884034	886385.5484831472
0.7404383100091014	887165.0932630125
0.7405617163941028	887944.7679670074
0.7406851433468352	888664.9147873967
0.7408085908707264	889112.2614099598
0.7409320589692048	889559.6825902931
0.7410555476456997	890007.1783408235
0.7411790569036406	890454.7486739786
0.7413025867464579	890902.3936021895
0.7414261371775823	891350.1131378885
0.7415497082004452	891797.9072935097
0.7416732998184786	892266.1380876026
0.741796912035115	892778.127432248
0.7419205448537874	893290.2021084508
0.7420441982779297	893802.362130433
0.742167872310976	894314.6075124192
0.7422915669563612	894826.9382686358
0.7424152822175206	895339.3544133117
0.7425390180978901	895851.855960678
0.7426627746009065	896553.5742468166
0.7427865517300065	897485.9741106984
0.7429103494886282	898418.5293745586
0.7430341678802096	899351.2400642954
0.7431580069081896	900284.1062058137
0.7432818665760077	901217.1278250236
0.7434057468871037	902150.3049478359
0.7435296478449182	903083.6376001681
0.7436535694528923	903854.564175074
0.7437775117144678	904514.340813775
0.7439014746330868	905174.2274152482
0.7440254582121922	905834.2239978221
0.7441494624552276	906494.3305798268
0.7442734873656368	907154.5471795951
0.7443975329468645	907814.8738154637
0.7445215992023557	908475.3105057718
0.7446456861355559	908967.0924824402
0.7447697937499119	909396.7879564916
0.7448939220488703	909826.5550464554
0.7450180710358784	910256.393764267
0.7451422407143843	910686.3041218651
0.7452664310878367	911116.2861311897
0.7453906421596846	911546.3398041822
0.7455148739333779	911976.4651527869
0.7456391264123667	912291.319499738
0.7457633996001021	912587.7836642128
0.7458876935000356	912884.2972393822
0.7460120081156189	913180.8602334801
0.7461363434503048	913477.4726547438
0.7462606995075466	913774.1345114114
0.7463850762907978	914070.8458117214
0.7465094738035127	914367.4036701306
0.7466338920491467	914610.9350697036
0.746758331031155	914854.5070578434
0.7468827907529935	915098.1196413141
0.7470072712181189	915341.7728268823
0.7471317724299886	915585.4666213146
0.7472562943920602	915829.2010313793
0.7473808371077922	916072.9760638458
0.7475054005806435	916295.372460719
0.7476299848140736	916385.871652806
0.7477545898115426	916476.3859280916
0.7478792155765113	916566.9152890898
0.7480038621124406	916657.4597383147
0.7481285294227926	916748.0192782811
0.7482532175110298	916838.5939115044
0.7483779263806148	916929.1836404997
0.7485026560350116	916964.3700368879
0.7486274064776842	916849.5743899082
0.748752177712097	916734.7596103208
0.7488769697417158	916619.9256949365
0.749001782570006	916505.0726405666
0.7491266162004343	916390.2004440209
0.7492514706364677	916275.309102109
0.7493763458815739	916160.3986116402
0.7495012419392209	915929.131575641
0.7496261588128773	915530.5771276918
0.7497510965060128	915131.9562540011
0.7498760550220971	914733.2689434981
0.7500010343646007	914334.5151851102
0.7501260345369949	913935.6949677622
0.750251055542751	913536.8082803785
0.7503760973853414	913137.8551118799
0.7505011600682389	912563.0414207262
0.750626243594917	911841.3479315705
0.7507513479688495	911119.5341601676
0.7508764731935109	910397.6000864693
0.7510016192723765	909675.5456904252
0.7511267862089218	908953.3709519823
0.7512519740066232	908231.0758510829
0.7513771826689577	907508.6603676662
0.7515024121994025	906540.770056279
0.7516276626014359	905458.3204085582
0.751752933878536	904375.6903525647
0.7518782260341824	903292.8798582281
0.7520035390718548	902209.8888954754
0.7521288729950334	901126.7174342294
0.7522542278071992	900043.3654444064
0.7523796035118337	898959.832895918
0.7525050001124189	897481.820453967
0.7526304176124378	895917.8103961046
0.7527558560153731	894353.5396699011
0.752881315324709	892789.0082319085
0.7530067955439299	891224.2160386757
0.7531322966765205	889659.1630467462
0.7532578187259665	888093.8492126508
0.7533833616957542	886528.2744929164
0.75350892558937	884433.0786747108
0.7536345104103016	882312.6416291087
0.7537601161620366	880191.8511773335
0.7538857428480638	878070.7072604808
0.7540113904718717	875949.2098196449
0.7541370590369503	873827.3587959026
0.7542627485467898	871705.1541303216
0.7543884590048808	869520.2247541528
0.7545141904147151	866712.960445838
0.7546399427797842	863905.2282601431
0.7547657161035808	861097.0281190833
0.754891510389598	858288.3599446669
0.7550173256413296	855479.223658887
0.7551431618622698	852669.6191837267
0.7552690190559135	849859.5464411546
0.7553948972257561	846829.505550915
0.7555207963752938	843062.1814555764
0.755646716508023	839294.2294728906
0.755772657627441	835525.6494982064
0.7558986197370455	831756.4414268592
0.756024602840335	827986.6051541679
0.7561506069408084	824216.1405754309
0.7562766320419653	820445.0475859276
0.7564026781473054	816187.9860359282
0.75652874526033	811076.145981287
0.7566548333845401	805963.4539533006
0.7567809425234375	800849.9098099781
0.7569070726805247	795735.5134093013
0.7570332238593047	790620.264609225
0.7571593960632813	785504.1632676772
0.7572855892959586	780387.2092425721
0.7574118035608413	774691.8086427517
0.7575380388614347	768430.37999481
0.7576642952012449	762167.9077754247
0.7577905725837782	755904.3918106784
0.7579168710125422	749639.8319265936
0.7580431904910444	743374.2279491924
0.7581695310227928	737107.5797044695
0.7582958926112967	730839.8870183646
0.7584222752600652	723405.4418625095
0.7585486789726085	715300.1029584504
0.7586751037524372	707193.4131645709
0.7588015496030628	699085.3722557098
0.7589280165279966	690975.9800067134
0.7590545045307512	682865.2361923422
0.7591810136148396	674753.1405873353
0.7593075437837755	666639.6929663825
0.7594340950410726	656906.3507505422
0.7595606673902461	646701.7879811936
0.7596872608348112	636495.5244513733
0.7598138753782836	626287.5598776424
0.75994051102418	616077.8939764731
0.7600671677760173	605866.5264643284
0.7601938456373134	595653.4570575904
0.7603205446115863	585438.6854726237
0.7604472647023548	572895.2504293354
0.7605740059131385	560118.4251684597
0.7607007682474575	547339.4704366946
0.7608275517088319	534558.3858791693
0.7609543563007835	521775.17114085605
0.7610811820268336	508989.8258667608
0.7612080288905045	496202.3497018111
0.7613348968953197	483263.96225535666
0.7614617860448022	467270.78059681645
0.7615886963424764	451274.933407978
0.7617156277918667	435276.42024462356
0.7618425803964988	419275.2406623954
0.7619695541598982	403271.39421690773
0.7620965490855914	387264.880463691
0.7622235651771058	371255.6989581636
0.7623506024379685	355120.86377482675
0.7624776608717082	338444.28066445154
0.7626047404818536	321764.9181235572
0.7627318412719337	305082.77568893466
0.762858963245479	288397.8528972292
0.7629861064060198	271710.149285057
0.7631132707570876	255019.66438893205
0.7632404563022137	238326.39774533943
0.7633676630449308	222083.31169277887
0.7634948909887717	206801.7258725103
0.7636221401372697	191517.59312129155
0.7637494104939593	176230.91301459985
0.7638767020623748	160941.68512791244
0.7640040148460518	145649.9090365598
0.7641313488485262	130355.58431585923
0.7642587040733344	115058.71054102117
0.7643860805240132	102027.86228472978
0.7645134782041005	91701.93224469575
0.7646408971171346	81374.28121631741
0.764768337266654	71044.90891277145
0.7648957986561985	60713.81504717157
0.7650232812893079	50380.999332595464
0.7651507851695227	40046.46148206682
0.7652783103003843	29710.201208564366
0.7654058566854343	23789.877601711272
0.7655334243282153	20879.317649017947
0.7656610132322699	17968.272603002966
0.765788623401142	15056.742382810913
0.7659162548383754	12144.726907583832
0.7660439075475152	9232.226096443508
0.7661715815321064	6319.239868501594
