#wavelength	surface flux
0.7	2829592.2418213524
0.7001166666666666	2833749.5670515583
0.7002333527777778	2836974.6942162346
0.700350058336574	2840200.3589021033
0.7004667833462966	2843426.561198748
0.7005835278101878	2846653.3011957854
0.7007002917314895	2849880.5789828165
0.7008170751134447	2853108.3946494786
0.7009338779592968	2856336.748285417
0.7010507002722901	2859309.0147435195
0.7011675420556689	2861969.4807273964
0.701284403312678	2864630.390122266
0.7014012840465635	2867291.7430020384
0.7015181842605713	2869953.539440624
0.701635103957948	2872615.779511947
0.701752043141941	2875278.4632899486
0.701869001815798	2877941.5908485833
0.7019859799827672	2879920.932125717
0.7021029776460976	2881424.4176457943
0.7022199948090387	2882928.153746794
0.7023370314748403	2884432.1404704764
0.7024540876467528	2885936.377858612
0.702571163328027	2887440.865952977
0.7026882585219152	2888945.6047953614
0.7028053732316688	2890450.594427551
0.7029225074605406	2893671.440587224
0.7030396612117841	2897555.2975934604
0.7031568344886527	2901439.8019091985
0.7032740272944008	2905324.95364232
0.7033912396322832	2909210.7529007327
0.7035084715055552	2913097.1997923506
0.7036257229174727	2916984.294425119
0.7037429938712924	2920872.0369069963
0.7038602843702709	2925082.970400461
0.7039775944176659	2929349.3113785344
0.7040949240167356	2933616.3634134387
0.7042122731707383	2937884.1266236803
0.7043296418829335	2942152.6011277926
0.7044470301565806	2946421.7870443217
0.70456443799494	2950691.684491833
0.7046818654012724	2954962.293588922
0.7047993123788394	2958437.0739159756
0.7049167789309024	2961911.5193074606
0.7050342650607243	2965386.543773183
0.7051517707715678	2968862.147409648
0.7052692960666963	2972338.3303133845
0.705386840949374	2975815.0925809364
0.7055044054228656	2979292.4343088716
0.7056219894904361	2982657.129154672
0.7057395931553511	2985302.8428160427
0.705857216420877	2987948.997429693
0.7059748592902804	2990595.5930691105
0.7060925217668288	2993242.6298078042
0.70621020385379	2995890.107719287
0.7063279055544321	2998538.026877085
0.7064456268720246	3001186.387354747
0.7065633678098366	3004044.838040666
0.7066811283711383	3007481.14181555
0.7067989085592001	3010918.0183077296
0.7069167083772933	3014355.467612656
0.7070345278286895	3017793.4898258015
0.707152366916661	3021232.0850426503
0.7072702256444803	3024671.253358698
0.7073881040154211	3028110.994869469
0.7075060020327569	3031498.2360633495
0.7076239196997625	3034808.748189533
0.7077418570197124	3038119.812067734
0.7078598139958823	3041431.427789915
0.7079777906315483	3044743.595448053
0.7080957869299869	3048056.315134131
0.7082138028944751	3051369.5869401554
0.7083318385282908	3054683.4109581495
0.7084498938347124	3057896.365418735
0.708567968817018	3061023.867845248
0.7086860634784875	3064151.8915221696
0.7088041778224007	3067280.4365363726
0.7089223118520377	3070409.502974741
0.7090404655706796	3073539.0909241806
0.709158638981608	3076669.2004716154
0.709276832088105	3079799.831703975
0.7093950448934531	3083143.3283517733
0.7095132774009353	3086588.6512233946
0.7096315296138355	3090034.5483154957
0.7097498015354378	3093481.019723778
0.7098680931690269	3096928.0655439585
0.7099864045178884	3100375.6858717795
0.7101047355853081	3103823.8808029885
0.7102230863745722	3107272.65043335
0.7103414568889679	3110408.635952087
0.7104598471317828	3113473.941608772
0.7105782571063047	3116539.758149731
0.7106966868158224	3119606.0856601135
0.710815136263625	3122672.92422508
0.7109336054530023	3125740.273929809
0.7110520943872445	3128808.1348594883
0.7111706030696424	3131876.5070993244
0.7112891315034873	3135119.440672567
0.7114076796920712	3138371.219158543
0.7115262476386865	3141623.5396075994
0.7116448353466263	3144876.402110062
0.711763442819184	3148129.8067562766
0.711882070059654	3151383.753636602
0.7120007170713306	3154638.2428414053
0.7121193838575091	3157938.5209765243
0.7122380704214853	3161711.2587322486
0.7123567767665555	3165484.6252775947
0.7124755028960166	3169258.6207173667
0.7125942488131658	3173033.245156376
0.7127130145213015	3176808.498699469
0.7128318000237216	3180584.381451474
0.7129506053237256	3184360.8935172763
0.7130694304246129	3188004.366126895
0.7131882753296837	3191181.092506402
0.7133071400422386	3194358.3483403064
0.7134260245655789	3197536.1337168477
0.7135449289030065	3200714.448724286
0.7136638530578235	3203893.293450891
0.7137827970333332	3207072.6679849545
0.7139017608328388	3210252.572414773
0.7140207444596443	3213526.1417668182
0.7141397479170543	3216966.400199946
0.7142587712083737	3220407.232009474
0.7143778143369084	3223848.6372909737
0.7144968773059646	3227290.6161400205
0.7146159601188489	3230733.1686522076
0.7147350627788687	3234176.2949231477
0.7148541852893318	3237619.9950484643
0.7149733276535467	3240937.867977094
0.7150924898748222	3244128.8337934264
0.715211671956468	3247320.3314373954
0.7153308739017941	3250512.3609976405
0.715450095714111	3253704.922562811
0.71556933739673	3256898.0162215764
0.7156885989529628	3260091.642062618
0.7158078803861218	3263285.8001746377
0.7159271816995193	3264823.87165689
0.7160465028964692	3265389.867491496
0.7161658439802853	3265955.95765874
0.7162852049542819	3266522.142174346
0.7164045858217744	3267088.421054038
0.716523986586078	3267654.794313543
0.7166434072505089	3268221.2619685913
0.716762847818384	3268787.8240349153
0.7168823082930204	3270823.091530514
0.7170017886777359	3273290.757344412
0.7171212889758488	3275758.8344359444
0.7172408091906781	3278227.3228736594
0.7173603493255433	3280696.2227261146
0.7174799093837642	3283165.5340618775
0.7175994893686615	3285635.2569495304
0.7177190892835562	3288105.3914576634
0.7178387091317702	3294551.2493306175
0.7179583489166254	3301397.234717659
0.7180780086414448	3308244.361102271
0.7181976883095517	3315092.6286746133
0.7183173879242699	3321942.037624885
0.718437107488924	3328792.5881433166
0.7185568470068389	3335644.2804201706
0.7186766064813399	3342370.6491998155
0.7187963859157535	3345936.2241867743
0.7189161853134061	3349502.3934362303
0.719036004677625	3353069.157047229
0.7191558440117378	3356636.5151188266
0.7192757033190732	3360204.467750108
0.7193955826029597	3363773.0150401574
0.7195154818667269	3367342.157088091
0.7196354011137046	3370675.280377111
0.7197553403472235	3372919.547804119
0.7198752995706147	3375164.189275698
0.7199952787872098	3377409.20485419
0.720115278000341	3379654.594601945
0.7202352972133411	3381900.358581325
0.7203553364295432	3384146.496854698
0.7204753956522815	3386393.009484453
0.7205954748848902	3389276.585083638
0.7207155741307044	3393564.3015734237
0.7208356933930594	3397852.7326826174
0.7209558326752915	3402141.87853033
0.7210759919807375	3406431.73923569
0.7211961713127342	3410722.3149178284
0.7213163706746197	3415013.6056959205
0.7214365900697322	3419305.6116891378
0.7215568295014103	3422665.6236997647
0.721677088972994	3424913.3163703377
0.7217973684878227	3427161.383656352
0.7219176680492374	3429409.8256202494
0.7220379876605789	3431658.6423244732
0.722158327325189	3433907.8338314816
0.7222786870464099	3436157.40020374
0.7223990668275843	3438407.3415037286
0.7225194666720555	3440790.8409486427
0.7226398865831676	3443269.127879436
0.7227603265642646	3445747.827858045
0.722880786618692	3448226.940953323
0.7230012667497951	3450706.467234115
0.7231217669609201	3453186.4067692873
0.7232422872554135	3455666.7596277134
0.7233628276366229	3458147.525878287
0.7234833881078956	3462517.8231596816
0.7236039686725803	3467606.0738607766
0.7237245693340255	3472695.1726036468
0.7238451900955812	3477785.11952965
0.7239658309605971	3482875.9147801353
0.7240864919324239	3487967.558496502
0.7242071730144127	3493060.0508201555
0.724327874209915	3498153.391892519
0.7244485955222832	3499745.562769968
0.7245693369548704	3500758.969740296
0.7246900985110294	3501772.545611784
0.7248108801941148	3502786.2904125866
0.7249316820074803	3503800.204170853
0.7250525039544815	3504814.286914747
0.7251733460384739	3505828.538672432
0.7252942082628137	3506850.918541345
0.7254150906308574	3512485.2056277664
0.7255359931459625	3518120.4317620364
0.7256569158114868	3523756.5971006635
0.7257778586307888	3529393.7018001834
0.7258988216072273	3535031.746017152
0.7260198047441617	3540670.72990815
0.7261408080449525	3546310.6536298064
0.72626183151296	3551655.622341749
0.7263828751515454	3555035.08985534
0.7265039389640706	3558415.120613516
0.726625022953898	3561795.7147101536
0.7267461271243904	3565176.8722391427
0.7268672514789111	3568558.5932943844
0.7269883960208241	3571940.8779697986
0.7271095607534942	3575323.726359328
0.7272307456802866	3578528.7451209254
0.7273519508045666	3581252.4143222994
0.7274731761297006	3583976.537468539
0.7275944216590555	3586701.114635303
0.7277156873959987	3589426.1458982625
0.7278369733438982	3592151.6313331034
0.727958279506122	3594877.57101551
0.7280796058860397	3597603.9650211995
0.7282009524870207	3600507.7050613677
0.7283223193124353	3603673.571485716
0.7284437063656539	3606839.9655544613
0.7285651136500483	3610006.8873555567
0.7286865411689898	3613174.336976946
0.7288079889258514	3616342.314506613
0.7289294569240056	3619510.8200325277
0.7290509451668262	3622679.8536427007
0.7291724536576875	3625983.382172831
0.7292939823999636	3629398.4671627157
0.7294155313970303	3632814.1213334394
0.7295371006522632	3636230.344779857
0.7296586901690385	3639647.1375968466
0.7297802999507332	3643064.4998793043
0.7299019300007252	3646482.431722151
0.7300235803223919	3649900.9332202957
0.7301452509191123	3653487.3929490107
0.7302669417942654	3657151.711829689
0.7303886529512311	3660816.6414301815
0.7305103843933897	3664482.181852275
0.7306321361241218	3668148.3331977697
0.7307539081468093	3671815.0955684953
0.7308757004648336	3675482.4690662744
0.7309975130815778	3679150.4537929744
0.7311193460004248	3683607.4735363093
0.7312411992247582	3688243.7251736945
0.7313630727579622	3692880.749519685
0.7314849666034219	3697518.546703071
0.7316068807645224	3702157.116852651
0.7317288152446498	3706796.4600972584
0.7318507700471907	3711436.5765657425
0.7319727451755319	3716077.466386969
0.732094740633061	3719026.577220867
0.7322167564231665	3721899.980325056
0.7323387925492371	3724773.8623297624
0.7324608490146619	3727648.223314802
0.732582925822831	3730523.063360007
0.7327050229771347	3733398.3825452155
0.7328271404809642	3736274.180950292
0.7329492783377112	3739076.751744045
0.7330714365507675	3741155.172692806
0.7331936151235259	3743233.9400450583
0.7333158140593796	3745313.0538585335
0.7334380333617229	3747392.5141909807
0.7335602730339499	3749472.3211001507
0.7336825330794556	3751552.4746438065
0.7338048135016354	3753632.974879715
0.7339271143038857	3756141.399374221
0.734049435489603	3760082.919784841
0.7341717770621846	3764025.0971155306
0.7342941390250283	3767967.9314757735
0.7344165213815324	3771911.4229750745
0.734538924135096	3775855.5717229648
0.7346613472891185	3779800.3778289743
0.734783790847	3783745.8414026694
0.7349062548121412	3787014.133079516
0.7350287391879431	3789084.8781930814
0.7351512439778078	3791155.9684308367
0.7352737691851374	3793227.4038502956
0.735396314813335	3795299.1845089933
0.7355188808658037	3797371.3104644637
0.7356414673459482	3799443.7817742643
0.7357640742571725	3801516.598495948
0.7358867016028818	3804515.2428136906
0.7360093493864824	3808428.3839658224
0.7361320176113801	3812342.177308141
0.736254706280982	3816256.6229493497
0.7363774153986956	3820171.720998171
0.7365001449679286	3824087.471563325
0.7366228949920899	3828003.8747535767
0.7367456654745885	3831920.9306776933
0.7368684564188344	3835219.546173984
0.7369912678282374	3838168.8129700962
0.7371140997062088	3841118.571310676
0.7372369520561599	3844068.8212776487
0.7373598248815024	3847019.562952942
0.7374827181856494	3849970.79641852
0.7376056319720137	3852922.5217563426
0.7377285662440091	3855874.7390483883
0.7378515210050496	3858083.9824534683
0.7379744962585505	3860069.9077868373
0.738097492007927	3862056.164107762
0.7382205082565949	3864042.7514714054
0.738343545007971	3866029.6699329424
0.7384666022654723	3868016.9195475583
0.7385896800325165	3870004.50037044
0.7387127783125219	3871992.412456795
0.7388358971089073	3876489.6044639847
0.7389590364250921	3881239.199775348
0.7390821962644963	3885989.586685933
0.7392053766305403	3890740.7653276636
0.7393285775266454	3895492.735832504
0.7394517989562333	3900245.4983324334
0.7395750409227259	3904999.0529594384
0.7396983034295463	3909670.7589694825
0.739821586480118	3912504.8358068713
0.7399448900778645	3915339.3849903946
0.7400682142262109	3918174.40659879
0.740191558928582	3921009.9007107844
0.7403149241884034	3923845.867405128
0.7404383100091014	3926682.3067605887
0.7405617163941028	3929519.2188559393
0.7406851433468352	3932040.675585088
0.7408085908707264	3933117.2570890104
0.7409320589692048	3934194.0180231836
0.7410555476456997	3935270.958417513
0.7411790569036406	3936348.0783019075
0.7413025867464579	3937425.3777062832
0.7414261371775823	3938502.85666056
0.7415497082004452	3939580.515194661
0.7416732998184786	3941026.0763214016
0.741796912035115	3943260.7165724817
0.7419205448537874	3945495.729263603
0.7420441982779297	3947731.1144568394
0.742167872310976	3949966.872214277
0.7422915669563612	3952203.002598007
0.7424152822175206	3954439.505670134
0.7425390180978901	3956676.3814927717
0.7426627746009065	3959285.8529107543
0.7427865517300065	3962349.525466981
0.7429103494886282	3965413.708635303
0.7430341678802096	3968478.402500818
0.7431580069081896	3971543.6071486436
0.7432818665760077	3974609.3226639144
0.7434057468871037	3977675.549131769
0.7435296478449182	3980742.2866373663
0.7436535694528923	3982620.8983401195
0.7437775117144678	3983686.1647099634
0.7439014746330868	3984751.608624201
0.7440254582121922	3985817.2301124246
0.7441494624552276	3986883.0292042303
0.7442734873656368	3987949.0059292177
0.7443975329468645	3989015.1603169935
0.7445215992023557	3990081.4923971673
0.7446456861355559	3990444.3013701835
0.7447697937499119	3990547.946110535
0.7448939220488703	3990651.6081250096
0.7450180710358784	3990755.287416487
0.7451422407143843	3990858.983987846
0.7452664310878367	3990962.6978419675
0.7453906421596846	3991066.4289817307
0.7455148739333779	3991170.1774100172
0.7456391264123667	3993021.6950771566
0.7457633996001021	3995152.977202525
0.7458876935000356	3997284.614541584
0.7460120081156189	3999416.6071535298
0.7461363434503048	4001548.9550975775
0.7462606995075466	4003681.6584329517
0.7463850762907978	4005814.7172188787
0.7465094738035127	4007947.816240525
0.7466338920491467	4009998.7968339324
0.746758331031155	4012050.119257441
0.7468827907529935	4014101.783568017
0.7470072712181189	4016153.789822646
0.7471317724299886	4018206.138078317
0.7472562943920602	4020258.8283920297
0.7473808371077922	4022311.860820796
0.7475054005806435	4024143.4375320845
0.7476299848140736	4024609.1314901393
0.7477545898115426	4025074.9030638537
0.7478792155765113	4025540.752266164
0.7480038621124406	4026006.6791100074
0.7481285294227926	4026472.6836083247
0.7482532175110298	4026938.765774059
0.7483779263806148	4027404.925620154
0.7485026560350116	4027605.28707646
0.7486274064776842	4027086.098264648
0.748752177712097	4026566.8229213683
0.7488769697417158	4026047.461032197
0.749001782570006	4025528.012582711
0.7491266162004343	4025008.477558484
0.7492514706364677	4024488.8559450856
0.7493763458815739	4023969.1477280846
0.7495012419392209	4023138.7926195227
0.7496261588128773	4021861.831715902
0.7497510965060128	4020584.657985463
0.7498760550220971	4019307.2713927357
0.7500010343646007	4018029.671902243
0.7501260345369949	4016751.8594785016
0.750251055542751	4015473.8340860237
0.7503760973853414	4014195.5956893135
0.7505011600682389	4012262.3335234905
0.750626243594917	4009781.9971612063
0.7507513479688495	4007301.2474095323
0.7508764731935109	4004820.084199565
0.7510016192723765	4002338.507462396
0.7511267862089218	3999856.517129106
0.7512519740066232	3997374.11313076
0.7513771826689577	3994891.2953984123
0.7515024121994025	3991836.945968923
0.7516276626014359	3988515.8002238534
0.751752933878536	3985194.100954499
0.7518782260341824	3981871.8480685987
0.7520035390718548	3978549.0414738823
0.7521288729950334	3975225.6810780684
0.7522542278071992	3971901.766788855
0.7523796035118337	3968577.298513925
0.7525050001124189	3963984.7700999314
0.7526304176124378	3959115.822043281
0.7527558560153731	3954246.0624952945
0.752881315324709	3949375.491320712
0.7530067955439299	3944504.108384265
0.7531322966765205	3939631.9135506684
0.7532578187259665	3934758.9066845984
0.7533833616957542	3929885.0876507172
0.75350892558937	3922927.1579125244
0.7536345104103016	3915870.1058744127
0.7537601161620366	3908811.8776609655
0.7538857428480638	3901752.473076142
0.7540113904718717	3894691.8919238974
0.7541370590369503	3887630.1340081287
0.7542627485467898	3880567.199132703
0.7543884590048808	3873436.277904547
0.7545141904147151	3865637.939307502
0.7546399427797842	3857838.30098737
0.7547657161035808	3850037.3627275163
0.754891510389598	3842235.124311287
0.7550173256413296	3834431.585521985
0.7551431618622698	3826626.7461428866
0.7552690190559135	3818820.605957227
0.7553948972257561	3809994.619755919
0.7555207963752938	3797748.290481715
0.755646716508023	3785499.9201526386
0.755772657627441	3773249.5084285033
0.7558986197370455	3760997.054969079
0.756024602840335	3748742.5594340805
0.7561506069408084	3736486.0214831606
0.7562766320419653	3724227.440775904
0.7564026781473054	3710518.0089652725
0.75652874526033	3694256.776688035
0.7566548333845401	3677992.8342054095
0.7567809425234375	3661726.18106571
0.7569070726805247	3645456.816817162
0.7570332238593047	3629184.741007909
0.7571593960632813	3612909.9531860054
0.7572855892959586	3596632.452899464
0.7574118035608413	3579389.113879858
0.7575380388614347	3561200.6435522973
0.7576642952012449	3543009.1418130086
0.7577905725837782	3524814.6081567896
0.7579168710125422	3506617.042078262
0.7580431904910444	3488416.443072048
0.7581695310227928	3470212.8106326894
0.7582958926112967	3452006.1442545676
0.7584222752600652	3429334.1559717795
0.7585486789726085	3404094.975177898
0.7586751037524372	3378851.587853875
0.7588015496030628	3353603.993298582
0.7589280165279966	3328352.1908109128
0.7590545045307512	3303096.179689496
0.7591810136148396	3277835.9592328924
0.7593075437837755	3252571.528739509
0.7594340950410726	3221809.881316807
0.7595606673902461	3189449.384967719
0.7596872608348112	3157083.4952025414
0.7598138753782836	3124712.211122438
0.75994051102418	3092335.531828291
0.7600671677760173	3059953.456420953
0.7601938456373134	3027565.9840010228
0.7603205446115863	2995173.113669041
0.7604472647023548	2953867.8560167975
0.7605740059131385	2911670.3605611604
0.7607007682474575	2869465.832189573
0.7608275517088319	2827254.269730017
0.7609543563007835	2785035.6720099575
0.7610811820268336	2742810.0378569704
0.7612080288905045	2700577.366098372
0.7613348968953197	2657675.119524994
0.7614617860448022	2601171.9460274507
0.7615886963424764	2544659.3553342475
0.7617156277918667	2488137.345875983
0.7618425803964988	2431605.9160827626
0.7619695541598982	2375065.0643845918
0.7620965490855914	2318514.7892111796
0.7622235651771058	2261955.0889918394
0.7623506024379685	2203301.025247705
0.7624776608717082	2135498.679768268
0.7626047404818536	2067685.0338979145
0.7627318412719337	1999860.085753366
0.762858963245479	1932023.8334507504
0.7629861064060198	1864176.2751060785
0.7631132707570876	1796317.4088349452
0.7632404563022137	1728447.2327528277
0.7633676630449308	1656666.4761301302
0.7634948909887717	1576573.5073110159
0.7636221401372697	1496467.189663869
0.7637494104939593	1416347.5209637056
0.7638767020623748	1336214.498985541
0.7640040148460518	1256068.1215036223
0.7641313488485262	1175908.386292126
0.7642587040733344	1095735.2911246703
0.7643860805240132	1013970.1626694242
0.7645134782041005	930307.5788247164
0.7646408971171346	846631.0512159996
0.764768337266654	762940.5775193789
0.7648957986561985	679236.1554104481
0.7650232812893079	595517.7825645104
