#wavelength	surface flux
0.7	1049321.9803324193
0.7001166666666666	1050870.779480294
0.7002333527777778	1052227.0318995253
0.700350058336574	1053583.5103608258
0.7004667833462966	1054940.214901868
0.7005835278101878	1056297.1455603377
0.7007002917314895	1057654.3023739147
0.7008170751134447	1059011.6853802938
0.7009338779592968	1060369.2946171733
0.7010507002722901	1061547.445261642
0.7011675420556689	1062507.1277351505
0.701284403312678	1063466.970155736
0.7014012840465635	1064426.9725500597
0.7015181842605713	1065387.1349447824
0.701635103957948	1066347.45736657
0.701752043141941	1067307.9398420944
0.701869001815798	1068268.5823980328
0.7019859799827672	1069341.1033907225
0.7021029776460976	1070491.5528037488
0.7022199948090387	1071642.193958345
0.7023370314748403	1072793.0268864667
0.7024540876467528	1073944.0516200762
0.702571163328027	1075095.2681911392
0.7026882585219152	1076246.6766316341
0.7028053732316688	1077398.276973534
0.7029225074605406	1079135.622166959
0.7030396612117841	1081099.3657537536
0.7031568344886527	1083063.4366311461
0.7032740272944008	1085027.8348536836
0.7033912396322832	1086992.560475926
0.7035084715055552	1088957.6135524367
0.7036257229174727	1090922.9941377942
0.7037429938712924	1092888.7022865845
0.7038602843702709	1094725.2788417328
0.7039775944176659	1096540.204263313
0.7040949240167356	1098355.432172464
0.7042122731707383	1100170.962619599
0.7043296418829335	1101986.795655143
0.7044470301565806	1103802.9313295258
0.70456443799494	1105619.3696931861
0.7046818654012724	1107436.110796575
0.7047993123788394	1108954.2206846187
0.7049167789309024	1110472.240550937
0.7050342650607243	1111990.5134205683
0.7051517707715678	1113509.0393356774
0.7052692960666963	1115027.8183384384
0.705386840949374	1116546.8504710323
0.7055044054228656	1118066.1357756509
0.7056219894904361	1119528.5026838018
0.7057395931553511	1120627.7938200668
0.705857216420877	1121727.268171522
0.7059748592902804	1122826.925768702
0.7060925217668288	1123926.766642149
0.70621020385379	1125026.7908224084
0.7063279055544321	1126126.9983400297
0.7064456268720246	1127227.389225572
0.7065633678098366	1128387.8322227204
0.7066811283711383	1129713.3481608226
0.7067989085592001	1131039.085018248
0.7069167083772933	1132365.0428318153
0.7070345278286895	1133691.2216383526
0.707152366916661	1135017.621474691
0.7072702256444803	1136344.2423776675
0.7073881040154211	1137671.0843841294
0.7075060020327569	1139128.2179857022
0.7076239196997625	1140775.0222069283
0.7077418570197124	1142422.1008955229
0.7078598139958823	1144069.454097232
0.7079777906315483	1145717.0818578098
0.7080957869299869	1147364.984223013
0.7082138028944751	1149013.1612386096
0.7083318385282908	1150661.6129503767
0.7084498938347124	1151847.8859667098
0.708567968817018	1152642.2792216155
0.7086860634784875	1153436.8048753983
0.7088041778224007	1154231.4629501237
0.7089223118520377	1155026.2534678606
0.7090404655706796	1155821.1764506835
0.709158638981608	1156616.231920671
0.709276832088105	1157411.4198999037
0.7093950448934531	1158853.2712582566
0.7095132774009353	1160603.7004612675
0.7096315296138355	1162354.4214024793
0.7097498015354378	1164105.4341305143
0.7098680931690269	1165856.7386940022
0.7099864045178884	1167608.3351415864
0.7101047355853081	1169360.2235219113
0.7102230863745722	1171112.4038836318
0.7103414568889679	1172760.6946024839
0.7104598471317828	1174385.5875058474
0.7105782571063047	1176010.7512246934
0.7106966868158224	1177636.1858041594
0.710815136263625	1179261.891289388
0.7109336054530023	1180887.8677255323
0.7110520943872445	1182514.1151577483
0.7111706030696424	1184140.633631204
0.7112891315034873	1185434.7986786496
0.7114076796920712	1186713.3089468365
0.7115262476386865	1187992.0323000683
0.7116448353466263	1189270.968773858
0.711763442819184	1190550.1184037272
0.711882070059654	1191829.4812252026
0.7120007170713306	1193109.057273814
0.7121193838575091	1194394.1159592292
0.7122380704214853	1195734.347044451
0.7123567767665555	1197074.801501519
0.7124755028960166	1198415.4793676639
0.7125942488131658	1199756.3806801187
0.7127130145213015	1201097.5054761292
0.7128318000237216	1202438.853792935
0.7129506053237256	1203780.4256677954
0.7130694304246129	1205101.3295830667
0.7131882753296837	1206349.4094133521
0.7133071400422386	1207597.6972569427
0.7134260245655789	1208846.1931485063
0.7135449289030065	1210094.8971227189
0.7136638530578235	1211343.80921426
0.7137827970333332	1212592.929457818
0.7139017608328388	1213842.257888083
0.7140207444596443	1215083.3224998994
0.7141397479170543	1216309.480677558
0.7142587712083737	1217535.8432149112
0.7143778143369084	1218762.4101460215
0.7144968773059646	1219989.1815049541
0.7146159601188489	1221216.1573257793
0.7147350627788687	1222443.3376425747
0.7148541852893318	1223670.7224894227
0.7149733276535467	1224607.8051999684
0.7150924898748222	1225252.1036274375
0.715211671956468	1225896.5094379778
0.7153308739017941	1226541.022649487
0.715450095714111	1227185.6432798645
0.71556933739673	1227830.3713470139
0.7156885989529628	1228475.206868841
0.7158078803861218	1229120.1498632561
0.7159271816995193	1228807.1197508697
0.7160465028964692	1227931.7039293563
0.7161658439802853	1227056.1422052062
0.7162852049542819	1226180.4345541021
0.7164045858217744	1225304.5809517223
0.716523986586078	1224428.5813737425
0.7166434072505089	1223552.4357958334
0.716762847818384	1222676.1441936612
0.7168823082930204	1223012.934526892
0.7170017886777359	1223706.7075017297
0.7171212889758488	1224400.5961053963
0.7172408091906781	1225094.6003571637
0.7173603493255433	1225788.7202763066
0.7174799093837642	1226482.9558821023
0.7175994893686615	1227177.3071938325
0.7177190892835562	1227871.774230781
0.7178387091317702	1231596.7667196628
0.7179583489166254	1235626.5812714149
0.7180780086414448	1239657.0674589288
0.7181976883095517	1243688.2253941407
0.7183173879242699	1247720.0551890086
0.718437107488924	1251752.5569555098
0.7185568470068389	1255785.7308056406
0.7186766064813399	1259698.3610424404
0.7187963859157535	1260580.9810229936
0.7189161853134061	1261463.7481068766
0.719036004677625	1262346.662318607
0.7191558440117378	1263229.7236827058
0.7192757033190732	1264112.9322236995
0.7193955826029597	1264996.2879661159
0.7195154818667269	1265879.7909344898
0.7196354011137046	1266653.5470354487
0.7197553403472235	1266921.459933243
0.7198752995706147	1267189.417483187
0.7199952787872098	1267457.4196927228
0.720115278000341	1267725.4665692935
0.7202352972133411	1267993.5581203436
0.7203553364295432	1268261.6943533185
0.7204753956522815	1268529.8752756661
0.7205954748848902	1269311.7478047372
0.7207155741307044	1271226.1501089688
0.7208356933930594	1273140.8714802477
0.7209558326752915	1275055.9119717556
0.7210759919807375	1276971.2716366812
0.7211961713127342	1278886.9505282152
0.7213163706746197	1280802.9486995675
0.7214365900697322	1282719.2662039464
0.7215568295014103	1283821.2380398219
0.721677088972994	1283951.3608864606
0.7217973684878227	1284081.5054202406
0.7219176680492374	1284211.6716447761
0.7220379876605789	1284341.8595636822
0.722158327325189	1284472.0691805752
0.7222786870464099	1284602.3004990707
0.7223990668275843	1284732.553522786
0.7225194666720555	1285460.918660069
0.7226398865831676	1286613.2868345033
0.7227603265642646	1287765.8470702972
0.722880786618692	1288918.5993994665
0.7230012667497951	1290071.543854023
0.7231217669609201	1291224.6804659888
0.7232422872554135	1292378.0092673888
0.7233628276366229	1293531.530290258
0.7234833881078956	1295244.310275026
0.7236039686725803	1297169.6317769187
0.7237245693340255	1299095.2741657253
0.7238451900955812	1301021.2374949337
0.7239658309605971	1302947.521818028
0.7240864919324239	1304874.1271885121
0.7242071730144127	1306801.0536598912
0.724327874209915	1308728.3012856783
0.7244485955222832	1307309.2092829945
0.7245693369548704	1305336.5386699177
0.7246900985110294	1303363.5392784085
0.7248108801941148	1301390.211053662
0.7249316820074803	1299416.5539408848
0.7250525039544815	1297442.567885252
0.7251733460384739	1295468.252831943
0.7252942082628137	1293501.2262686451
0.7254150906308574	1295947.7172726179
0.7255359931459625	1298394.6160250911
0.7256569158114868	1300841.9225940243
0.7257778586307888	1303289.6370473867
0.7258988216072273	1305737.7594531572
0.7260198047441617	1308186.289879326
0.7261408080449525	1310635.2283939035
0.72626183151296	1312924.5253845437
0.7263828751515454	1314150.581969318
0.7265039389640706	1315376.8428968564
0.726625022953898	1316603.3082012169
0.7267461271243904	1317829.9779164619
0.7268672514789111	1319056.8520766585
0.7269883960208241	1320283.930715881
0.7271095607534942	1321511.2138682108
0.7272307456802866	1322622.7127239588
0.7273519508045666	1323421.0829658918
0.7274731761297006	1324219.5862695314
0.7275944216590555	1325018.2226570551
0.7277156873959987	1325816.9921506436
0.7278369733438982	1326615.8947724823
0.727958279506122	1327414.930544756
0.7280796058860397	1328214.099489659
0.7282009524870207	1328365.8350989851
0.7283223193124353	1327559.7729861923
0.7284437063656539	1326753.5765297157
0.7285651136500483	1325947.2457071617
0.7286865411689898	1325140.7804961388
0.7288079889258514	1324334.1808742457
0.7289294569240056	1323527.446819084
0.7290509451668262	1322720.5783082454
0.7291724536576875	1322326.7308124464
0.7292939823999636	1322275.1614767027
0.7294155313970303	1322223.58354607
0.7295371006522632	1322171.9970191151
0.7296586901690385	1322120.401894406
0.7297802999507332	1322068.7981705093
0.7299019300007252	1322017.1858459918
0.7300235803223919	1321965.5649194205
0.7301452509191123	1322859.291229997
0.7302669417942654	1324189.5138697047
0.7303886529512311	1325519.9582131861
0.7305103843933897	1326850.6242973916
0.7306321361241218	1328181.512159277
0.7307539081468093	1329512.6218358083
0.7308757004648336	1330843.9533639494
0.7309975130815778	1332175.5067806803
0.7311193460004248	1334141.5420310346
0.7312411992247582	1336251.4933001285
0.7313630727579622	1338361.7962277667
0.7314849666034219	1340472.4508725617
0.7316068807645224	1342583.4572931293
0.7317288152446498	1344694.8155481014
0.7318507700471907	1346806.5256961174
0.7319727451755319	1348918.5877958236
0.732094740633061	1348708.3578980155
0.7322167564231665	1348393.526793075
0.7323387925492371	1348078.6432162835
0.7324608490146619	1347763.7071588961
0.732582925822831	1347448.7186121657
0.7327050229771347	1347133.6775673444
0.7328271404809642	1346818.584015682
0.7329492783377112	1346470.9128176945
0.7330714365507675	1345803.4272178935
0.7331936151235259	1345135.830370493
0.7333158140593796	1344468.1222569519
0.7334380333617229	1343800.302858724
0.7335602730339499	1343132.3721572629
0.7336825330794556	1342464.330134018
0.7338048135016354	1341796.1767704375
0.7339271143038857	1341666.7928122499
0.734049435489603	1343343.0073632537
0.7341717770621846	1345019.5012833497
0.7342941390250283	1346696.2746190983
0.7344165213815324	1348373.3274170689
0.734538924135096	1350050.6597238416
0.7346613472891185	1351728.2715859965
0.734783790847	1353406.1630501288
0.7349062548121412	1353947.236636856
0.7350287391879431	1352478.5340854346
0.7351512439778078	1351009.5867502517
0.7352737691851374	1349540.3945905145
0.735396314813335	1348070.957565416
0.7355188808658037	1346601.2756341493
0.7356414673459482	1345131.3487558912
0.7357640742571725	1343661.1768898207
0.7358867016028818	1342830.9044869486
0.7360093493864824	1342632.694119488
0.7361320176113801	1342434.4507169663
0.736254706280982	1342236.1742738774
0.7363774153986956	1342037.8647847145
0.7365001449679286	1341839.5222439703
0.7366228949920899	1341641.146646136
0.7367456654745885	1341442.737985702
0.7368684564188344	1341420.7692748255
0.7369912678282374	1341498.53573301
0.7371140997062088	1341576.315152271
0.7372369520561599	1341654.1075347685
0.7373598248815024	1341731.912882663
0.7374827181856494	1341809.7311981155
0.7376056319720137	1341887.5624832874
0.7377285662440091	1341965.4067403402
0.7378515210050496	1341672.7059331348
0.7379744962585505	1341268.4667016612
0.738097492007927	1340864.1600969825
0.7382205082565949	1340459.7861078698
0.738343545007971	1340055.3447230924
0.7384666022654723	1339650.835931417
0.7385896800325165	1339246.2597216105
0.7387127783125219	1338841.616082435
0.7388358971089073	1338325.1657081645
0.7389590364250921	1337797.42153025
0.7390821962644963	1337269.589394972
0.7392053766305403	1336741.6692876723
0.7393285775266454	1336213.6611936877
0.7394517989562333	1335685.5650983537
0.7395750409227259	1335157.3809870044
0.7396983034295463	1334598.7367718616
0.739821586480118	1333364.350079877
0.7399448900778645	1332129.7576567796
0.7400682142262109	1330894.9594682744
0.740191558928582	1329659.9554800724
0.7403149241884034	1328424.7456578736
0.7404383100091014	1327189.3299673707
0.7405617163941028	1325953.7083742535
0.7406851433468352	1324506.1241919887
0.7408085908707264	1322089.5629873604
0.7409320589692048	1319672.5990225326
0.7410555476456997	1317255.2322303753
0.7411790569036406	1314837.4625437546
0.7413025867464579	1312419.2898955185
0.7414261371775823	1310000.7142185073
0.7415497082004452	1307581.7354455516
0.7416732998184786	1305173.2208671363
0.741796912035115	1302787.6174914513
0.7419205448537874	1300401.6165152045
0.7420441982779297	1298015.2178721284
0.742167872310976	1295628.4214959429
0.7422915669563612	1293241.2273203614
0.7424152822175206	1290853.6352790846
0.7425390180978901	1288465.6453058023
0.7426627746009065	1286514.8666502542
0.7427865517300065	1285097.2399576546
0.7429103494886282	1283679.376993938
0.7430341678802096	1282261.2777197286
0.7431580069081896	1280842.94209564
0.7432818665760077	1279424.3700822792
0.7434057468871037	1278005.5616402503
0.7435296478449182	1276586.5167301486
0.7436535694528923	1274555.5873854377
0.7437775117144678	1272105.6277852491
0.7439014746330868	1269655.2598584641
0.7440254582121922	1267204.4835370227
0.7441494624552276	1264753.29875286
0.7442734873656368	1262301.7054379005
0.7443975329468645	1259849.703524053
0.7445215992023557	1257397.2929432204
0.7446456861355559	1254448.9830016317
0.7447697937499119	1251317.6560848004
0.7448939220488703	1248185.8072801502
0.7450180710358784	1245053.4365007023
0.7451422407143843	1241920.5436594572
0.7452664310878367	1238787.1286694026
0.7453906421596846	1235653.1914435194
0.7455148739333779	1232518.7318947644
0.7456391264123667	1228832.294971624
0.7457633996001021	1225057.069042862
0.7458876935000356	1221281.2139097718
0.7460120081156189	1217504.7294675
0.7461363434503048	1213727.615611153
0.7462606995075466	1209949.8722358262
0.7463850762907978	1206171.4992366093
0.7465094738035127	1202391.4219748948
0.7466338920491467	1198329.622670847
0.746758331031155	1194267.1464002444
0.7468827907529935	1190203.9930502684
0.7470072712181189	1186140.1625080672
0.7471317724299886	1182075.654660775
0.7472562943920602	1178010.469395511
0.7473808371077922	1173944.6065993658
0.7475054005806435	1169790.1603135387
0.7476299848140736	1165093.556083833
0.7477545898115426	1160396.169086755
0.7478792155765113	1155697.9991918427
0.7480038621124406	1150999.0462686187
0.7481285294227926	1146299.310186575
0.7482532175110298	1141598.7908151792
0.7483779263806148	1136897.4880238948
0.7485026560350116	1132031.0521953376
0.7486274064776842	1126718.999563092
0.748752177712097	1121406.0615887507
0.7488769697417158	1116092.2381247357
0.749001782570006	1110777.529023483
0.7491266162004343	1105461.9341373816
0.7492514706364677	1100145.453318797
0.7493763458815739	1094828.0864200704
0.7495012419392209	1089179.2799237033
0.7496261588128773	1083054.3220985488
0.7497510965060128	1076928.3434470857
0.7498760550220971	1070801.343799183
0.7500010343646007	1064673.3229846712
0.7501260345369949	1058544.2808333542
0.750251055542751	1052414.2171750187
0.7503760973853414	1046283.1318394033
0.7505011600682389	1039742.3863242451
0.750626243594917	1032859.3470215567
0.7507513479688495	1025975.1605456616
0.7508764731935109	1019089.8267053515
0.7510016192723765	1012203.3453093995
0.7511267862089218	1005315.7161665547
0.7512519740066232	998426.939085517
0.7513771826689577	991537.0138749618
0.7515024121994025	984229.0803235525
0.7516276626014359	976725.5652156401
0.751752933878536	969220.7995218895
0.7518782260341824	961714.7830338541
0.7520035390718548	954207.5155430674
0.7521288729950334	946698.9968410361
0.7522542278071992	939189.2267192205
0.7523796035118337	931678.2049690477
0.7525050001124189	923447.4297499948
0.7526304176124378	915059.0246989797
0.7527558560153731	906669.2215804668
0.752881315324709	898278.020161426
0.7530067955439299	889885.4202088125
0.7531322966765205	881491.4214895513
0.7532578187259665	873096.0237705011
0.7533833616957542	864699.226818498
0.75350892558937	855565.6499656602
0.7536345104103016	846395.9711602228
0.7537601161620366	837224.7640749891
0.7538857428480638	828052.0284552325
0.7540113904718717	818877.7640462178
0.7541370590369503	809701.9705931369
0.7542627485467898	800524.6478411413
0.7543884590048808	791301.9176749226
0.7545141904147151	781640.0953908237
0.7546399427797842	771976.6628030264
0.7547657161035808	762311.6196431295
0.754891510389598	752644.9656427066
0.7550173256413296	742976.7005332797
0.7551431618622698	733306.8240463368
0.7552690190559135	723635.335913315
0.7553948972257561	713796.3417758682
0.7555207963752938	703398.8638029802
0.755646716508023	692999.6529171027
0.755772657627441	682598.7088294072
0.7558986197370455	672196.0312510289
0.756024602840335	661791.6198930569
0.7561506069408084	651385.4744665253
0.7562766320419653	640977.5946824133
0.7564026781473054	630272.2756965167
0.75652874526033	619044.8113652733
0.7566548333845401	607815.4757899689
0.7567809425234375	596584.2686587392
0.7569070726805247	585351.1896596608
0.7570332238593047	574116.2384807507
0.7571593960632813	562879.4148099667
0.7572855892959586	551640.718335237
0.7574118035608413	540558.1521638398
0.7575380388614347	529628.3187998006
0.7576642952012449	518696.6637968632
0.7577905725837782	507763.18685144116
0.7579168710125422	496827.88765984203
0.7580431904910444	485890.76591837354
0.7581695310227928	474951.8213232953
0.7582958926112967	464011.0535707708
0.7584222752600652	453041.2303030297
0.7585486789726085	442053.9349557209
0.7586751037524372	431064.80839251674
0.7588015496030628	420073.8503081972
0.7589280165279966	409081.06039755204
0.7590545045307512	398086.4383552552
0.7591810136148396	387089.9838759514
0.7593075437837755	376091.69665421825
0.7594340950410726	365392.1514813129
0.7595606673902461	354778.0308789826
0.7596872608348112	344162.14125654136
0.7598138753782836	333544.48231917474
0.75994051102418	322925.05377197533
0.7600671677760173	312303.8553200263
0.7601938456373134	301680.88666832715
0.7603205446115863	291056.1475218587
0.7604472647023548	280947.52684857306
0.7605740059131385	270888.6995360524
0.7607007682474575	260828.19575230323
0.7608275517088319	250766.01521794574
0.7609543563007835	240702.15765347687
0.7610811820268336	230636.62277942
0.7612080288905045	220569.41031623675
0.7613348968953197	210530.65401798437
0.7614617860448022	201108.50842793065
0.7615886963424764	191684.79248026572
0.7617156277918667	182259.50591328528
0.7618425803964988	172832.6484652026
0.7619695541598982	163404.21987421444
0.7620965490855914	153974.21987846802
0.7622235651771058	144542.64821604476
0.7623506024379685	135470.74781033958
0.7624776608717082	127980.70373534817
0.7626047404818536	120489.41131967728
0.7627318412719337	112996.87035528329
0.762858963245479	105503.0806340572
0.7629861064060198	98008.0419478769
0.7631132707570876	90511.75408857447
0.7632404563022137	83014.21684796886
0.7633676630449308	76135.62735176843
0.7634948909887717	70576.08563038167
0.7636221401372697	65015.61731871524
0.7637494104939593	59454.222262324954
0.7638767020623748	53891.900306766634
0.7640040148460518	48328.65129754271
0.7641313488485262	42764.4750801508
0.7642587040733344	37199.37150004967
0.7643860805240132	32659.68507749689
0.7645134782041005	29343.978905635115
0.7646408971171346	26027.72011607664
0.764768337266654	22710.908616721128
0.7648957986561985	19393.54431544798
