#wavelength	surface flux
0.676892	358443.70798405254
0.678297	365761.5327259569
0.679702	372276.7152547246
0.681109	378998.0018982432
0.682517	387467.1310261156
0.683926	395633.99005371373
0.685337	403244.8500104681
0.686749	410965.4512882865
0.688164	418580.6695474895
0.689581	426006.3566376203
0.691	431250.07495329
0.692422	436210.3773745605
0.693847	447229.3756781498
0.695274	458533.2983630097
0.696705	467731.3499122775
0.698139	476037.6003577302
0.699576	484659.0066156326
0.701017	493146.52777439565
0.702461	500894.6179915213
0.70391	510984.2340971809
0.705362	521251.8960283766
0.706819	530064.2581523927
0.70828	539132.7784633412
0.709745	548271.8305872163
0.711216	558656.4023240478
0.71269	568292.9635040757
0.71417	577539.0121290942
0.715655	584242.4475130053
0.717145	588930.3253452556
0.71864	602314.3042258271
0.72014	613042.2742905518
0.721647	622243.9079842034
0.723158	631643.3740410627
0.724676	640138.4084161285
0.726199	649174.2612638953
0.727728	660687.1603070423
0.729264	666991.1843865702
0.730805	677582.8358947529
0.732353	691588.7608494927
0.733907	701228.3272328018
0.735468	711331.9934876566
0.737035	720489.2226362163
0.738609	732204.9210496768
0.74019	741768.572055511
0.741777	746844.1442889443
0.743372	753524.4936526597
0.744973	759952.898992648
0.746582	762481.6462212964
0.748197	762556.9373736054
0.74982	758611.5959217758
0.751451	748706.0496318479
0.753088	730035.0592843606
0.754734	700484.751500396
0.756386	655310.3145852915
0.758047	585733.426862154
0.759715	487096.9754831502
0.76139	352238.0260998134
0.763074	189745.2625097877
0.764765	60469.22121100919
0.766464	8728.798469721105
0.768172	12348.515007607726
0.769887	15252.436699117872
0.77161	108132.08942564581
0.773341	305514.95853434375
0.775081	504606.0893097202
0.776829	664450.0637925005
0.778585	748205.0201429364
0.780349	797252.162940652
0.782121	941917.8231828132
0.783902	1031256.8469633764
0.785691	1089677.7723945347
0.787489	1139003.41062258
0.789295	1180857.308891881
0.79111	1213659.2158622553
0.792933	1105061.8951686586
0.794764	688742.5205264097
0.796604	1173686.2272502608
0.798453	1354540.913759503
0.80031	1389067.255092383
0.802176	1420290.1868087363
0.804051	1449974.0861633918
0.805934	1478730.021861363
0.807826	1504869.0647626426
0.809727	1518795.3835685435
0.811636	1535587.4588604693
0.813554	1562148.8641832743
0.81548	1614113.7247140396
0.817416	1647711.0870724297
0.81936	1678768.035183493
0.821313	1707613.916597032
0.823274	1726226.0343352025
0.825244	1773056.2674467042
0.827223	1804005.5572528369
0.829211	1825678.8576259357
0.831208	1853623.9866494152
0.833213	1894484.0753251633
0.835227	1923973.0969773326
0.837249	1943377.4978082066
0.83928	1978831.1116392307
0.841321	2032114.2892812914
0.843369	2076866.9746098893
0.845427	2113662.7111231973
0.847493	2153716.0770589504
0.849567	2188611.296416495
0.851651	2216510.482797456
0.853742	2263177.8130401964
0.855843	2311290.8222952313
0.857952	2352134.0980015723
0.86007	2388420.9518229486
0.862196	2370175.4680914185
0.864331	2421562.8889680137
0.866474	2477293.7184813176
0.868626	2524601.648895634
0.870786	2567179.8455859004
0.872955	2611629.648823343
0.875132	2647915.795677002
0.877317	2695565.8659439753
0.879511	2712606.9274818175
0.881713	2763039.999706006
0.883923	2820276.374838553
0.886142	2855320.1883971915
0.888369	2890747.0790934954
0.890604	2908529.797925724
0.892847	2882140.026418323
0.895099	2940163.1881701406
0.897358	3026419.536554075
0.899626	3111334.9613509895
0.901901	3177997.870359078
0.904185	3252391.6133153606
0.906476	3296282.739535723
0.908776	3346671.373614447
0.911083	3416811.7599173086
0.913398	3438400.9566389145
0.915721	3457212.599244008
0.918051	3463895.397165036
0.92039	3594517.9798547374
0.922736	3634661.489909463
0.925089	3527391.8243554356
0.927451	3225873.445452734
0.929819	2862738.01641869
0.932195	3188141.743489183
0.934579	3204343.7805066123
0.93697	3375708.3078994416
0.939369	3636378.181276507
0.941774	3700308.2637797208
0.944187	3451434.5063215327
0.946607	3389595.210455968
0.949035	3691491.2902628356
0.951469	3651787.3398201093
0.953911	3765986.102015389
0.956359	4107261.5488750744
0.958814	3773370.182064914
0.961277	3640786.1724220556
0.963746	3732485.1887295656
0.966222	3827704.494627706
0.968705	3826054.459860974
0.971194	4335520.207358903
0.97369	4600013.285732058
0.976193	4547927.739135539
0.978702	4724611.069898997
0.981217	4802232.882861402
0.983739	4904734.308148568
0.986268	4987667.975181015
0.988802	5131545.922946308
0.991343	5269346.600383738
0.99389	5341612.4723673295
0.996444	5471379.176456995
0.999003	5548076.948116993
1.00157	5602292.878623444
1.00414	5687940.95519717
1.00672	5810676.787332055
1.0093	5913307.580859475
1.01189	6019786.981115618
1.01448	6147181.490479769
1.01708	6240982.491788489
1.01969	6331663.863890085
1.0223	6391109.854832414
1.02492	6392614.543209418
1.02754	6502549.185638399
1.03017	6479233.583683879
1.0328	6736341.325473115
1.03544	6850234.235615352
1.03808	6940543.143088748
1.04073	7031899.917663078
1.04339	7120056.394321727
1.04604	7206471.403573331
1.04871	7265549.936228811
1.05138	7340645.937578209
1.05405	7458435.79155872
1.05673	7565307.957426766
1.05941	7654804.965298734
1.0621	7738311.982068211
1.06479	7827205.826868136
1.06749	7915645.072474487
1.07019	7972181.920035954
1.07289	8075942.731242779
1.0756	8184823.14124199
1.07832	8260589.414552905
1.08104	8364108.827457625
1.08376	8460373.997005254
1.08649	8523211.822989201
1.08922	8520233.119472003
1.09195	8488958.056074016
1.09469	8492520.429191135
1.09743	8571870.376579983
1.10018	7674878.254825171
1.10293	6815465.853625291
1.10568	6222338.402229454
1.10844	7463768.869494693
1.1112	7054466.967819912
1.11396	6422721.150191273
1.11673	6397152.567158711
1.1195	6579768.45868603
1.12228	5990087.403019883
1.12505	7194305.017490524
1.12783	7271614.630256675
1.13062	7266935.972053571
1.13341	5257701.847777818
1.1362	6591392.985224072
1.13899	8191495.243688773
1.14178	7930879.728594153
1.14458	8454116.660501866
1.14738	9019244.47633695
1.15019	7521592.845141632
1.153	5362805.013361997
1.1558	6122962.709077031
1.15862	6303276.617785085
1.16143	6499695.141563724
1.16425	7666558.159183299
1.16707	8845143.03340713
1.16989	8191693.859366891
1.17271	8556696.265257867
1.17554	9604466.918493401
1.17837	10290778.497444063
1.1812	10539010.450558117
1.18403	11168391.213101463
1.18686	11153355.68552121
1.1897	11176856.723330934
1.19253	11742024.189245798
1.19537	12022909.301463101
1.19822	12174881.829430295
1.20106	12403049.693415558
1.2039	12326430.467115218
1.20675	12555287.730844703
1.2096	12690595.72717515
1.21245	12749230.657202398
1.2153	13036833.662659334
1.21815	13211721.632143429
1.221	13352219.831516083
1.22385	13514045.204039766
1.22671	13684756.995782185
1.22957	13807629.047304021
1.23242	13885515.875741255
1.23528	14031408.161443532
1.23814	14186149.782602292
1.241	14305559.947600761
1.24387	14427059.748422643
1.24673	14538382.64403852
1.24959	14609349.120465985
1.25245	14589641.011021413
1.25532	14857874.073231166
1.25818	15017410.7823564
1.26105	15052343.281308115
1.26392	15117237.083810104
1.26678	15226395.132865079
1.26965	15296721.740710557
1.27252	15329912.306196125
1.27538	15525729.5298243
1.27825	15602978.691099057
1.28112	15567559.955872212
1.28399	15746693.137657322
1.28686	15733308.752838379
1.28973	15557710.844118549
1.2926	15507428.10767952
1.29546	15774284.226667918
1.29833	15958047.321416736
1.3012	15672308.595527021
1.30407	15678912.12537732
1.30694	15668953.101746796
1.30981	16010378.009161673
1.31267	15879414.02112471
1.31554	16318578.553988941
1.31841	16664549.014254365
1.32128	16134673.842999935
1.32414	15259855.063290596
1.32701	14926184.584092056
1.32987	13563420.985045834
1.33274	9773545.156666718
1.3356	7291960.704137295
1.33847	3583345.660897379
1.34133	1809373.7392549189
1.34419	3466838.2406250555
1.34705	4530351.9605007935
1.34991	3157152.9135686206
1.35277	1732445.92004171
1.35563	1867824.694144878
1.35849	2337908.6547029214
1.36135	1455103.9517108155
1.3642	2509881.869284582
1.36706	2692709.6317112176
1.36991	2424171.538359199
1.37277	4689689.063167939
1.37562	7077955.264229203
1.37847	7671459.832778989
1.38132	3693332.380451372
1.38417	974723.310488786
1.38701	1784955.608267284
1.38986	1499721.9767210202
1.39271	1590465.7168510682
1.39555	2209910.979434551
1.39839	1633117.6523163272
1.40123	2681993.734554462
1.40407	4560139.416735427
1.40691	5838107.519628047
1.40974	3611652.174070445
1.41258	1442583.754377574
1.41541	2795256.7007941455
1.41824	3619422.5757172466
1.42107	2549311.5214442653
1.4239	1796191.7493353826
1.42673	3238416.7877157466
1.42955	4630728.708862599
1.43237	3000481.392670749
1.43519	4185653.693808743
1.43801	3397768.423294471
1.44083	4094222.3717754474
1.44365	5900266.6331582265
1.44646	6150546.457504667
1.44927	8986938.686173258
1.45208	10443581.999979254
1.45489	8896882.003546972
1.45769	10260201.154852245
1.4605	11091456.020250652
1.4633	11268646.334171101
1.4661	11858047.65848973
1.4689	9871544.107556272
1.47169	10278738.629419964
1.47449	10246533.96819781
1.47728	10561555.576419022
1.48007	10515537.181245549
1.48286	12582960.174993105
1.48564	14271935.23453438
1.48842	14125642.153260322
1.4912	14330336.074850785
1.49398	14039196.457352437
1.49676	13202117.211936062
1.49953	14900726.70009735
1.5023	16468962.915906323
1.50507	16383657.619115269
1.50784	15757497.225871807
1.51061	16075115.469905827
1.51337	16688193.954405328
1.51613	17527318.11737544
1.51888	18535528.711266164
1.52164	19973723.129248165
1.52439	20692584.71148149
1.52714	20071182.73400678
1.52989	19870942.314475987
1.53263	20574041.466902543
1.53538	21396911.79551182
1.53812	21470363.799846064
1.54086	21323823.552335683
1.54359	21451147.08417115
1.54632	22105725.658029184
1.54905	22241148.506435864
1.55178	22820986.299927227
1.5545	22725094.20587947
1.55723	22203638.76359896
1.55995	22200541.346309856
1.56266	22693004.436083663
1.56538	23577965.374282405
1.56809	24030822.79626294
1.5708	24019786.8228324
1.57351	23637465.57370697
1.57621	23281495.912595842
1.57891	22435039.39558481
1.58161	23255879.009500813
1.5843	24777610.563516334
1.587	25064145.70957522
1.58969	25023897.67431235
1.59238	25026027.524145827
1.59506	24853709.83812784
1.59774	24608414.175603393
1.60042	24566893.64904613
1.6031	24837240.47250957
1.60577	25115332.078548577
1.60844	25215491.82211551
1.61111	25078846.431110278
1.61378	24902779.65883667
1.61644	25003351.947597247
1.6191	24820995.11231865
1.62176	24618489.474136453
1.62441	24848390.973951574
1.62707	24770928.36678314
1.62971	24248367.867732927
1.63236	24018486.900131647
1.635	25004900.111932736
1.63764	26296763.28739517
1.64028	26707522.9841015
1.64292	26708170.84362421
1.64555	26351440.893837318
1.64818	25456208.356922954
1.65081	25351327.4900197
1.65343	26152832.933648117
1.65605	26498050.61084105
1.65867	26523573.11080036
1.66128	26202521.192651894
1.6639	24880448.518169478
1.66651	22183999.220440194
1.66911	22040461.784379162
1.67172	24643918.94768333
1.67432	26394329.038176723
1.67692	26430641.62557039
1.67951	25957809.77331562
1.68211	26108938.27105222
1.6847	26271459.325457055
1.68728	25918719.560556125
1.68987	25529180.150685728
1.69245	24689677.824110888
1.69503	23113425.22457631
1.6976	22356023.469124988
1.70018	23561687.65629074
1.70275	23698587.842335403
1.70531	23671695.259615712
1.70788	24339818.013921186
1.71044	24175906.612160273
1.713	24400996.704604127
1.71556	24806421.326267622
1.71811	25372502.051453356
1.72066	25861818.98877391
1.72321	25583246.00883783
1.72575	25323647.23170107
1.7283	24917403.544392087
1.73084	24103767.796885964
1.73337	23182034.554117713
1.73591	22440902.60842936
1.73844	22078410.83341851
1.74097	22005071.464385476
1.74349	21002909.01197195
1.74602	19693570.843098536
1.74854	19077083.614006314
1.75105	17798072.481112186
1.75357	15924526.819386106
1.75608	17441926.302718334
1.75859	21050086.0410875
1.7611	22606535.48262414
1.7636	22062208.49714717
1.7661	19039717.35316744
1.7686	16210334.206925914
1.7711	13720512.464843985
1.77359	10982530.09712021
1.77608	7740071.729459579
1.77857	6145694.694478266
1.78105	7121105.507315995
1.78354	8125977.1816731645
1.78602	6678518.996506848
1.78849	5496824.678150138
1.79097	6679492.000671796
1.79344	8304131.548952198
1.79591	9301438.096025782
1.79837	10435756.002864474
1.80084	7270890.1954726055
1.8033	4555730.968494199
1.80576	2584324.707310467
1.80821	1802200.5860214997
1.81067	4085427.658370338
1.81312	6176482.774016158
1.81557	3822196.4233370423
1.81801	2305712.3637458594
1.82046	4458782.134148064
1.8229	6650828.205971494
1.82533	4896023.526596672
1.82777	2139319.199001156
1.8302	1756975.7846813817
1.83263	2941361.599869152
1.83506	4225999.496661508
1.83749	5758518.6516295485
1.83991	6724595.848983293
1.84233	5891148.459991164
1.84475	5570728.173960608
1.84716	5942591.681648304
1.84957	6521522.570981141
1.85198	5889704.441616135
1.85439	3334152.143725525
1.8568	2768919.751519298
1.8592	3564170.4000634933
1.8616	2901782.9761717846
1.864	1859223.854050075
1.86639	1987450.6933545084
1.86878	2933557.863322372
1.87118	4363215.263556993
1.87356	5954535.176537418
1.87595	6675212.884443918
1.87833	8262366.395544921
1.88071	11220013.506724058
1.88309	10946680.995248528
1.88547	9048360.710466329
1.88784	8578742.071602466
1.89021	8071634.863532931
1.89258	11086864.586951762
1.89494	13197035.641237777
1.89731	9432951.62089557
1.89967	4883820.96361695
1.90203	2495794.635579576
1.90439	2363352.8222099845
1.90674	3616391.7959536025
1.90909	3999549.6965031736
1.91144	2781190.7752712932
1.91379	1496917.7414993953
1.91613	1348588.4670454205
1.91848	2126753.7218324402
1.92082	3035391.8508034656
1.92315	2953636.1792818913
1.92549	2250891.440184676
1.92782	2540864.180112456
1.93015	3484996.8420789386
1.93248	4192461.2829624135
1.93481	4262774.813475082
1.93713	3743046.177612429
1.93945	3599402.141283472
1.94177	4257987.420090261
1.94409	4799308.160762799
1.94641	4763475.528281841
1.94872	5283252.250524079
1.95103	6112479.250650394
1.95334	4409554.841523768
1.95564	3474918.348997773
1.95795	4097487.441573152
1.96025	4331317.858502451
1.96255	4394209.288753916
1.96484	4943964.234228918
1.96714	6388801.627252868
1.96943	8269530.347872769
1.97172	9267079.23551535
1.97401	8611052.570715781
1.97629	9062506.376684936
1.97858	10761922.372289741
1.98086	11742985.75883778
1.98314	12786220.469241519
1.98541	13436371.844493508
1.98769	12613210.853091568
1.98996	10531744.588452073
1.99223	10087852.17177564
1.9945	11375600.502431486
1.99677	10962366.293096572
1.99903	10831756.601969318
2.00129	12558425.11254597
2.00355	14939112.733379098
2.00581	16156020.043961715
2.00806	16374166.654734539
2.01031	18399875.50884414
2.01256	19505201.298670992
2.01481	18339361.419659898
2.01706	16813421.614639297
2.0193	16808487.21215502
2.02154	18744131.895476267
2.02378	20921538.644301582
2.02602	21507458.045771565
2.02825	21956550.37919673
2.03049	22619546.954401616
2.03272	23510364.996498927
2.03494	24412570.94740274
2.03717	25004489.07069553
2.03939	25263058.249952715
2.04162	26100244.199509293
2.04384	26891719.7325127
2.04605	27762279.343450084
2.04827	28575698.005968213
2.05048	28661433.310636766
2.05269	27617688.0678993
2.0549	27405392.071749777
2.05711	27891555.016708735
2.05931	28637321.840747807
2.06151	29245191.756701272
2.06371	29758265.35461464
2.06591	30123256.925072018
2.06811	30410899.503189605
2.0703	30558725.49069433
2.07249	30509494.96412372
2.07468	30221875.767225675
2.07686	30197278.090416968
2.07905	30406210.27460044
2.08123	30663178.59711261
2.08341	30876796.95104938
2.08559	31061421.398151465
2.08776	31196274.854532402
2.08994	31142673.895047378
2.09211	30972622.088824756
2.09428	30825740.39964124
2.09645	30975360.95615933
2.09861	31047728.310817167
2.10077	31012953.372691873
2.10293	30860510.529736526
2.10509	30608405.5876039
2.10725	30393842.15196757
2.1094	30789554.358240876
2.11155	31233516.16791147
2.1137	31457633.00519794
2.11585	31221444.42740077
2.11799	31035469.996035088
2.12013	31063781.679267075
2.12227	31231636.569246836
2.12441	31450368.153870486
2.12655	31530926.705234434
2.12868	31539634.986369524
2.13081	31575446.05712092
2.13294	31632983.68506602
2.13507	31508200.60179009
2.13719	31177284.04355714
2.13931	30894871.42033684
2.14143	30686171.69316071
2.14355	30445586.83449397
2.14567	30324734.733055737
2.14778	30204003.52196124
2.14989	30023904.951252062
2.152	29679747.495519012
2.1541	29752916.081209283
2.15621	29903772.678275336
2.15831	29977916.728655044
2.16041	29661865.09211922
2.16251	29537840.987627763
2.1646	29454440.58005493
2.1667	29392435.900274213
2.16879	29437834.36591154
2.17087	29413999.155990727
2.17296	29316199.773719836
2.17504	29146231.52687949
2.17713	29064004.660694037
2.1792	29000392.163877327
2.18128	28895326.44513572
2.18336	28675828.411294255
2.18543	28328723.34531608
2.1875	27937211.079141416
2.18957	27414348.429278243
2.19163	26357691.865592215
2.1937	24504309.666117974
2.19576	22402045.588797837
2.19782	20266245.828765504
2.19987	19104135.08966484
2.20193	18442047.632882636
2.20398	18199380.674913667
2.20603	18242659.02247652
2.20808	18766515.839291304
2.21012	19498576.084630504
2.21217	20350691.974570423
2.21421	20704254.594610836
2.21625	20627287.85835194
2.21828	20190627.05688784
2.22032	20039358.09547216
2.22235	19877000.00803237
2.22438	19520297.11354939
2.22641	18484297.953716177
2.22843	17311243.27857068
2.23046	16287859.680904577
2.23248	15657560.140063597
2.2345	15511641.198481692
2.23651	15385243.489291988
2.23853	15206455.635496473
2.24054	14284615.633835314
2.24255	13205914.182170762
2.24456	12069659.278675662
2.24657	12123428.810081625
2.24857	12792345.435770873
2.25057	13809921.097706834
2.25257	14312428.221465291
2.25457	14687892.975962043
2.25656	14979264.318063857
2.25856	15208181.334168034
2.26055	14684766.269184416
2.26254	13729968.246708144
2.26453	12432990.134622516
2.26651	11602284.847532555
2.2685	11197216.440939467
2.27048	11690253.374377564
2.27246	12479941.355222534
2.27443	13233985.667365735
2.27641	13352838.104105515
2.27838	12945188.011624532
2.28036	12324361.169091728
2.28233	11853296.341959056
2.28429	11517448.064724931
2.28626	11222226.953848975
2.28823	10757017.747084538
2.29019	10230701.841981322
2.29215	9660181.32589694
2.29411	9044569.62182768
2.29607	8421362.137696508
2.29802	7796064.3424229445
2.29998	7365637.535592317
2.30193	7094036.534379955
2.30388	7001440.962289062
2.30583	7179488.299105631
2.30778	7453659.490841537
2.30972	7848678.8631436955
2.31167	7911879.904023329
2.31361	7625336.909956748
2.31555	6534962.045365182
2.31749	5513351.134060879
2.31943	4629634.021576042
2.32137	4504570.022766651
2.32331	4460347.710754547
2.32524	4480395.460176117
2.32718	4461519.705102579
2.32911	4499879.32442
2.33104	4621571.374279414
2.33297	4743708.518999579
2.3349	4862379.852204652
2.33683	4969989.389691792
2.33876	5068577.782685624
2.34068	5156979.112266627
2.34261	5170263.575588263
2.34453	5184374.293673792
2.34646	5199578.219581583
2.34838	5309597.002938485
2.3503	5512928.370839429
2.35223	5933165.77211796
2.35415	6317496.631592286
2.35607	6681166.065330087
2.35799	6981999.717019821
2.35991	7407853.553319836
2.36183	7984593.819321684
2.36375	7942344.472967464
2.36566	7496581.691719567
2.36758	6046147.964921158
2.3695	4953834.420872894
2.37142	4091085.096536464
2.37334	4451595.860811737
2.37526	4651378.646203028
2.37718	4572607.2949844375
2.3791	4469836.58710176
2.38101	4446951.571310177
2.38293	5065017.65241931
2.38485	5871100.208552083
2.38677	6869157.481287735
2.3887	7378740.465185212
2.39062	7679791.229543768
2.39254	7571110.9860171415
2.39446	7238738.327457959
2.39639	6760495.1512418585
2.39831	6422353.960351065
2.40024	6126603.440527804
2.40216	5909480.167219793
2.40409	5954986.490101045
2.40602	6146930.501997975
2.40795	6797203.152784588
2.40989	7359774.556540991
2.41182	7808017.169079379
2.41376	8091883.866479809
2.4157	8393989.418235127
2.41764	8942841.69093529
2.41958	9310152.488512034
2.42152	9529854.796969786
2.42347	9041967.534651255
2.42542	8586239.030995592
