#wavelength	surface flux
0.8	2761540.3895246894
0.8002000000000001	2770466.7350255386
0.8004000500000003	2779756.8476159144
0.8006001500125003	2789052.9345989837
0.8008003000500035	2798351.345603799
0.8010005001250161	2807652.0812113704
0.8012007502500472	2816955.14200283
0.8014010504376099	2824976.1745744557
0.8016014007002193	2832568.9930576826
0.8018018010503944	2840163.709745531
0.8020022515006572	2847760.3251125542
0.8022027520635323	2855358.839633413
0.8024033027515483	2862924.642852888
0.8026039035772362	2870458.42016064
0.8028045545531306	2877994.0809127195
0.8030052556917691	2885531.6255799904
0.803206007005692	2893071.0546334214
0.8034068085074435	2900813.4569586013
0.8036076602095705	2909121.4752067234
0.8038085621246229	2917431.5704594017
0.8040095142651542	2925743.7432358977
0.8042105166437206	2934057.9940555855
0.8044115692728815	2942331.3914566464
0.8046126721651998	2948760.277049353
0.8048138253332411	2955190.769863452
0.8050150287895745	2961622.8703007605
0.805216282546772	2968056.578763177
0.8054175866174087	2974491.895652706
0.8056189410140631	2981325.4314549626
0.8058203457493168	2988272.9420183413
0.8060218008357541	2995222.1894593523
0.8062233062859632	3002173.1742122266
0.8064248621125346	3009125.8967112843
0.806626468328063	3016808.403394289
0.8068281249451449	3025118.1341460175
0.8070298319763813	3033429.9423304438
0.8072315894343755	3041743.8284669104
0.8074333973317341	3050059.7930749143
0.8076352556810671	3057018.733648924
0.8078371644949874	3060707.826031456
0.8080391237861113	3064397.8406870845
0.8082411335670578	3068088.7778463745
0.8084431938504498	3071780.6377399582
0.8086453046489125	3075434.956429638
0.8088474659750746	3078374.0547864065
0.8090496778415686	3081313.887917768
0.809251940261029	3084254.4560074103
0.8094542532460944	3087195.7592390776
0.8096566168094059	3090137.7977965493
0.8098590309636085	3094268.383476311
0.8100614957213493	3098678.0188092464
0.8102640110952797	3103088.756551016
0.8104665770980536	3107500.5969772227
0.8106691937423283	3111913.540363537
0.8108718610407639	3117082.233876162
0.8110745790060241	3122829.2584306453
0.8112773476507757	3128577.719741272
0.8114801669876885	3134327.6181672243
0.8116830370294355	3140078.95406778
0.8118859577886929	3145408.569462716
0.8120889292781401	3149860.5988863534
0.8122919515104597	3154313.741317346
0.8124950244983374	3158767.997033947
0.8126981482544621	3163223.3663144764
0.8129013227915257	3167784.2180632795
0.8131045481222237	3173541.246748558
0.8133078242592543	3179299.7146910084
0.8135111512153191	3185059.6222504424
0.813714529003123	3190820.9697867674
0.8139179576353739	3196583.7576599773
0.8141214371247829	3212647.5464686747
0.8143249674840641	3230712.6091915625
0.814528548725935	3248782.1881801207
0.8147321808631167	3266856.28456345
0.8149358639083326	3284934.89947087
0.8151395978743097	3297143.6801668433
0.8153433827737784	3305386.553120066
0.8155472186194719	3313631.486791524
0.8157511054241268	3321878.4816963985
0.815955043200483	3330127.5383500047
0.8161590319612831	3337407.863006417
0.8163630717192736	3342911.1455950113
0.8165671624872033	3348415.8040042464
0.8167713042778252	3353921.8385780887
0.8169754971038948	3359429.2496605776
0.8171797409781707	3364241.139470122
0.8173840359134155	3363490.678678756
0.8175883819223938	3362740.0302721933
0.8177927790178745	3361989.194203528
0.8179972272126291	3361238.1704258462
0.8182017265194322	3360486.95889222
0.8184062769510622	3367192.8563903007
0.8186108785203001	3375047.9979720707
0.8188155312399301	3382905.103339225
0.8190202351227402	3390764.1729827304
0.819224990181521	3398625.2073936416
0.8194297964290664	3410530.7964111
0.8196346538781738	3424876.0253845113
0.8198395625416434	3439224.84066516
0.8200445224322789	3453577.2431496354
0.820249533562887	3467933.2337347274
0.8204545959462778	3479854.7348028705
0.8206597095952644	3487855.194696507
0.8208648745226633	3495857.654705123
0.8210700907412941	3503862.1153287403
0.8212753582639793	3511868.577067505
0.8214806771035456	3518073.726054019
0.8216860472728215	3513169.8127632206
0.8218914687846397	3508264.673494099
0.822096941651836	3503358.307940158
0.822302465887249	3498450.715794831
0.8225080415037209	3493541.8967514653
0.8227136685140968	3503031.90858328
0.8229193469312254	3514159.0004698797
0.8231250767679583	3525288.874129454
0.8233308580371503	3536421.5302574374
0.8235366907516598	3547556.9695494613
0.8237425749243477	3559188.9908317244
0.8239485105680789	3571085.641809132
0.824154497695721	3582985.266949276
0.824360536320145	3594887.866995707
0.8245666264542252	3606793.4426921494
0.8247727681108388	3617637.241471978
0.8249789613028664	3626958.824060652
0.8251852060431922	3636282.737044981
0.825391502344703	3645608.9810075527
0.8255978502202894	3654937.556531123
0.8258042496828445	3663772.391306958
0.8260107007452654	3670200.221858002
0.8262172034204517	3676629.659366677
0.8264237577213068	3683060.704234731
0.8266303636607373	3689493.3568640044
0.8268370212516525	3695927.617656432
0.8270437305069654	3697900.5554802925
0.8272504914395923	3699525.2374444925
0.8274573040624523	3701150.325579184
0.8276641683884679	3702775.8199859075
0.8278710844305652	3704401.7207662347
0.8280780522016729	3710173.029349773
0.8282850717147234	3717840.453191634
0.8284921429826521	3725509.793889447
0.8286992660183978	3733181.051922441
0.8289064408349024	3740854.2277699374
0.8291136674451112	3746827.1732591065
0.8293209458619727	3750655.2878276757
0.8295282760984382	3754484.3594248816
0.829735658167463	3758314.3882899918
0.8299430920820048	3762145.374662313
0.8301505778550254	3766218.884283601
0.8303581154994891	3771257.5709417583
0.8305657050283641	3776297.5172715853
0.8307733464546212	3781338.723587991
0.8309810397912352	3786381.1902059843
0.8311887850511829	3791424.9174406216
0.8313965822474458	3804734.322169859
0.8316044313930077	3818430.649539638
0.8318123325008561	3832130.4009912717
0.8320202855839813	3845833.577380762
0.8322282906553774	3859540.1795643508
0.8324363477280413	3867091.8444580543
0.8326444568149735	3872166.0616714368
0.8328526179291771	3877241.5474391165
0.8330608310836596	3882318.302078246
0.8332690962914304	3887396.3259060285
0.8334774135655034	3891904.780372071
0.833685782918895	3895776.7161905766
0.8338942043646247	3899649.6199930343
0.834102677915716	3903523.492021445
0.834311203585195	3907398.3325178605
0.8345197813860912	3913307.2247684626
0.8347284113314379	3926061.141894334
0.8349370934342709	3938818.24749948
0.8351458277076294	3951578.5423810114
0.8353546141645565	3964342.0273362845
0.8355634528180977	3977108.7031627907
0.8357723436813022	3970763.3800041457
0.8359812867672226	3964180.446615873
0.8361902820889144	3957595.8674942562
0.8363993296594368	3951009.642227858
0.8366084294918518	3944421.7704051402
0.8368175815992247	3951971.2555899974
0.8370267859946247	3964392.246339196
0.8372360426911234	3976816.3423360777
0.8374453517017962	3989243.544356958
0.8376547130397217	4001673.8531783414
0.8378641267179816	4010751.110765699
0.8380735927496613	4016500.455690357
0.8382831111478488	4022251.2379512424
0.8384926819256358	4028003.45790769
0.8387023050961173	4033757.1159191323
0.8389119806723914	4039508.5865549366
0.8391217086675596	4045251.290900194
0.8393314890947265	4050995.4309215336
0.8395413219670003	4056741.006977879
0.8397512072974922	4062488.0194282425
0.8399611450993165	4068410.8918772745
0.8401711353855914	4082997.041083606
0.8403811781694378	4097586.8368272353
0.8405912734639802	4112180.280019804
0.8408014212823464	4126777.3715731776
0.8410116216376671	4141378.1123994375
0.8412218745430766	4154282.0619778037
0.8414321800117124	4166694.4747042954
0.8416425380567154	4179109.9905339745
0.8418529486912297	4191528.6102426136
0.8420634119284025	4203950.33460617
0.8422739277813847	4212565.406627885
0.8424844962633302	4217826.087986839
0.842695117387396	4223088.084516126
0.8429057911667428	4228351.396544545
0.8431165176145345	4233616.024400975
0.8433272967439382	4238963.9695297815
0.8435381285681244	4244513.275104288
0.8437490131002665	4250063.968005187
0.8439599503535415	4255616.048579308
0.84417094034113	4261169.517173576
0.8443819830762154	4266889.987472228
0.8445930785719846	4275948.182724941
0.8448042268416277	4285008.642526461
0.8450154278983382	4294071.36744293
0.8452266817553128	4303136.358040628
0.8454379884257517	4312203.614885977
0.8456493479228583	4321194.0888381675
0.845860760259839	4330167.774289249
0.846072225449904	4339143.703161694
0.8462837435062666	4348121.87601636
0.8464953144421433	4357102.2934142435
0.8467069382707537	4364576.870145345
0.8469186150053215	4370877.808978054
0.847130344659073	4377180.323045473
0.8473421272452377	4383484.412741402
0.8475539627770492	4389790.078459762
0.8477658512677435	4396642.045851175
0.8479777927305605	4404652.378586318
0.8481897871787432	4412664.713904644
0.848401834625538	4420679.052306805
0.8486139350841944	4428695.394293561
0.8488260885679657	4436543.085314376
0.8490382950901076	4442312.513763607
0.8492505546638802	4448083.384569952
0.8494628673025462	4453855.698093997
0.8496752330193721	4459629.454696432
0.8498876518276269	4465404.65473801
0.8501001237405839	4462850.507955671
0.8503126487715191	4458632.750515772
0.850525226933712	4454413.938636514
0.8507378582404455	4450194.072054287
0.8509505427050057	4445973.150505412
0.8511632803406821	4444890.790377151
0.8513760711607672	4445958.222148307
0.8515889151785576	4447025.920777407
0.8518018124073523	4448093.886331163
0.8520147628604541	4449162.118876307
0.8522277665511693	4456247.15318651
0.8524408234928071	4474460.812435059
0.8526539336986805	4492679.025098425
0.8528670971821053	4510901.792314958
0.8530803139564007	4529129.115223274
0.8532935840348901	4547131.133100538
0.8535069074308987	4563196.3505996205
0.8537202841577566	4579265.584403092
0.8539337142287962	4595338.835515016
0.8541471976573534	4611416.1049397085
0.8543607344567677	4627497.393681759
0.8545743246403821	4638262.457572838
0.8547879682215422	4648185.296989025
0.8550016652135977	4658110.617115063
0.8552154156299011	4668038.418571134
0.8554292194838088	4677968.701977576
0.8556430767886797	4686550.804416606
0.855856987557877	4694314.965153962
0.8560709518047664	4702081.066931498
0.8562849695427177	4709849.110234481
0.8564990407851035	4717619.095548292
0.8567131655452999	4725366.817644526
0.8569273438366862	4733076.814801241
0.8571415756726455	4740788.739457247
0.8573558610665638	4748502.592094419
0.8575702000318304	4756218.373194742
0.8577845925818384	4764073.446690919
0.857999038729984	4772788.506672888
0.8582135384896665	4781505.745419851
0.858428091874289	4790225.163476501
0.8586426988972576	4798946.761387662
0.8588573595719821	4807670.539698305
0.8590720739118751	4814889.0067263935
0.8592868419303532	4821931.540533292
0.8595016636408359	4828975.834973642
0.8597165390567462	4836021.8904876
0.8599314681915105	4843069.707515438
0.8601464510585584	4848109.226150789
0.860361487671323	4852083.078665297
0.8605765780432408	4856057.924642932
0.8607917221877518	4860033.764332064
0.8610069201182988	4864010.597981119
0.8612221718483286	4846929.25605481
0.8614374773912907	4799484.000610015
0.8616528367606385	4752026.883851372
0.8618682499698288	4704557.902813508
0.8620837170323213	4657077.054530393
0.8622992379615795	4616831.520238336
0.8625148127710699	4612439.462653072
0.8627304414742627	4608046.307053411
0.8629461240846313	4603652.05316485
0.8631618606156526	4599256.700712817
0.8633776510808066	4594860.24942267
0.8635934954935769	4657885.639723978
0.8638093938674504	4726453.566765936
0.8640253462159173	4795038.635789652
0.8642413525524714	4863640.851080623
0.8644574128906095	4932260.216925403
0.8646735272438323	4939564.352112062
0.8648896956256433	4918349.054635485
0.8651059180495498	4897128.453334538
0.8653221945290621	4875902.546883286
0.8655385250776946	4854671.333955391
0.8657549097089641	4854265.644206892
0.8659713484363913	4880527.895838841
0.8661878412735006	4906796.71303371
0.866404388233819	4933072.097432874
0.8666209893308775	4959354.050678126
0.8668376445782103	4981679.238756515
0.8670543539893549	4987833.623373566
0.8672711175778525	4993989.546586776
0.8674879353572469	5000147.008780782
0.8677048073410862	5006306.0103403395
0.8679217335429217	5012466.55165029
0.8681387139763074	5025843.990827668
0.8683557486548015	5039583.214954231
0.8685728375919655	5053325.873886841
0.8687899808013633	5067071.968484155
0.8690071782965637	5080821.499605136
0.869224430091138	5086772.042697506
0.8694417361986609	5089549.276389143
0.8696590966327107	5092327.204389202
0.869876511406869	5095105.826871262
0.8700939805347206	5097885.14400894
0.8703115040298544	5102000.004285065
0.870529081905862	5107642.011050869
0.8707467141763385	5113285.428318363
0.8709644008548827	5118930.256440173
0.8711821419550964	5124576.495769009
0.8713999374905854	5131554.137719563
0.871617787474958	5143123.784690253
0.8718356919218269	5154696.324072697
0.8720536508448075	5166271.756589987
0.8722716642575187	5177850.0829654
0.8724897321735832	5189431.303922411
0.8727078546066265	5199671.061087127
0.8729260315702784	5209892.926079255
0.873144263078171	5220117.346537619
0.8733625491439405	5230344.3231011
0.8735808897812266	5240573.856408725
0.8737992850036719	5245591.201354462
0.874017734824923	5248762.8234383585
0.8742362392586293	5251935.238427774
0.874454798318444	5255108.446520938
0.8746734120180236	5258282.447916123
0.8748920803710283	5263592.118570984
0.875110803391121	5271048.463356299
0.8753295810919689	5278506.672227815
0.875548413487242	5285966.745651549
0.8757673005906139	5293428.684093638
0.8759862424157616	5303992.899505415
0.8762052389763657	5323530.9429199565
0.8764242902861098	5343073.870845338
0.8766433963586814	5362621.684502707
0.8768625572077712	5382174.385113495
0.8770817728470732	5401573.1364911795
0.8773010432902849	5408575.113504283
0.8775203685511077	5415578.84101165
0.8777397486432454	5422584.319450884
0.8779591835804065	5429591.549259738
0.8781786733763015	5436600.530876034
0.8783982180446457	5428197.0562273385
0.878617817599157	5415206.041791767
0.8788374720535569	5402211.779602593
0.8790571814215703	5389214.268847874
0.8792769457169257	5376213.5087154675
0.879496764953355	5369489.773397889
0.8797166391445934	5368410.736871732
0.8799365683043796	5367331.430586444
0.8801565524464557	5366251.854474585
0.8803765915845676	5365172.008468696
0.8805966857324639	5371480.640463024
0.880816834903897	5396349.169439268
0.881037039112623	5421223.915547767
0.8812572983724012	5446104.880342789
0.8814776126969944	5470992.065379022
0.8816979821001687	5495558.52306965
0.8819184065956938	5512434.684543771
0.8821388861973429	5529315.065058277
0.8823594209188923	5546199.665667895
0.882580010774122	5563088.487427659
0.8828006557768155	5579981.531392872
0.8830213559407598	5595703.772571164
0.8832421112797452	5611134.413331351
0.8834629218075651	5626568.91175172
0.8836837875380171	5642007.268796698
0.8839047084849018	5657449.485430939
0.884125684662023	5654985.99533522
0.8843467160831886	5638169.658503721
0.8845678027622095	5621349.117588013
0.8847889447129001	5604524.3715370735
0.8850101419490785	5587695.419299625
0.8852313944845657	5586866.9525755355
0.885452702333187	5621070.588181358
0.8856740655087704	5655282.774696075
0.8858954840251476	5689503.514257412
0.8861169578961539	5723732.809003624
0.886338487135628	5754559.834878781
0.886560071757412	5740005.315723791
0.8867817117753515	5725447.157939012
0.8870034072032955	5710885.36061478
0.8872251580550963	5696319.922841235
0.8874469643446101	5681750.843708238
0.8876688260856963	5695534.923333086
0.8878907432922178	5715191.252364138
0.8881127159780409	5734852.495477435
0.8883347441570356	5754518.653901535
0.8885568278430749	5774189.728865219
0.8887789670500358	5783569.165222082
0.8890011617917983	5785646.840714856
0.8892234120822464	5787725.035626505
0.8894457179352669	5789803.750086879
0.8896680793647509	5791882.984225871
0.8898904963845921	5792346.091726786
0.8901129690086883	5789724.711029632
0.8903354972509405	5787102.674987304
0.8905580811252535	5784479.983435962
0.8907807206455347	5781856.636211737
0.8910034158256963	5777969.056838272
0.8912261666796527	5762787.969722187
0.8914489732213227	5747603.087334318
0.8916718354646282	5732414.408725837
0.8918947534234944	5717221.9329477195
0.8921177271118502	5702025.659050666
0.8923407565436284	5694866.095607307
0.8925638417327644	5689016.368007912
0.8927869826931977	5683165.177976617
0.8930101794388711	5677312.525147812
0.8932334319837308	5671458.409155803
0.8934567403417267	5673311.569850234
0.8936801045268123	5679955.26844407
0.8939035245529441	5686600.627962549
0.8941270004340824	5693247.6488209115
0.894350532184191	5699896.3314344855
0.8945741198172371	5723672.597653334
0.8947977633471915	5775856.105794437
0.8950214627880284	5828052.659812574
0.8952452181537254	5880262.262969185
0.8954690294582639	5932484.918526615
0.8956928967156286	5978650.898569869
0.8959168199398075	5985438.026972847
0.8961407991447926	5992226.852157926
0.8963648343445789	5999017.374549302
0.896588925553165	6005809.594571273
0.8968130727845534	6012603.512648249
0.8970372760527496	6013814.004631808
0.8972615353717629	6014325.987680196
0.8974858507556059	6014838.098724347
0.8977102222182949	6015350.337796259
0.8979346497738496	6015862.704927939
0.8981591334362931	6037386.070959274
0.8983836732196523	6070405.169036885
0.8986082691379572	6103432.521888994
0.8988329212052417	6136468.131579315
0.8990576294355432	6169512.000172089
0.8992823938429022	6190645.589453461
0.8995072144413631	6194063.107352426
0.8997320912449734	6197481.479630866
0.8999570242677847	6200900.706502375
0.9001820135238516	6204320.788180602
0.9004070590272328	6209064.039818269
0.9006321607919896	6220740.503304358
0.9008573188321878	6232419.885906329
0.9010825331618959	6244102.1883539455
0.9013078037951865	6255787.411377176
0.9015331307461353	6267475.5557061555
0.9017585140288219	6283577.758046528
0.9019839536573292	6300063.92851269
0.9022094496457435	6316554.220521457
0.9024350020081551	6333048.635103243
0.9026606107586572	6349547.173288671
0.902886275911347	6367322.106014545
0.9031119974803249	6385714.805126426
0.9033377754796951	6404112.102413084
0.903563609923565	6422513.999024057
0.903789500826046	6440920.496109194
0.9040154482012526	6452421.983429007
0.904241452063303	6454975.5478761
0.9044675124263188	6457529.750714303
0.9046936293044254	6460084.592103216
0.9049198027117517	6462640.072202477
0.9051460326624297	6467757.844243499
0.9053723191705955	6483785.010439627
0.9055986622503881	6499816.183427288
0.9058250619159507	6515851.364208198
0.9060515181814298	6531890.553784313
0.9062780310609752	6547933.753157809
0.9065046005687405	6543595.976960742
0.906731226718883	6538119.898198589
0.9069579095255627	6532642.450416751
0.907184649002944	6527163.633272969
0.907411445165195	6521683.446424894
0.9076382980264862	6535404.181321998
0.907865207600993	6557103.022619688
0.9080921739028933	6578807.288627695
0.9083191969463691	6600516.980702202
0.9085462767456058	6622232.100199738
0.9087734133147922	6638399.991010803
0.9090006066681211	6648158.535594477
0.909227856819788	6657919.519814285
0.9094551637839932	6667682.944280162
0.9096825275749393	6677448.809602152
0.9099099482068329	6687715.132954681
0.9101374256938848	6699753.982392718
0.9103649600503083	6711795.841543107
0.9105925512903209	6723840.711158283
0.9108201994281437	6735888.591990874
0.9110479044780008	6747939.48479366
0.9112756664541204	6760547.314236199
0.911503485370734	6773170.974856889
0.9117313612420768	6785797.791392736
0.9119592940823873	6798427.764632712
0.912187283905908	6811060.895366003
0.9124153307268845	6806013.896039443
0.9126434345595664	6794547.634910663
0.9128715954182063	6783078.507216612
0.9130998133170609	6771606.512240631
0.9133280882703902	6760131.649265907
0.913556420292458	6760633.079803036
0.9137848093975312	6773488.922580209
0.9140132555998806	6786347.979318075
0.9142417589137806	6799210.250820126
0.9144703193535092	6812075.737890062
0.9146989369333476	6822532.420323913
0.9149276116675811	6825716.986345713
0.9151563435704979	6828902.348509015
