#wavelength	surface flux
0.6450077295303345	51883.162113804996
0.6472567915916443	54392.586064613366
0.6494921445846558	57128.039955802466
0.6517150402069092	59897.36639685211
0.6539263725280762	62585.720256429355
0.6561272740364075	65301.03125300305
0.6583186388015747	68025.16284750262
0.6605015397071838	70957.87316764725
0.6626768708229065	73931.25787734796
0.6648455858230591	76880.82298463513
0.6670085787773132	79719.03813992668
0.6691668033599854	77941.97515406889
0.6713210344314575	75375.3959677356
0.6734722256660461	88615.57943145292
0.6756211519241333	92680.47889728557
0.6777685880661011	96171.66760674605
0.6799154281616211	99640.9438204612
0.6820623278617859	103171.81609051429
0.6842101216316223	106783.57343319248
0.6863595843315125	110435.16037060441
0.688511312007904	114145.86608782622
0.6906660795211792	117487.16001978666
0.6928245425224304	119713.73849591996
0.6949873566627502	125272.79497170428
0.6971551775932312	129741.59972540385
0.6993286609649658	133675.04516274662
0.7015084028244019	137503.17181979018
0.7036949396133423	141954.23074915283
0.7058889269828796	146876.87561658793
0.7080909013748169	151081.66850705957
0.710301399230957	155514.97133559771
0.712520956993103	160365.91224969938
0.7147500514984131	164589.1665725005
0.7169892191886902	166125.6103769709
0.7192389369010925	172479.26128841343
0.7214996814727783	176838.90446575984
0.723771870136261	180533.89763285153
0.7260559797286987	183775.56229812614
0.7283523678779602	188331.59240870515
0.7306615710258484	191800.49978308633
0.7329838871955872	198127.98834408858
0.7353196740150452	202164.41426633755
0.7376693487167358	205887.68678551939
0.7400332689285278	209672.0601607109
0.7424117922782898	209953.49803867438
0.7448052167892456	210981.5707443428
0.7472138404846191	208473.65778543145
0.7496379613876343	202764.2597737583
0.7520779371261597	191366.8999638336
0.7545340061187744	172372.9079609925
0.7570064663887024	142590.68950108075
0.7594954967498779	101004.71580841574
0.7620013952255249	50612.82163700825
0.7645244002342224	11017.131341708917
0.7670646905899048	1475.1767522239072
0.7696225643157959	1824.5188592476586
0.7721980810165405	27562.126815801552
0.7747915983200073	91433.49691579593
0.7774031162261963	157101.08056933308
0.7800329327583313	184464.53691617385
0.7826811671257019	259282.23392802043
0.7853479981422424	301762.78633582697
0.7880334854125977	334196.6631263543
0.7907378077507019	359908.9735733497
0.7934610247612	262805.03866282734
0.7962033748626709	322373.98170373536
0.7989648580551147	427407.830648554
0.801745593547821	448306.2322671944
0.8045456409454346	467176.56715212576
0.8073651194572449	485177.40666800056
0.8102040886878967	494337.1821389232
0.8130625486373901	504528.3076879295
0.8159406185150146	536447.9787871115
0.8188382983207703	554963.2765109495
0.8217556476593018	570497.6032860557
0.8246926665306091	590954.7691012322
0.8276493549346924	610477.2927814283
0.8306257724761963	623114.0798962152
0.8336219191551208	646838.4410067076
0.8366377949714661	659460.0318379569
0.8396733403205872	681661.9791234708
0.8427285552024841	716617.788640745
0.8458034992218018	739999.6092258146
0.8488980531692505	763654.7413394694
0.8520121574401855	779313.5016274129
0.8551458716392517	812434.0886331107
0.8582990765571594	838177.3798775525
0.8614717125892639	858689.2415752518
0.8646637797355652	882249.6521724473
0.8678751587867737	909471.7892481133
0.8711057901382446	938641.3535986495
0.8743556141853333	963022.1221305799
0.87762451171875	986964.2453088573
0.8809124231338501	1002249.6325869907
0.8842192888259888	1027873.3406866826
0.8875449895858765	1044855.0723951841
0.8908893465995789	1064257.455584167
0.894252359867096	1044731.8275545075
0.8976338505744934	1106145.3934338007
0.9010337591171265	1172376.586061289
0.9044519662857056	1220511.6706858056
0.9078882932662964	1240915.4419324733
0.9113426208496094	1290952.1898734677
0.914814829826355	1302941.8196500253
0.9183048605918884	1303071.0318833885
0.9218124747276306	1387997.098389941
0.925337553024292	1319694.6162339682
0.9288799166679382	1015058.8178433279
0.9324395060539246	1121319.2956137802
0.9360161423683167	1172978.3101607761
0.9396095871925354	1358761.0139290614
0.943219780921936	1297386.1995162447
0.9468464851379395	1188542.4161108562
0.9504896402359009	1373311.367495827
0.9541489481925964	1395594.1324420716
0.9578243494033813	1478003.7629837978
0.9615156054496765	1307799.524262017
0.9652225375175476	1406903.0156303311
0.9689450263977051	1422018.5656495579
0.9726828336715698	1793645.8921279185
0.9764357805252075	1765823.6995426747
0.9802037477493286	1875974.627444333
0.983986496925354	1954058.338622742
0.9877838492393494	2031030.1343469152
0.9915955662727356	2149767.691639503
0.9954215884208679	2219265.6263116123
0.9992615580558777	2295609.627030601
1.0031154155731201	2340725.258893576
1.0069829225540161	2425061.986436908
1.0108637809753418	2498306.0909479735
1.0147579908370972	2581996.9825170967
1.018665075302124	2645074.6433884813
1.022585153579712	2695241.1601611585
1.0265177488327026	2727239.608157787
1.0304628610610962	2717278.339592583
1.0344202518463135	2899380.5539561883
1.0383895635604858	2964292.9062004546
1.0423706769943237	3032937.0821951954
1.0463634729385376	3097464.4904084303
1.0503677129745483	3138160.1016121316
1.0543830394744873	3222722.2910437323
1.058409333229065	3296803.231435476
1.0624464750289917	3363518.5277272654
1.0664942264556885	3431368.451453011
1.0705522298812866	3478304.424469446
1.0746204853057861	3567584.938403229
1.0786986351013184	3628446.86956751
1.0827864408493042	3708709.333599792
1.086883783340454	3760984.532679385
1.0909905433654785	3749160.937718379
1.0951062440872192	3760205.0216656146
1.0992310047149658	3525324.568078877
1.10336434841156	2747497.6316560237
1.1075061559677124	2921798.3820826346
1.1116561889648438	2831268.5363336564
1.115814208984375	2335598.8329367023
1.1199802160263062	2315251.9478649427
1.124153733253479	2570643.2337362273
1.1283347606658936	2798224.183926505
1.1325229406356812	2177471.462752092
1.1367181539535522	2921818.938724019
1.1409201622009277	3175836.6938996636
1.145128846168518	3640067.4838078725
1.1493438482284546	3256228.02746486
1.1535650491714478	1545967.8641103436
1.1577922105789185	2207223.7347296393
1.1620250940322876	2395088.006749838
1.1662636995315552	3501547.2652244586
1.170507550239563	3251274.1762115164
1.174756646156311	4036744.7451563766
1.1790107488632202	4662161.955346359
1.1832695007324219	5017726.578825522
1.1875330209732056	5124209.971600276
1.191800832748413	5399663.219069463
1.1960728168487549	5667818.420280216
1.2003488540649414	5859188.9413943505
1.2046287059783936	5864015.108164931
1.2089121341705322	6060345.654522049
1.2131990194320679	6136516.653483626
1.2174891233444214	6330741.190679922
1.2217823266983032	6448615.780775866
1.2260783910751343	6595732.9351642765
1.230377197265625	6695323.305969405
1.2346785068511963	6785836.4693793785
1.238982081413269	6920664.912490771
1.2432878017425537	7025791.2920522895
1.2475954294204712	7117189.323035257
1.2519049644470215	7189090.883602568
1.256216049194336	7344983.47247941
1.2605286836624146	7411751.734933992
1.2648425102233887	7481020.532486403
1.2691574096679688	7562051.922780541
1.2734732627868652	7625607.080024561
1.2777899503707886	7747256.934249745
1.2821072340011597	7741540.436619626
1.2864248752593994	7818540.261463076
1.2907428741455078	7667161.580706641
1.2950609922409058	7753508.72126297
1.2993791103363037	7842784.562967609
1.303696870803833	7694091.515300952
1.3080145120620728	7751559.09605028
1.3123314380645752	7676212.708712392
1.3166478872299194	8179809.448633121
1.3209635019302368	8028654.539678993
1.3252781629562378	7300918.264099962
1.3295916318893433	6349782.141662723
1.3339040279388428	3860452.059694444
1.3382149934768677	1345083.96404743
1.3425244092941284	552852.7556731007
1.3468321561813354	1434502.0271280066
1.3511382341384888	564831.2268755531
1.3554422855377197	425721.38388451375
1.3597444295883179	350595.5705197592
1.3640443086624146	507881.1472638943
1.3683418035507202	418378.7297777488
1.3726370334625244	1205098.3809228297
1.3769296407699585	2611725.83856563
1.381219506263733	1092476.574884437
1.3855066299438477	195587.50142796454
1.3897908926010132	251558.71479474826
1.3940720558166504	449489.8805180888
1.3983501195907593	366874.9558203395
1.4026249647140503	1015157.7241709617
1.4068963527679443	1794354.1741238323
1.4111642837524414	460774.4982623162
1.4154287576675415	716698.8860556559
1.419689416885376	714435.0274017844
1.4239463806152344	350378.2116531112
1.4281994104385376	1196412.5559007642
1.4324485063552856	842098.9608622417
1.436693549156189	1310080.3669539038
1.440934419631958	1306047.1767338715
1.4451709985733032	1911523.6583061425
1.449403166770935	3903638.129065896
1.453631043434143	4206759.924083408
1.4578542709350586	4624171.207955407
1.4620729684829712	4787119.955661629
1.4662868976593018	5359872.922968812
1.4704961776733398	4113357.8389642118
1.4747005701065063	4226586.335218448
1.4788999557495117	4134487.164090768
1.4830944538116455	5890955.695328679
1.4872838258743286	6988922.16407103
1.491468071937561	7136786.792846319
1.4956470727920532	6332056.329589122
1.4998208284378052	7288658.968685287
1.5039892196655273	8299210.313157058
1.5081522464752197	7804797.954235048
1.5123097896575928	8323891.261746772
1.5164618492126465	9215872.80051666
1.5206083059310913	10356302.661703931
1.5247491598129272	11271214.916188834
1.5288842916488647	10736513.627746277
1.5330137014389038	11337026.855829604
1.5371372699737549	11831363.27233043
1.541254997253418	11834321.789333964
1.545366883277893	12180907.97452301
1.5494728088378906	12424668.606136879
1.5535727739334106	12802817.191081466
1.5576666593551636	12450354.288724683
1.561754584312439	12701041.647382172
1.5658363103866577	13393810.988198359
1.5699119567871094	13639657.62385774
1.5739814043045044	13201854.897938548
1.5780447721481323	12350354.466483502
1.582101821899414	12921340.518912505
1.5861525535583496	14162379.780199593
1.5901970863342285	14132276.979907967
1.5942351818084717	13923546.632037506
1.5982669591903687	13531176.718135737
1.6022924184799194	13341440.621277759
1.606311559677124	13625505.686916387
1.6103241443634033	13493728.324381547
1.6143304109573364	13038648.471534144
1.6183301210403442	12684032.895215731
1.6223233938217163	11962719.378158173
1.6263102293014526	11422964.42362901
1.6302905082702637	10267342.413222108
1.634264349937439	10992316.823225785
1.638231635093689	13811632.156900495
1.6421923637390137	14055082.822415387
1.646146535873413	12717019.838984426
1.6500942707061768	11151990.527073024
1.6540353298187256	13064823.977947008
1.6579699516296387	13453150.88373805
1.661897897720337	12993866.066656493
1.6658192873001099	9000195.715808684
1.6697341203689575	8378694.608446138
1.6736423969268799	12343392.40906517
1.677544116973877	12139131.881276887
1.6814392805099487	11523081.500109753
1.6853278875350952	11599378.455700226
1.6892099380493164	10884104.891330885
1.6930854320526123	10001022.175496329
1.696954369544983	7811495.394832601
1.7008168697357178	8612954.630527422
1.7046726942062378	8460953.930187093
1.708522081375122	10169945.89354998
1.712364912033081	10393106.518093623
1.7162011861801147	11415243.086570092
1.7200311422348022	12342624.922625389
1.723854422569275	12172172.482736439
1.7276713848114014	11778672.570673926
1.731481909751892	11176583.736716447
1.7352858781814575	10490496.358047144
1.7390835285186768	10462223.876438664
1.7428747415542603	10339101.056673536
1.7466596364974976	9366985.916044611
1.7504380941390991	8717157.621502066
1.7542102336883545	7033392.380918781
1.7579760551452637	9722691.650110452
1.7617355585098267	10799175.673882896
1.7654887437820435	9107858.951175798
1.7692357301712036	6988762.580428435
1.7729763984680176	4724726.658117597
1.776710867881775	2374108.306320763
1.7804391384124756	2179951.8265286856
1.7841613292694092	2879966.511586417
1.7878772020339966	1750390.5903886587
1.7915871143341064	2374238.8024676247
1.7952908277511597	3625818.6003536745
1.7989884614944458	4537556.60386626
1.8026801347732544	1843518.0364104891
1.806365728378296	601035.8949559275
1.8100452423095703	1094485.7952015137
1.8137187957763672	1846846.3305462173
1.817386507987976	488882.1341962052
1.8210482597351074	1754814.7099014358
1.8247040510177612	1828416.2645928103
1.828354001045227	414737.2317361302
1.8319982290267944	536570.3360272249
1.8356364965438843	1238584.8319561034
1.8392690420150757	2216877.128971211
1.8428958654403687	1609293.2150833274
1.8465168476104736	1690170.2312115377
1.8501322269439697	2445732.920558814
1.8537418842315674	1369333.1552460187
1.8573459386825562	916998.0195733266
1.860944390296936	952365.6967475058
1.864537239074707	381414.1211095371
1.8681244850158691	460021.5081329264
1.871706247329712	1196033.9331980185
1.8752825260162354	1856953.7735020595
1.8788533210754395	3599701.016758458
1.8824186325073242	4977674.042127941
1.8859784603118896	3670006.2128722044
1.8895330429077148	3139388.3394049956
1.8930821418762207	5109861.347653125
1.8966259956359863	4711484.5115920715
1.9001644849777222	979614.1145136049
1.9036977291107178	369134.66796320776
1.9072256088256836	821828.4846936234
1.9107483625411987	634366.0640797938
1.9142658710479736	210327.31244262322
1.9177782535552979	318402.81273146154
1.9212853908538818	620657.9859953215
1.9247875213623047	481838.24771995924
1.9282845258712769	551145.8690275054
1.9317764043807983	930702.8636572247
1.9352631568908691	1045290.4647942651
1.9387450218200684	890450.4725256673
1.942221760749817	1359659.4155824133
1.9456936120986938	1457684.267139957
1.9491604566574097	2021241.3926190939
1.952622413635254	1807408.073588915
1.956079363822937	1026133.3325802794
1.959531545639038	1320146.574796448
1.962978720664978	1359206.1147288885
1.966421127319336	2054895.392423195
1.9698586463928223	3602215.578459597
1.9732913970947266	3804148.06808799
1.9767193794250488	4097448.848902282
1.9801424741744995	5455938.075951314
1.9835609197616577	6414669.856540118
1.9869745969772339	6644585.661223538
1.990383505821228	4846568.267653626
1.9937876462936401	5327941.91847585
1.9971871376037598	5261956.216698464
2.000581979751587	5707983.589360378
2.003972291946411	8071654.700340936
2.007357597351074	8909901.286645971
2.0107386112213135	10716103.425094908
2.0141148567199707	10666018.090418361
2.017486572265625	8978240.029637136
2.0208535194396973	10153514.063582178
2.0242159366607666	12078762.166572731
2.027573823928833	12555933.979623552
2.0309269428253174	13339768.783137484
2.034275770187378	14262651.89487161
2.0376198291778564	14898982.93527668
2.040959596633911	15606792.686963554
2.044294595718384	16592014.036321713
2.0476250648498535	17631741.05950929
2.0509510040283203	17399750.300746508
2.054272413253784	16642202.886732452
2.057589530944824	17146387.868168652
2.0609018802642822	17864520.35701542
2.0642096996307373	18350818.588746265
2.0675129890441895	18631853.61351352
2.0708119869232178	18779354.412745103
2.074106216430664	18610374.89633924
2.0773961544036865	18493952.27072536
2.080681324005127	18737150.13961762
2.0839622020721436	18814741.038963776
2.087238311767578	18866973.22056554
2.090510129928589	18825154.126361992
2.0937774181365967	18548603.45267659
2.0970399379730225	18557437.294537816
2.1002981662750244	18487670.962587986
2.1035518646240234	18296827.412062965
2.1068007946014404	18066410.51684189
2.1100454330444336	18168760.227112398
2.1132853031158447	18179286.76004138
2.116520881652832	17658796.033199616
2.1197516918182373	17362186.677451883
2.1229779720306396	17382400.00675703
2.12619948387146	17506845.50648206
2.1294167041778564	17497510.960889295
2.132629156112671	17551327.857634153
2.1358368396759033	17145425.31299198
2.139039993286133	16497951.85804408
2.1422386169433594	15921130.686265066
2.145432472229004	15333908.170920309
2.1486217975616455	15018228.237806277
2.151806354522705	14406501.74371832
2.1549863815307617	14613759.466951907
2.1581614017486572	14767534.111999946
2.16133189201355	13917060.190742318
2.1644976139068604	13611015.130071333
2.167658567428589	13609860.397599906
2.1708147525787354	13879812.445592986
2.173966407775879	13998042.362513483
2.1771130561828613	13822838.905211551
2.1802549362182617	13308907.17535446
2.183391809463501	12575793.770560239
2.1865241527557373	11754098.807854552
2.1896514892578125	10760848.622619644
2.1927738189697266	8868830.245815767
2.1958916187286377	6287538.234847168
2.1990041732788086	4385468.700461485
2.2021119594573975	3616248.429118715
2.2052149772644043	3560154.3733435012
2.208312749862671	3930131.6404506653
2.2114057540893555	4567592.725205969
2.214493751525879	4985456.747733608
2.217576742172241	4734354.768245628
2.2206547260284424	4480169.13892193
2.2237277030944824	4329327.315845034
2.2267956733703613	3646601.7784833563
2.2298583984375	2833978.3778260974
2.2329163551330566	2437406.589696336
2.235969066619873	2343548.8398066424
2.2390167713165283	2203296.9756643274
2.2420592308044434	1824142.586505458
2.2450966835021973	1494045.6453491426
2.248128890991211	1666349.27361414
2.2511560916900635	2051203.236538785
2.254178285598755	2202535.186698397
2.257194995880127	2336991.949577197
2.260206699371338	2302245.6622099546
2.2632133960723877	1910914.6235088666
2.266214609146118	1563709.4014714926
2.2692108154296875	1524637.0142650919
2.2722020149230957	1776253.4006251078
2.2751877307891846	2000659.837579347
2.278168201446533	1945926.939188453
2.2811436653137207	1757720.409517196
2.284113883972168	1622338.0082597635
2.287078857421875	1492082.8826624942
2.290038824081421	1380900.875850388
2.2929933071136475	1399782.0800246345
2.295942783355713	1509674.5292637832
2.298887014389038	1629479.8436835988
2.301826238632202	1850758.5010894043
2.304760217666626	2385808.4660669505
2.3076889514923096	3209344.394838831
2.310612440109253	3784108.333967331
2.3135311603546143	3371564.6196538964
2.3164443969726562	2003235.4175645255
2.319352865219116	1091786.9268939197
2.322256088256836	1029165.0938393594
2.3251543045043945	1062181.1232798132
2.328047275543213	1030504.2262252355
2.330935478210449	1036452.5455545742
2.3338186740875244	1024051.2054238432
2.3366971015930176	991651.0007368142
2.3395702838897705	952194.3309153575
2.3424389362335205	875254.840372445
2.3453025817871094	786580.9494843475
2.348161458969116	786987.4022138357
2.351015567779541	962434.42578813
2.353865146636963	1260740.3039363357
2.3567099571228027	1532621.6369389673
2.3595502376556396	1737648.2860192459
2.3623859882354736	1903034.389961146
2.3652172088623047	1749839.9942688232
2.368043899536133	1164368.2763102595
2.370866537094116	731329.0944210711
2.3736846446990967	680360.7481246539
2.3764986991882324	780172.8705111173
2.3793084621429443	905494.2385774726
2.3821144104003906	1077997.4264047472
2.384916305541992	1297032.4627260484
2.387714147567749	1440994.234363638
2.3905084133148193	1387725.07296799
2.393299102783203	1327936.6646497068
2.3960859775543213	1404535.099131528
2.398869514465332	1500832.6403178163
2.4016497135162354	1480782.608840974
2.4044265747070312	1509821.055664663
2.407200336456299	1754865.5519198745
2.409970998764038	2134781.4141905024
2.4127390384674072	2402221.2061960157
2.415503978729248	2530397.0709313485
2.418266534805298	2865735.4652735656
2.4210267066955566	3008263.5544582554
2.4237842559814453	2690666.300122152
2.426539897918701	2504265.374981236
2.429293394088745	2770509.0005379324
2.4320452213287354	3252720.7560577537
2.4347951412200928	3408842.9288485544
2.4375438690185547	3284726.01964194
2.440291166305542	3282964.3734621555
2.443037271499634	3101726.62343757
2.445782423019409	2679955.7510581985
2.4485268592834473	2290223.1299640075
2.451270818710327	2265931.5604601433
2.454014539718628	2707062.7997912997
2.4567582607269287	3099993.5221298216
2.4595019817352295	3095307.728096712
2.4622461795806885	3290661.475413487
2.4649908542633057	3106413.513124641
2.4677364826202393	2487443.990881274
2.4704833030700684	1745692.735327697
2.473231554031372	1271036.4846661012
2.4759814739227295	1019428.8928249874
