#wavelength	surface flux
0.8	28083144.783731647
0.8002000000000001	28169043.56230865
0.8004000500000003	28210293.319237478
0.8006001500125003	28251102.172609933
0.8008003000500035	28291921.228195734
0.8010005001250161	28332750.48854545
0.8012007502500472	28373589.956210196
0.8014010504376099	28436832.39360816
0.8016014007002193	28507591.532046724
0.8018018010503944	28578368.360269893
0.8020022515006572	28649162.882700153
0.8022027520635323	28719975.10376096
0.8024033027515483	28785827.702571284
0.8026039035772362	28846819.179712627
0.8028045545531306	28907825.904723257
0.8030052556917691	28968847.88141517
0.803206007005692	29029885.1136012
0.8034068085074435	29089189.239265524
0.8036076602095705	29143607.265082154
0.8038085621246229	29198038.895405192
0.8040095142651542	29252484.133635845
0.8042105166437206	29306942.983176038
0.8044115692728815	29360675.509537853
0.8046126721651998	29382595.4366727
0.8048138253332411	29404520.84378931
0.8050150287895745	29426451.73225772
0.805216282546772	29448388.103448242
0.8054175866174087	29470329.95873155
0.8056189410140631	29499534.35951189
0.8058203457493168	29530800.280063808
0.8060218008357541	29562074.017095823
0.8062233062859632	29593355.572562113
0.8064248621125346	29624644.94841725
0.806626468328063	29664087.539016064
0.8068281249451449	29710535.89695147
0.8070298319763813	29756995.86697642
0.8072315894343755	29803467.45199384
0.8074333973317341	29849950.654907536
0.8076352556810671	29895411.02151429
0.8078371644949874	29938392.642219357
0.8080391237861113	29981385.008329615
0.8082411335670578	30024388.122531373
0.8084431938504498	30067401.987511728
0.8086453046489125	30110191.815077316
0.8088474659750746	30148620.954544026
0.8090496778415686	30187059.701295655
0.809251940261029	30225508.057733946
0.8094542532460944	30263966.026261378
0.8096566168094059	30302433.6092809
0.8098590309636085	30330923.78620173
0.8100614957213493	30357083.541388046
0.8102640110952797	30383249.836513158
0.8104665770980536	30409422.673212063
0.8106691937423283	30435602.05312015
0.8108718610407639	30468028.80982262
0.8110745790060241	30505235.709847502
0.8112773476507757	30542451.911597427
0.8114801669876885	30579677.41739778
0.8116830370294355	30616912.22957456
0.8118859577886929	30660320.151828323
0.8120889292781401	30716541.411046043
0.8122919515104597	30772776.72557856
0.8124950244983374	30829026.09893972
0.8126981482544621	30885289.53464421
0.8129013227915257	30941681.776929956
0.8131045481222237	30999401.91608917
0.8133078242592543	31057136.485283174
0.8135111512153191	31114885.488119464
0.813714529003123	31172648.92820647
0.8139179576353739	31230426.809153505
0.8141214371247829	31300731.778013114
0.8143249674840641	31373480.735138763
0.814528548725935	31446247.87950365
0.8147321808631167	31519033.215654727
0.8149358639083326	31591836.748139817
0.8151395978743097	31634883.775803458
0.8153433827737784	31657824.52481117
0.8155472186194719	31680771.009006124
0.8157511054241268	31703723.22982212
0.815955043200483	31726681.18869334
0.8161590319612831	31732921.64016891
0.8163630717192736	31708520.340319753
0.8165671624872033	31684112.94014566
0.8167713042778252	31659699.438121498
0.8169754971038948	31635279.832721822
0.8171797409781707	31568762.3443061
0.8173840359134155	31166196.525612127
0.8175883819223938	30763530.065463945
0.8177927790178745	30360762.938700493
0.8179972272126291	29957895.120155245
0.8182017265194322	29554926.58465577
0.8184062769510622	29456247.449029166
0.8186108785203001	29404384.781273253
0.8188155312399301	29352509.147850476
0.8190202351227402	29300620.54551928
0.819224990181521	29248718.971037537
0.8194297964290664	29588817.63471252
0.8196346538781738	30165286.592165213
0.8198395625416434	30741899.666857038
0.8200445224322789	31318656.894817777
0.820249533562887	31895558.312085338
0.8204545959462778	32295918.348207813
0.8206597095952644	32412007.760563128
0.8208648745226633	32528126.195271622
0.8210700907412941	32644273.659588777
0.8212753582639793	32760450.16077189
0.8214806771035456	32864784.13003068
0.8216860472728215	32896000.8106364
0.8218914687846397	32927225.295412272
0.822096941651836	32958457.586309355
0.822302465887249	32989697.685279146
0.8225080415037209	33020945.594273694
0.8227136685140968	33090704.162146542
0.8229193469312254	33164851.04749026
0.8231250767679583	33239016.469555337
0.8233308580371503	33313200.432975892
0.8235366907516598	33387402.942387357
0.8237425749243477	33460825.023346934
0.8239485105680789	33533841.98686931
0.824154497695721	33606877.20463252
0.824360536320145	33679930.681200184
0.8245666264542252	33753002.42113698
0.8247727681108388	33812541.59827994
0.8249789613028664	33852688.32017427
0.8251852060431922	33892845.0787491
0.825391502344703	33933011.87651356
0.8255978502202894	33973188.7159775
0.8258042496828445	34013543.629902154
0.8260107007452654	34054724.683302164
0.8262172034204517	34095916.03196549
0.8264237577213068	34137117.67846598
0.8266303636607373	34178329.62537812
0.8268370212516525	34219551.87527697
0.8270437305069654	34245277.20070102
0.8272504914395923	34269797.168212794
0.8274573040624523	34294323.26571645
0.8276641683884679	34318855.49474446
0.8278710844305652	34343393.856829755
0.8280780522016729	34387487.28277898
0.8282850717147234	34440527.51145419
0.8284921429826521	34493581.00018652
0.8286992660183978	34546647.75229107
0.8289064408349024	34599727.77108361
0.8291136674451112	34651255.25924743
0.8293209458619727	34700821.233145826
0.8295282760984382	34750399.59853763
0.829735658167463	34799990.35852084
0.8299430920820048	34849593.516193986
0.8301505778550254	34897054.233152315
0.8303581154994891	34935926.21182715
0.8305657050283641	34974807.9084967
0.8307733464546212	35013699.32559038
0.8309810397912352	35052600.4655384
0.8311887850511829	35091511.330771334
0.8313965822474458	35157452.71698096
0.8316044313930077	35224664.766485505
0.8318123325008561	35291893.6190025
0.8320202855839813	35359139.27873259
0.8322282906553774	35426401.74987761
0.8324363477280413	35479164.3150524
0.8326444568149735	35526095.68997018
0.8328526179291771	35573038.79773164
0.8330608310836596	35619993.6412701
0.8332690962914304	35666960.22351939
0.8334774135655034	35706223.42535493
0.833685782918895	35736878.39829167
0.8338942043646247	35767541.034971625
0.834102677915716	35798211.33731077
0.834311203585195	35828889.30722548
0.8345197813860912	35868323.96338093
0.8347284113314379	35937218.48674861
0.8349370934342709	36006130.233747095
0.8351458277076294	36075059.20868225
0.8353546141645565	36144005.41586124
0.8355634528180977	36212968.859592006
0.8357723436813022	36199270.60205913
0.8359812867672226	36184548.04569362
0.8361902820889144	36169821.80868902
0.8363993296594368	36155091.89012517
0.8366084294918518	36140358.28908167
0.8368175815992247	36167760.599519715
0.8370267859946247	36209683.06983488
0.8372360426911234	36251616.02076762
0.8374453517017962	36293559.45493809
0.8376547130397217	36335513.3749671
0.8378641267179816	36380720.80928214
0.8380735927496613	36429157.470082775
0.8382831111478488	36477606.24004858
0.8384926819256358	36526067.122206844
0.8387023050961173	36574540.1195857
0.8389119806723914	36618304.263954096
0.8391217086675596	36648792.993607804
0.8393314890947265	36679289.3454439
0.8395413219670003	36709793.32136796
0.8397512072974922	36740304.92328602
0.8399611450993165	36771303.726024926
0.8401711353855914	36826125.698301844
0.8403811781694378	36880961.37607181
0.8405912734639802	36935810.76276123
0.8408014212823464	36990673.861797355
0.8410116216376671	37045550.67660823
0.8412218745430766	37098422.7779699
0.8414321800117124	37150720.811343506
0.8416425380567154	37203031.919225484
0.8418529486912297	37255356.104884446
0.8420634119284025	37307693.37158977
0.8422739277813847	37372536.74660156
0.8424844962633302	37448403.17136807
0.842695117387396	37524288.562740676
0.8429057911667428	37600192.92546113
0.8431165176145345	37676116.264272295
0.8433272967439382	37736479.313505575
0.8435381285681244	37758855.29283081
0.8437490131002665	37781236.86615088
0.8439599503535415	37803624.03486426
0.84417094034113	37826016.80036984
0.8443819830762154	37847419.58426655
0.8445930785719846	37848771.678674184
0.8448042268416277	37850124.11110542
0.8450154278983382	37851476.88164476
0.8452266817553128	37852829.99037674
0.8454379884257517	37854183.4373859
0.8456493479228583	37908124.249645874
0.845860760259839	37974742.13519817
0.846072225449904	38041376.67522186
0.8462837435062666	38108027.873880565
0.8464953144421433	38174695.73533898
0.8467069382707537	38231328.67656272
0.8469186150053215	38280140.87250165
0.847130344659073	38328965.271489576
0.8473421272452377	38377801.8765772
0.8475539627770492	38426650.69081614
0.8477658512677435	38471977.961279064
0.8479777927305605	38509813.0980694
0.8481897871787432	38547657.69364392
0.848401834625538	38585511.75036735
0.8486139350841944	38623375.270604946
0.8488260885679657	38660892.93637928
0.8490382950901076	38694088.75272369
0.8492505546638802	38727292.86802218
0.8494628673025462	38760505.28434949
0.8496752330193721	38793726.00378094
0.8498876518276269	38826955.02839219
0.8501001237405839	38809465.67617125
0.8503126487715191	38781846.01456365
0.850525226933712	38754219.44804067
0.8507378582404455	38726585.97487606
0.8509505427050057	38698945.59334314
0.8511632803406821	38697421.993730284
0.8513760711607672	38713787.95856178
0.8515889151785576	38730158.0148845
0.8518018124073523	38746532.16372129
0.8520147628604541	38762910.40609529
0.8522277665511693	38819298.82473294
0.8524408234928071	38949687.752769776
0.8526539336986805	39080109.278038666
0.8528670971821053	39210563.40868888
0.8530803139564007	39341050.1528716
0.8532935840348901	39468154.61918305
0.8535069074308987	39566450.289830424
0.8537202841577566	39664770.53439555
0.8539337142287962	39763115.35902183
0.8541471976573534	39861484.769854195
0.8543607344567677	39959878.773039296
0.8545743246403821	40015079.61189759
0.8547879682215422	40063430.776274204
0.8550016652135977	40111794.02844191
0.8552154156299011	40160169.37142266
0.8554292194838088	40208556.80823919
0.8556430767886797	40243284.86243758
0.855856987557877	40269720.6373961
0.8560709518047664	40296163.02129833
0.8562849695427177	40322612.01579655
0.8564990407851035	40349067.6225434
0.8567131655452999	40379389.10226487
0.8569273438366862	40416041.68714179
0.8571415756726455	40452703.435164936
0.8573558610665638	40489374.3486251
0.8575702000318304	40526054.42981359
0.8577845925818384	40572479.28883446
0.857999038729984	40679727.94709257
0.8582135384896665	40787003.41751522
0.858428091874289	40894305.70680548
0.8586426988972576	41001634.821668044
0.8588573595719821	41108990.76880935
0.8590720739118751	41127908.00409816
0.8592868419303532	41136399.61591771
0.8595016636408359	41144893.350640215
0.8597165390567462	41153389.2087964
0.8599314681915105	41161887.19091712
0.8601464510585584	41134091.920679666
0.860361487671323	41087024.36895637
0.8605765780432408	41039945.05034517
0.8607917221877518	40992853.961904265
0.8610069201182988	40945751.10069127
0.8612221718483286	40523822.5601928
0.8614374773912907	39561443.57195741
0.8616528367606385	38598823.98897522
0.8618682499698288	37635963.75109667
0.8620837170323213	36672862.79815882
0.8622992379615795	35842982.10113745
0.8625148127710699	35673341.4457259
0.8627304414742627	35503658.38015049
0.8629461240846313	35333932.893808655
0.8631618606156526	35164164.976095214
0.8633776510808066	34994354.61640239
0.8635934954935769	36038751.308019236
0.8638093938674504	37182943.326778814
0.8640253462159173	38327421.39354304
0.8642413525524714	39472185.57982394
0.8644574128906095	40617235.95715116
0.8646735272438323	40655331.62957251
0.8648896956256433	40178539.09583362
0.8651059180495498	39701627.36396127
0.8653221945290621	39224596.40415642
0.8655385250776946	38747446.18661094
0.8657549097089641	38627173.766934454
0.8659713484363913	38963906.02551122
0.8661878412735006	39300722.46715279
0.866404388233819	39637623.11290472
0.8666209893308775	39974607.983817935
0.8668376445782103	40250221.65584691
0.8670543539893549	40275073.36256156
0.8672711175778525	40299931.28220291
0.8674879353572469	40324795.41632413
0.8677048073410862	40349665.7664789
0.8679217335429217	40374542.33422123
0.8681387139763074	40424382.66863389
0.8683557486548015	40475475.29050643
0.8685728375919655	40526580.68553449
0.8687899808013633	40577698.856911205
0.8690071782965637	40628829.807830825
0.869224430091138	40537739.72510009
0.8694417361986609	40388752.10976445
0.8696590966327107	40239727.24752501
0.869876511406869	40090665.12907
0.8700939805347206	39941565.74508544
0.8703115040298544	39825624.31751972
0.870529081905862	39747605.65695554
0.8707467141763385	39669567.49172625
0.8709644008548827	39591509.816955656
0.8711821419550964	39513432.627766415
0.8713999374905854	39493419.46497428
0.871617787474958	39673867.767812625
0.8718356919218269	39854361.18272685
0.8720536508448075	40034899.720994815
0.8722716642575187	40215483.393897235
0.8724897321735832	40396112.21271797
0.8727078546066265	40525090.21407749
0.8729260315702784	40653313.99457998
0.873144263078171	40781569.831027456
0.8733625491439405	40909857.731434055
0.8735808897812266	41038177.70381581
0.8737992850036719	41052953.04871255
0.874017734824923	41027505.08517263
0.8742362392586293	41002050.75964184
0.874454798318444	40976590.07052966
0.8746734120180236	40951123.01624521
0.8748920803710283	40953685.54528628
0.875110803391121	40984422.173345216
0.8753295810919689	41015166.485561185
0.875548413487242	41045918.4838552
0.8757673005906139	41076678.1701488
0.8759862424157616	41175932.28893758
0.8762052389763657	41473380.84296812
0.8764242902861098	41770903.75913697
0.8766433963586814	42068501.05603493
0.8768625572077712	42366172.75225721
0.8770817728470732	42661757.68991166
0.8773010432902849	42788677.31647343
0.8775203685511077	42915628.67294201
0.8777397486432454	43042611.76724956
0.8779591835804065	43169626.60733084
0.8781786733763015	43296673.20112197
0.8783982180446457	43011202.89738785
0.878617817599157	42602935.71109878
0.8788374720535569	42194566.45801334
0.8790571814215703	41786095.11261473
0.8792769457169257	41377521.64937976
0.879496764953355	41150374.08374302
0.8797166391445934	41086375.36301774
0.8799365683043796	41022360.64261227
0.8801565524464557	40958329.918526694
0.8803765915845676	40894283.186760046
0.8805966857324639	40943375.21971408
0.880816834903897	41276690.40158956
0.881037039112623	41610088.91226064
0.8812572983724012	41943570.77255935
0.8814776126969944	42277136.00332328
0.8816979821001687	42600953.80807314
0.8819184065956938	42693433.47280993
0.8821388861973429	42785936.25746301
0.8823594209188923	42878462.16781215
0.882580010774122	42971011.20963885
0.8828006557768155	43063583.38872605
0.8830213559407598	43312300.95367468
0.8832421112797452	43600347.0268357
0.8834629218075651	43888465.11151484
0.8836837875380171	44176655.22571523
0.8839047084849018	44464917.38744421
0.884125684662023	44339625.16520725
0.8843467160831886	43882832.84681214
0.8845678027622095	43425926.33033743
0.8847889447129001	42968905.58723351
0.8850101419490785	42511770.588943906
0.8852313944845657	42394152.350981645
0.885452702333187	43019915.407969445
0.8856740655087704	43645834.9057214
0.8858954840251476	44271910.88334763
0.8861169578961539	44898143.37996797
0.886338487135628	45451829.10533985
0.886560071757412	45038160.4705695
0.8867817117753515	44624388.418640465
0.8870034072032955	44210512.92369826
0.8872251580550963	43796533.95988281
0.8874469643446101	43382451.50132615
0.8876688260856963	43501848.89989299
0.8878907432922178	43731708.06610269
0.8881127159780409	43961624.6971038
0.8883347441570356	44191598.80726293
0.8885568278430749	44421630.410949364
0.8887789670500358	44459123.45076103
0.8890011617917983	44360003.28645758
0.8892234120822464	44260858.34211302
0.8894457179352669	44161688.61153244
0.8896680793647509	44062494.08851915
0.8898904963845921	44015501.54613366
0.8901129690086883	44068147.3251978
0.8903354972509405	44120806.265706696
0.8905580811252535	44173478.37095075
0.8907807206455347	44226163.64422105
0.8910034158256963	44264277.946317874
0.8912261666796527	44172063.822504565
0.8914489732213227	44079826.64516027
0.8916718354646282	43987566.408521555
0.8918947534234944	43895283.10682377
0.8921177271118502	43802976.73430062
0.8923407565436284	43886170.95416262
0.8925638417327644	43998018.655703194
0.8927869826931977	44109894.31916919
0.8930101794388711	44221797.95155104
0.8932334319837308	44333729.55984098
0.8934567403417267	44520582.83026723
0.8936801045268123	44754020.41954292
0.8939035245529441	44987516.368215784
0.8941270004340824	45221070.690875895
0.894350532184191	45454683.40211662
0.8945741198172371	45669577.53360699
0.8947977633471915	45853386.002232365
0.8950214627880284	46037240.42297489
0.8952452181537254	46221140.807322495
0.8954690294582639	46405087.16676629
0.8956928967156286	46564817.83917071
0.8959168199398075	46567138.82508557
0.8961407991447926	46569460.39124691
0.8963648343445789	46571782.53779978
0.896588925553165	46574105.2648893
0.8968130727845534	46576428.57266058
0.8970372760527496	46695394.75760857
0.8972615353717629	46828984.98433647
0.8974858507556059	46962608.60862107
0.8977102222182949	47096265.63881171
0.8979346497738496	47229956.08325996
0.8981591334362931	47341772.2778985
0.8983836732196523	47441635.635665976
0.8986082691379572	47541523.959272824
0.8988329212052417	47641437.254960574
0.8990576294355432	47741375.528972335
0.8992823938429022	47716833.52405052
0.8995072144413631	47507161.87899516
0.8997320912449734	47297437.8160286
0.8999570242677847	47087661.32204636
0.9001820135238516	46877832.38394061
0.9004070590272328	46718718.93843799
0.9006321607919896	46825708.62778016
0.9008573188321878	46932725.064544775
0.9010825331618959	47039768.255418524
0.9013078037951865	47146838.20709002
0.9015331307461353	47253934.92624937
0.9017585140288219	47416557.353497356
0.9019839536573292	47584000.7033828
0.9022094496457435	47751485.91410559
0.9024350020081551	47919012.99613125
0.9026606107586572	48086581.95992736
0.902886275911347	48224128.97840904
0.9031119974803249	48347217.52130699
0.9033377754796951	48470336.83634067
0.903563609923565	48593486.93120306
0.903789500826046	48716667.813589245
0.9040154482012526	48767716.7274866
0.904241452063303	48725297.84409713
0.9044675124263188	48682868.35598682
0.9046936293044254	48640428.260504484
0.9049198027117517	48597977.55499826
0.9051460326624297	48575461.98384717
0.9053723191705955	48637874.4147615
0.9055986622503881	48700302.448783495
0.9058250619159507	48762746.089814
0.9060515181814298	48825205.3417548
0.9062780310609752	48887680.20850854
0.9065046005687405	48965788.521630555
0.906731226718883	49044787.634261206
0.9069579095255627	49123806.49666991
0.907184649002944	49202845.11379422
0.907411445165195	49281903.49057289
0.9076382980264862	49230366.141086705
0.907865207600993	49124571.53582066
0.9080921739028933	49018750.48190334
0.9083191969463691	48912902.972722545
0.9085462767456058	48807029.00166441
0.9087734133147922	48878876.56045286
0.9090006066681211	49156043.22244133
0.909227856819788	49433279.17609493
0.9094551637839932	49710584.43873732
0.9096825275749393	49987959.02769528
0.9099099482068329	50193593.15891562
0.9101374256938848	50144065.41939332
0.9103649600503083	50094525.297936164
0.9105925512903209	50044972.79144866
0.9108201994281437	49995407.89683448
0.9110479044780008	49945830.6109967
0.9112756664541204	50025852.513708085
0.911503485370734	50108861.208177105
0.9117313612420768	50191890.65481974
0.9119592940823873	50274940.858824015
0.912187283905908	50358011.82537932
0.9124153307268845	50369953.158948585
0.9126434345595664	50356074.04123968
0.9128715954182063	50342191.453751355
0.9130998133170609	50328305.39561616
0.9133280882703902	50314415.865966424
0.913556420292458	50315019.35454357
0.9137848093975312	50330573.438804656
0.9140132555998806	50346131.41158681
0.9142417589137806	50361693.27386217
0.9144703193535092	50377259.026603095
0.9146989369333476	50394582.679822885
0.9149276116675811	50417200.80992449
