#wavelength	surface flux
0.6450077295303345	326939.1998853319
0.6472567915916443	338699.45422083506
0.6494921445846558	351231.4995323021
0.6517150402069092	363983.08137317986
0.6539263725280762	376227.6700049188
0.6561272740364075	389076.6361005036
0.6583186388015747	401618.73891164485
0.6605015397071838	415318.0724388327
0.6626768708229065	428026.958262174
0.6648455858230591	441805.41148721625
0.6670085787773132	454765.9503507031
0.6691668033599854	439870.2648115097
0.6713210344314575	420016.21597147663
0.6734722256660461	494350.94404046406
0.6756211519241333	513278.8141096311
0.6777685880661011	529675.085101194
0.6799154281616211	544194.6564543078
0.6820623278617859	560077.6101053965
0.6842101216316223	577290.6170780963
0.6863595843315125	593694.2717248976
0.688511312007904	610124.8668457994
0.6906660795211792	624967.7368246175
0.6928245425224304	639408.1168103782
0.6949873566627502	661448.0411434816
0.6971551775932312	680253.5163665314
0.6993286609649658	698306.4819112768
0.7015084028244019	716437.130566173
0.7036949396133423	735575.8475114268
0.7058889269828796	755905.8282768532
0.7080909013748169	775072.1007069045
0.710301399230957	794879.9276349541
0.712520956993103	815685.5798047557
0.7147500514984131	835867.2137157344
0.7169892191886902	851671.476165529
0.7192389369010925	875934.6317409462
0.7214996814727783	896740.7644410643
0.723771870136261	917627.1538608882
0.7260559797286987	937601.1978995374
0.7283523678779602	959884.9211693945
0.7306615710258484	980038.474948505
0.7329838871955872	1005065.6171983995
0.7353196740150452	1026912.8340409847
0.7376693487167358	1048295.5456619535
0.7400332689285278	1070141.5915262068
0.7424117922782898	1085638.9951160187
0.7448052167892456	1102063.3534362277
0.7472138404846191	1111476.6484488132
0.7496379613876343	1113193.3993044498
0.7520779371261597	1099972.7725737337
0.7545340061187744	1062324.7969011005
0.7570064663887024	979107.6644229747
0.7594954967498779	816999.9303089806
0.7620013952255249	514251.56647600187
0.7645244002342224	139958.41784913186
0.7670646905899048	17704.843072769247
0.7696225643157959	22782.477463380288
0.7721980810165405	310047.1440652552
0.7747915983200073	790014.7367570287
0.7774031162261963	1107205.1433378914
0.7800329327583313	1204002.3999583211
0.7826811671257019	1445356.206404773
0.7853479981422424	1564783.508837316
0.7880334854125977	1653240.312251264
0.7907378077507019	1725429.761335601
0.7934610247612	1394833.5098409876
0.7962033748626709	1526114.3280070883
0.7989648580551147	1917653.480167987
0.801745593547821	1979790.454939754
0.8045456409454346	2038184.9981311937
0.8073651194572449	2094698.9919641102
0.8102040886878967	2138016.1987209106
0.8130625486373901	2186147.328039447
0.8159406185150146	2263953.4266426386
0.8188382983207703	2320097.0031401883
0.8217556476593018	2378919.2772977464
0.8246926665306091	2443253.941898817
0.8276493549346924	2505973.5862802677
0.8306257724761963	2561556.4480733536
0.8336219191551208	2631121.0699844835
0.8366377949714661	2686091.923548153
0.8396733403205872	2753803.987195098
0.8427285552024841	2840268.403068776
0.8458034992218018	2911277.5771086835
0.8488980531692505	2983755.112558749
0.8520121574401855	3042721.2966091167
0.8551458716392517	3134131.9555794275
0.8582990765571594	3213449.115285299
0.8614717125892639	3255248.425802738
0.8646637797355652	3324275.347834634
0.8678751587867737	3419569.6056422982
0.8711057901382446	3500987.7070169603
0.8743556141853333	3584140.3230074407
0.87762451171875	3671771.029485765
0.8809124231338501	3731783.6390641266
0.8842192888259888	3837594.976034887
0.8875449895858765	3915170.13322011
0.8908893465995789	3975744.9102289476
0.894252359867096	4015786.3598947013
0.8976338505744934	4158238.538004881
0.9010337591171265	4283981.86040285
0.9044519662857056	4402128.673408022
0.9078882932662964	4491595.013484041
0.9113426208496094	4605485.859824263
0.914814829826355	4675462.191683994
0.9183048605918884	4737790.951734205
0.9218124747276306	4898887.352910714
0.925337553024292	4860931.445508853
0.9288799166679382	4469918.822676686
0.9324395060539246	4724861.496634558
0.9360161423683167	4870723.724987379
0.9396095871925354	5169513.6135384105
0.943219780921936	5168677.997626016
0.9468464851379395	5104927.727504303
0.9504896402359009	5383805.150699892
0.9541489481925964	5496507.215706677
0.9578243494033813	5636352.67518785
0.9615156054496765	5468759.1417443715
0.9652225375175476	5664158.46530326
0.9689450263977051	5719641.877652831
0.9726828336715698	6299380.793825127
0.9764357805252075	6348369.533447053
0.9802037477493286	6562362.153760095
0.983986496925354	6718358.265474497
0.9877838492393494	6883551.483429966
0.9915955662727356	7093716.922563315
0.9954215884208679	7255418.321169615
0.9992615580558777	7405923.087273144
1.0031154155731201	7526324.134963601
1.0069829225540161	7717310.849666637
1.0108637809753418	7894727.951310471
1.0147579908370972	8088889.63377639
1.018665075302124	8251414.46200666
1.022585153579712	8383820.146686471
1.0265177488327026	8498341.73497049
1.0304628610610962	8582926.560919443
1.0344202518463135	8887108.661409449
1.0383895635604858	9046982.846460637
1.0423706769943237	9212526.089557631
1.0463634729385376	9374692.46614302
1.0503677129745483	9506633.320475081
1.0543830394744873	9698682.866505604
1.058409333229065	9870473.810251456
1.0624464750289917	10030041.493065463
1.0664942264556885	10195955.312549587
1.0705522298812866	10337131.657758823
1.0746204853057861	10535356.38412604
1.0786986351013184	10695396.199860442
1.0827864408493042	10877503.13690696
1.086883783340454	11027144.395534338
1.0909905433654785	11076618.786490912
1.0951062440872192	11170433.511287645
1.0992310047149658	10962186.472807229
1.10336434841156	9998304.286202023
1.1075061559677124	10289315.51807491
1.1116561889648438	10256378.388672741
1.115814208984375	9775229.645355042
1.1199802160263062	9977537.105372444
1.124153733253479	10525694.359694062
1.1283347606658936	10943725.666190226
1.1325229406356812	9760265.439281266
1.1367181539535522	10883423.660230046
1.1409201622009277	11629997.389899157
1.145128846168518	12199835.838286908
1.1493438482284546	11925515.998480173
1.1535650491714478	9528596.734025236
1.1577922105789185	10723832.983965026
1.1620250940322876	10971500.818067787
1.1662636995315552	12544744.80356176
1.170507550239563	12207834.450531822
1.174756646156311	13192602.58454517
1.1790107488632202	14034333.263281316
1.1832695007324219	14560669.384332461
1.1875330209732056	14736440.50548337
1.191800832748413	15134743.852250693
1.1960728168487549	15530622.767228529
1.2003488540649414	15840761.480891615
1.2046287059783936	15915911.559813032
1.2089121341705322	16216524.839535886
1.2131990194320679	16406096.322210446
1.2174891233444214	16745426.007332029
1.2217823266983032	16971975.804215506
1.2260783910751343	17219278.258913774
1.230377197265625	17423256.460656248
1.2346785068511963	17618586.234757725
1.238982081413269	17851706.198473413
1.2432878017425537	18056692.81496907
1.2475954294204712	18259966.38091939
1.2519049644470215	18315004.666218415
1.256216049194336	18684337.79573993
1.2605286836624146	18849132.683295786
1.2648425102233887	18998778.84208835
1.2691574096679688	19182423.24125438
1.2734732627868652	19329679.719413053
1.2777899503707886	19556195.578797247
1.2821072340011597	19646167.44730729
1.2864248752593994	19831383.737416267
1.2907428741455078	19772169.539234426
1.2950609922409058	19981878.47512516
1.2993791103363037	20171795.54220149
1.303696870803833	20120172.068534605
1.3080145120620728	20291265.275381293
1.3123314380645752	20431718.737396203
1.3166478872299194	20908802.203258473
1.3209635019302368	20830742.053505134
1.3252781629562378	20123888.457013432
1.3295916318893433	19169841.070893563
1.3339040279388428	14802734.451373652
1.3382149934768677	8329087.478074547
1.3425244092941284	5594375.554073345
1.3468321561813354	10007709.66590432
1.3511382341384888	7046709.971805503
1.3554422855377197	4698865.492232871
1.3597444295883179	5522329.90216651
1.3640443086624146	6451557.60173917
1.3683418035507202	6665099.196723958
1.3726370334625244	10328424.390439946
1.3769296407699585	14341238.230571551
1.381219506263733	8606572.334541285
1.3855066299438477	4092237.6253538057
1.3897908926010132	4808501.709525898
1.3940720558166504	5676456.973695238
1.3983501195907593	4668766.985560178
1.4026249647140503	8361200.327198257
1.4068963527679443	12066494.60655993
1.4111642837524414	5640566.318505844
1.4154287576675415	6974082.4572599055
1.419689416885376	8049703.6027115015
1.4239463806152344	5174028.630077979
1.4281994104385376	10273865.377457814
1.4324485063552856	7087935.419003823
1.436693549156189	8754209.710348794
1.440934419631958	9205925.496368546
1.4451709985733032	11827801.592572711
1.449403166770935	15941010.779871184
1.453631043434143	16469523.674226757
1.4578542709350586	17432500.096813314
1.4620729684829712	17607127.345865794
1.4662868976593018	18767730.907214697
1.4704961776733398	17052127.213769846
1.4747005701065063	17617089.848319262
1.4788999557495117	17871864.441508345
1.4830944538116455	20111631.06252201
1.4872838258743286	21402975.4822193
1.491468071937561	21509309.598094754
1.4956470727920532	20801738.629974596
1.4998208284378052	22382018.167658746
1.5039892196655273	23688108.15690977
1.5081522464752197	23074899.62768027
1.5123097896575928	23560733.539615504
1.5164618492126465	24549740.458039418
1.5206083059310913	26045250.704692192
1.5247491598129272	27014818.666455008
1.5288842916488647	26374042.020844955
1.5330137014389038	27079204.472496927
1.5371372699737549	27688581.999004908
1.541254997253418	27632079.51699393
1.545366883277893	28132761.520809736
1.5494728088378906	28488188.35881797
1.5535727739334106	28925682.38434968
1.5576666593551636	28529733.776289746
1.561754584312439	28802190.094775423
1.5658363103866577	29657903.90393198
1.5699119567871094	29967495.954978134
1.5739814043045044	29696225.622781888
1.5780447721481323	29214022.544623483
1.582101821899414	29820632.99483563
1.5861525535583496	30815149.41597456
1.5901970863342285	30838761.47826517
1.5942351818084717	30849562.49210719
1.5982669591903687	30665716.548995502
1.6022924184799194	30844325.89489388
1.606311559677124	31121917.958383765
1.6103241443634033	31175865.325472612
1.6143304109573364	31090006.497894272
1.6183301210403442	31131813.431643303
1.6223233938217163	31015947.484895363
1.6263102293014526	31157583.490557544
1.6302905082702637	30748588.75511262
1.634264349937439	31124013.9833633
1.638231635093689	32331765.84687678
1.6421923637390137	32517378.724853233
1.646146535873413	32222923.343638305
1.6500942707061768	31694493.146703135
1.6540353298187256	32418572.6108017
1.6579699516296387	32613996.14085798
1.661897897720337	32359287.395985704
1.6658192873001099	30301969.584515665
1.6697341203689575	30143385.546168704
1.6736423969268799	32571661.139901016
1.677544116973877	32699488.5554532
1.6814392805099487	32573488.377452932
1.6853278875350952	32694821.542509492
1.6892099380493164	32376631.99524861
1.6930854320526123	31554786.07545791
1.696954369544983	30293631.122421082
1.7008168697357178	31119607.41087315
1.7046726942062378	31005967.424949773
1.708522081375122	31700737.216213644
1.712364912033081	31589768.7549121
1.7162011861801147	32053945.520723592
1.7200311422348022	32668840.857086234
1.723854422569275	32466336.765659276
1.7276713848114014	32163318.316728517
1.731481909751892	31310826.154829375
1.7352858781814575	30404294.99914612
1.7390835285186768	30014590.983810354
1.7428747415542603	29433524.73175365
1.7466596364974976	27924012.913714055
1.7504380941390991	26836220.70002166
1.7542102336883545	24045799.67442748
1.7579760551452637	28206786.575220156
1.7617355585098267	30435256.454550013
1.7654887437820435	28118335.51169189
1.7692357301712036	24287309.520342715
1.7729763984680176	20411352.74327223
1.776710867881775	14116016.128987221
1.7804391384124756	13606111.746213496
1.7841613292694092	15747932.443673527
1.7878772020339966	12002269.760509774
1.7915871143341064	14195410.604063828
1.7952908277511597	16014499.790287731
1.7989884614944458	15866617.23690661
1.8026801347732544	10271784.679714024
1.806365728378296	5628505.519341636
1.8100452423095703	7138108.936990196
1.8137187957763672	11070066.483921552
1.817386507987976	5357902.907051012
1.8210482597351074	10565349.406180335
1.8247040510177612	11833486.19723287
1.828354001045227	5125943.366105787
1.8319982290267944	7019104.3677213155
1.8356364965438843	10289606.619321441
1.8392690420150757	14079477.587879112
1.8428958654403687	12641821.451393455
1.8465168476104736	12618228.629978353
1.8501322269439697	13117918.94568684
1.8537418842315674	7579441.095236461
1.8573459386825562	6976269.989738051
1.860944390296936	7515883.74979261
1.864537239074707	5033525.225375099
1.8681244850158691	7316572.412690116
1.871706247329712	11228272.835033337
1.8752825260162354	13702506.4002415
1.8788533210754395	16541128.556618044
1.8824186325073242	18980538.9365752
1.8859784603118896	16255918.272926962
1.8895330429077148	15571928.009902356
1.8930821418762207	19766296.31856898
1.8966259956359863	18696063.619131908
1.9001644849777222	9758958.56083129
1.9036977291107178	6318651.64218972
1.9072256088256836	9769075.367011184
1.9107483625411987	8655576.289530443
1.9142658710479736	4371583.680125924
1.9177782535552979	5298086.564293044
1.9212853908538818	8048048.881385191
1.9247875213623047	6606005.671891289
1.9282845258712769	7229141.952002026
1.9317764043807983	9841528.050096527
1.9352631568908691	10223909.767395386
1.9387450218200684	8533565.077758644
1.942221760749817	9728494.567410165
1.9456936120986938	9998169.480729077
1.9491604566574097	10891799.960245805
1.952622413635254	9876945.616712252
1.956079363822937	7675421.554066105
1.959531545639038	9441240.811035143
1.962978720664978	9627781.690727971
1.966421127319336	11573031.178584032
1.9698586463928223	15572046.684324581
1.9732913970947266	15805552.511006169
1.9767193794250488	16311734.019826937
1.9801424741744995	19326912.018494274
1.9835609197616577	21203112.005719077
1.9869745969772339	21545256.373249914
1.990383505821228	17828383.54122966
1.9937876462936401	18413311.688028295
1.9971871376037598	18228350.171122007
2.000581979751587	19106322.75327329
2.003972291946411	23404099.65304955
2.007357597351074	24304671.01380212
2.0107386112213135	26814642.01719887
2.0141148567199707	27263509.423328925
2.017486572265625	24888582.445365675
2.0208535194396973	26240635.77490191
2.0242159366607666	29132053.462926127
2.027573823928833	29971249.795884136
2.0309269428253174	30813070.067403004
2.034275770187378	31990602.25167548
2.0376198291778564	32619178.049133223
2.040959596633911	33230826.766317114
2.044294595718384	34171147.7088978
2.0476250648498535	35274303.61862134
2.0509510040283203	35286972.652393535
2.054272413253784	34516126.125589155
2.057589530944824	34985546.89989952
2.0609018802642822	35746696.83618177
2.0642096996307373	36295561.553164445
2.0675129890441895	36644646.15793999
2.0708119869232178	36780241.9188066
2.074106216430664	36577996.66025661
2.0773961544036865	36513593.60664439
2.080681324005127	36797840.79673636
2.0839622020721436	37022614.33792656
2.087238311767578	37197973.25151174
2.090510129928589	37155241.93212925
2.0937774181365967	36935047.26221055
2.0970399379730225	37066551.60405979
2.1002981662750244	37088493.699715175
2.1035518646240234	36920413.6257016
2.1068007946014404	36672792.19466041
2.1100454330444336	37022892.56651603
2.1132853031158447	37429003.23876696
2.116520881652832	37223674.3945138
2.1197516918182373	37152245.73629444
2.1229779720306396	37327981.29885666
2.12619948387146	37462787.157623045
2.1294167041778564	37474210.4290491
2.132629156112671	37547935.507643014
2.1358368396759033	37396731.791411206
2.139039993286133	37081589.20914788
2.1422386169433594	36878790.88321495
2.145432472229004	36715706.6042781
2.1486217975616455	36594387.65676251
2.151806354522705	36320095.413455054
2.1549863815307617	36375977.64932013
2.1581614017486572	36484805.25250857
2.16133189201355	36217328.412888534
2.1644976139068604	36120880.75519461
2.167658567428589	36068842.612256564
2.1708147525787354	36034147.6979656
2.173966407775879	35874305.08803409
2.1771130561828613	35728704.954005
2.1802549362182617	35637143.06333171
2.183391809463501	35414669.152208544
2.1865241527557373	35036919.74210173
2.1896514892578125	34498569.545927666
2.1927738189697266	33140644.854106836
2.1958916187286377	30872241.08444902
2.1990041732788086	28896980.48087282
2.2021119594573975	27937262.74980332
2.2052149772644043	27620619.601147626
2.208312749862671	27976559.435912974
2.2114057540893555	28921085.781777993
2.214493751525879	29573844.698114738
2.217576742172241	29323881.82450501
2.2206547260284424	29126052.57987181
2.2237277030944824	28919651.974523116
2.2267956733703613	27700315.44324848
2.2298583984375	26211720.375786506
2.2329163551330566	25485469.635080047
2.235969066619873	25388477.62962084
2.2390167713165283	25004259.109910205
2.2420592308044434	23620612.546391834
2.2450966835021973	22264076.742046732
2.248128890991211	22690102.590795532
2.2511560916900635	24036003.29413003
2.254178285598755	24692099.371782307
2.257194995880127	25085042.0197171
2.260206699371338	24897647.120437205
2.2632133960723877	23447292.88731596
2.266214609146118	21860882.455716453
2.2692108154296875	21496747.465509865
2.2722020149230957	22428310.431836165
2.2751877307891846	23298990.963244915
2.278168201446533	23015481.433068097
2.2811436653137207	22120973.20951009
2.284113883972168	21483505.646083333
2.287078857421875	20911473.11048534
2.290038824081421	19998488.443049558
2.2929933071136475	18728124.991598032
2.295942783355713	17192350.897193797
2.298887014389038	15698476.992751477
2.301826238632202	14676646.319116257
2.304760217666626	14284683.358366707
2.3076889514923096	14482582.004991809
2.310612440109253	15149047.789590992
2.3135311603546143	15136951.769837989
2.3164443969726562	13167135.495687714
2.319352865219116	11135826.21798124
2.322256088256836	10670754.352362905
2.3251543045043945	10594005.922003545
2.328047275543213	10554989.080751453
2.330935478210449	10916939.3557133
2.3338186740875244	11373497.69609026
2.3366971015930176	11826598.122773089
2.3395702838897705	12247013.971133707
2.3424389362335205	12556158.183601078
2.3453025817871094	12816973.740159297
2.348161458969116	13071576.121249095
2.351015567779541	13503672.073171295
2.353865146636963	14146435.812359476
2.3567099571228027	14714803.851800289
2.3595502376556396	15368624.771315357
2.3623859882354736	16440760.938708631
2.3652172088623047	16083260.429747736
2.368043899536133	12865935.578041188
2.370866537094116	10913563.762033679
2.3736846446990967	11378130.337000972
2.3764986991882324	11322012.14580225
2.3793084621429443	10707637.826812318
2.3821144104003906	10999283.857750224
2.384916305541992	12775020.150140923
2.387714147567749	14997340.43161004
2.3905084133148193	16136547.37136992
2.393299102783203	15929681.484314019
2.3960859775543213	14597505.580315877
2.398869514465332	13533967.096363649
2.4016497135162354	12863291.140712019
2.4044265747070312	12844395.421970176
2.407200336456299	13604262.477911131
2.409970998764038	14686026.315618984
2.4127390384674072	15393111.037062436
2.415503978729248	15867444.128222885
2.418266534805298	16891483.269471623
2.4210267066955566	17324353.31727251
2.4237842559814453	16609009.940189457
2.426539897918701	15805052.905650834
2.429293394088745	15681075.80875053
2.4320452213287354	16193943.107883187
2.4347951412200928	16661249.732140243
2.4375438690185547	16636321.871301318
2.440291166305542	15954286.088564105
2.443037271499634	14781294.765845956
2.445782423019409	13423652.871221067
2.4485268592834473	12342619.945419537
2.451270818710327	12283556.765370429
2.454014539718628	13746837.603039118
2.4567582607269287	15389618.481640818
2.4595019817352295	14712036.279421767
2.4622461795806885	14872341.65465966
2.4649908542633057	14124107.02407499
2.4677364826202393	11950880.189154295
2.4704833030700684	9060776.554852795
2.473231554031372	6784644.715034283
2.4759814739227295	5384991.02732684
2.4787333011627197	5246641.229562239
