#wavelength	surface flux
0.8	19003.576386756027
0.8002000000000001	19054.96900987037
0.8004000500000003	19114.27373484643
0.8006001500125003	19173.673076243736
0.8008003000500035	19233.087267476396
0.8010005001250161	19292.51631225689
0.8012007502500472	19351.960214298495
0.8014010504376099	19405.021685771826
0.8016014007002193	19455.953525390225
0.8018018010503944	19506.89809796853
0.8020022515006572	19557.85540669
0.8022027520635323	19608.825454738606
0.8024033027515483	19660.121385973795
0.8026039035772362	19711.73700684884
0.8028045545531306	19763.365531629108
0.8030052556917691	19815.006963540593
0.803206007005692	19866.661305810012
0.8034068085074435	19920.123083992377
0.8036076602095705	19978.628536931614
0.8038085621246229	20037.14861623404
0.8040095142651542	20095.683325556325
0.8042105166437206	20154.232668555924
0.8044115692728815	20212.725453590323
0.8046126721651998	20268.170626490784
0.8048138253332411	20323.62966068443
0.8050150287895745	20379.102559636674
0.805216282546772	20434.589326813642
0.8054175866174087	20490.089965682375
0.8056189410140631	20544.791487008053
0.8058203457493168	20599.276554049764
0.8060218008357541	20653.775242358166
0.8062233062859632	20708.28755533867
0.8064248621125346	20762.813496397383
0.806626468328063	20820.809049059946
0.8068281249451449	20881.78736944798
0.8070298319763813	20942.78093441618
0.8072315894343755	21003.78974777558
0.8074333973317341	21064.81381333834
0.8076352556810671	21120.51458758321
0.8078371644949874	21163.378512149284
0.8080391237861113	21206.25315269651
0.8082411335670578	21249.138511903846
0.8084431938504498	21292.03459245103
0.8086453046489125	21334.497156706468
0.8088474659750746	21368.699377891004
0.8090496778415686	21402.91014963088
0.809251940261029	21437.12947406367
0.8094542532460944	21471.357353327592
0.8096566168094059	21505.593789561295
0.8098590309636085	21546.086096258194
0.8100614957213493	21588.050760265218
0.8102640110952797	21630.02591543825
0.8104665770980536	21672.011564400094
0.8106691937423283	21714.007709774192
0.8108718610407639	21758.93378448447
0.8110745790060241	21806.10342583348
0.8112773476507757	21853.28485959287
0.8114801669876885	21900.478088710686
0.8116830370294355	21947.68311613575
0.8118859577886929	21991.40797382333
0.8120889292781401	22027.890786273667
0.8122919515104597	22064.382719427114
0.8124950244983374	22100.883775563852
0.8126981482544621	22137.393956964617
0.8129013227915257	22175.08313112572
0.8131045481222237	22226.17686314649
0.8133078242592543	22277.28336860027
0.8135111512153191	22328.4026506804
0.813714529003123	22379.53471258106
0.8139179576353739	22430.6795574972
0.8141214371247829	22552.89163537798
0.8143249674840641	22688.912918626647
0.814528548725935	22824.96820719605
0.8147321808631167	22961.057509587776
0.8149358639083326	23097.180834305058
0.8151395978743097	23196.932294739385
0.8153433827737784	23272.111342840235
0.8155472186194719	23347.30918570308
0.8157511054241268	23422.525828026628
0.815955043200483	23497.76127451081
0.8161590319612831	23567.4921575131
0.8163630717192736	23627.119566688085
0.8165671624872033	23686.7618827153
0.8167713042778252	23746.419109321578
0.8169754971038948	23806.091250234538
0.8171797409781707	23863.310899786884
0.8173840359134155	23900.84676086571
0.8175883819223938	23938.392005909758
0.8177927790178745	23975.94663726509
0.8179972272126291	24013.51065727827
0.8182017265194322	24051.08406829642
0.8184062769510622	24144.864324588085
0.8186108785203001	24247.31598203045
0.8188155312399301	24349.793252387037
0.8190202351227402	24452.296142061332
0.819224990181521	24554.824657457975
0.8194297964290664	24629.045625020182
0.8196346538781738	24686.207373858968
0.8198395625416434	24743.38341313494
0.8200445224322789	24800.573746420756
0.820249533562887	24857.778377289877
0.8204545959462778	24919.845365043595
0.8206597095952644	24989.730684356316
0.8208648745226633	25059.633474998922
0.8210700907412941	25129.55374133918
0.8212753582639793	25199.49148774595
0.8214806771035456	25258.356461939886
0.8216860472728215	25248.906659654418
0.8218914687846397	25239.45449491838
0.822096941651836	25229.99996714115
0.822302465887249	25220.543075731985
0.8225080415037209	25211.083820099957
0.8227136685140968	25290.50877175053
0.8229193469312254	25380.044063292327
0.8231250767679583	25469.601738657042
0.8233308580371503	25559.181803440548
0.8235366907516598	25648.78426324031
0.8237425749243477	25747.774323709265
0.8239485105680789	25851.752852356974
0.824154497695721	25955.757375636782
0.824360536320145	26059.787900047424
0.8245666264542252	26163.84443208917
0.8247727681108388	26258.249218599933
0.8249789613028664	26338.817232990637
0.8251852060431922	26419.40538938501
0.825391502344703	26500.013692818444
0.8255978502202894	26580.64214832781
0.8258042496828445	26660.231328083595
0.8260107007452654	26734.695194804513
0.8262172034204517	26809.177677492033
0.8264237577213068	26883.67878080025
0.8266303636607373	26958.19850938432
0.8268370212516525	27032.736867900505
0.8270437305069654	27069.27193734009
0.8272504914395923	27102.844974322594
0.8274573040624523	27136.42640456435
0.8276641683884679	27170.016230163637
0.8278710844305652	27203.614453219365
0.8280780522016729	27268.24693008545
0.8282850717147234	27347.077425595788
0.8284921429826521	27425.92762872992
0.8286992660183978	27504.797544414898
0.8289064408349024	27583.687177578744
0.8291136674451112	27648.00792560301
0.8293209458619727	27693.949250722082
0.8295282760984382	27739.902061172368
0.829735658167463	27785.866359825322
0.8299430920820048	27831.842149552882
0.8301505778550254	27877.24452059018
0.8303581154994891	27920.32368459843
0.8305657050283641	27963.41361839772
0.8307733464546212	28006.514324680433
0.8309810397912352	28049.625806139782
0.8311887850511829	28092.748065469415
0.8313965822474458	28221.927132295365
0.8316044313930077	28355.132345159713
0.8318123325008561	28488.370859327402
0.8320202855839813	28621.64268312357
0.8322282906553774	28754.947824875697
0.8324363477280413	28839.672914501996
0.8326444568149735	28904.847610753743
0.8328526179291771	28970.03860067948
0.8330608310836596	29035.245888352794
0.8332690962914304	29100.46947784794
0.8334774135655034	29160.971306880707
0.833685782918895	29216.19568565219
0.8338942043646247	29271.433870518333
0.834102677915716	29326.68586493073
0.834311203585195	29381.951672341685
0.8345197813860912	29452.35811365356
0.8347284113314379	29573.70043870958
0.8349370934342709	29695.073099346795
0.8351458277076294	29816.476103149023
0.8353546141645565	29937.909457702404
0.8355634528180977	30059.373170594372
0.8357723436813022	30032.586512167774
0.8359812867672226	30003.962267792736
0.8361902820889144	29975.33086735662
0.8363993296594368	29946.69230907039
0.8366084294918518	29918.046591144575
0.8368175815992247	29998.719672044273
0.8370267859946247	30117.065904829695
0.8372360426911234	30235.44172417328
0.8374453517017962	30353.847137471686
0.8376547130397217	30472.282152123404
0.8378641267179816	30570.584016671404
0.8380735927496613	30648.903758572676
0.8382831111478488	30727.24308040938
0.8384926819256358	30805.601987076498
0.8387023050961173	30883.98048347035
0.8389119806723914	30960.672715983685
0.8391217086675596	31032.583278316564
0.8393314890947265	31104.51181828997
0.8395413219670003	31176.45834039838
0.8397512072974922	31248.42284913737
0.8399611450993165	31321.632583475348
0.8401711353855914	31455.80464553142
0.8403811781694378	31590.010250602976
0.8405912734639802	31724.24940707583
0.8408014212823464	31858.52212333786
0.8410116216376671	31992.828407778947
0.8412218745430766	32112.642871499775
0.8414321800117124	32228.26095874041
0.8416425380567154	32343.907950502915
0.8418529486912297	32459.583854013385
0.8420634119284025	32575.288676499636
0.8422739277813847	32665.685128394533
0.8424844962633302	32733.781037742647
0.842695117387396	32801.89397106801
0.8429057911667428	32870.02393262671
0.8431165176145345	32938.170926675826
0.8433272967439382	33011.20282570929
0.8435381285681244	33096.127063205306
0.8437490131002665	33181.07253176067
0.8439599503535415	33266.03923668313
0.84417094034113	33351.027183281876
0.8443819830762154	33436.36385614508
0.8445930785719846	33528.318961224
0.8448042268416277	33620.297055079136
0.8450154278983382	33712.29814345773
0.8452266817553128	33804.3222321084
0.8454379884257517	33896.369326781256
0.8456493479228583	33990.630131
0.845860760259839	34085.442046772056
0.846072225449904	34180.27766552306
0.8462837435062666	34275.13699317877
0.8464953144421433	34370.02003566645
0.8467069382707537	34457.69595731641
0.8469186150053215	34539.757578993136
0.847130344659073	34621.8397160753
0.8473421272452377	34703.94237369165
0.8475539627770492	34786.06555697249
0.8477658512677435	34872.38586383891
0.8479777927305605	34967.59619558871
0.8481897871787432	35062.830329921424
0.848401834625538	35158.088272787776
0.8486139350841944	35253.370030139784
0.8488260885679657	35348.28456350749
0.8490382950901076	35438.456132804014
0.8492505546638802	35528.65024499291
0.8494628673025462	35618.86690570982
0.8496752330193721	35709.10612059205
0.8498876518276269	35799.36789527787
0.8501001237405839	35881.739374791934
0.8503126487715191	35962.55190122478
0.850525226933712	36043.384630789194
0.8507378582404455	36124.237568536
0.8509505427050057	36205.11071951729
0.8511632803406821	36292.49324795615
0.8513760711607672	36384.341507784404
0.8515889151785576	36476.21272967776
0.8518018124073523	36568.106919376514
0.8520147628604541	36660.024082622636
0.8522277665511693	36754.43732748185
0.8524408234928071	36853.44787945601
0.8526539336986805	36952.483184068195
0.8528670971821053	37051.54324750654
0.8530803139564007	37150.62807596062
0.8532935840348901	37249.62341217263
0.8535069074308987	37347.67848399992
0.8537202841577566	37445.758069595264
0.8539337142287962	37543.86217508701
0.8541471976573534	37641.99080660506
0.8543607344567677	37740.14397028102
0.8545743246403821	37839.04912177287
0.8547879682215422	37938.09452685146
0.8550016652135977	38037.16469328131
0.8552154156299011	38136.259627252766
0.8554292194838088	38235.37933495778
0.8556430767886797	38330.652110448005
0.855856987557877	38423.597902777765
0.8560709518047664	38516.56693155555
0.8562849695427177	38609.559202590564
0.8564990407851035	38702.57472169336
0.8567131655452999	38796.53399415707
0.8569273438366862	38892.02502555848
0.8571415756726455	38987.539929717765
0.8573558610665638	39083.07871260312
0.8575702000318304	39178.6413801841
0.8577845925818384	39274.40898721637
0.857999038729984	39371.3314335565
0.8582135384896665	39468.278110508196
0.858428091874289	39565.24902412913
0.8586426988972576	39662.24418047845
0.8588573595719821	39759.26358561688
0.8590720739118751	39855.79878398137
0.8592868419303532	39952.29816700058
0.8595016636408359	40048.82167486555
0.8597165390567462	40145.36931360745
0.8599314681915105	40241.94108925906
0.8601464510585584	40338.16042941544
0.860361487671323	40434.20393920013
0.8605765780432408	40530.27145986224
0.8607917221877518	40626.3629974046
0.8610069201182988	40722.47855783132
0.8612221718483286	40815.39092161747
0.8614374773912907	40903.67403115119
0.8616528367606385	40991.97921146227
0.8618682499698288	41080.306468068484
0.8620837170323213	41168.65580648883
0.8622992379615795	41259.91844659286
0.8625148127710699	41365.51141449261
0.8627304414742627	41471.13078063434
0.8629461240846313	41576.77655161762
0.8631618606156526	41682.44873404366
0.8633776510808066	41788.147334515284
0.8635934954935769	41885.95995895651
0.8638093938674504	41983.14844275939
0.8640253462159173	42080.36122368321
0.8642413525524714	42177.59830780226
0.8644574128906095	42274.85970119233
0.8646735272438323	42377.725970665655
0.8648896956256433	42483.21307207805
0.8651059180495498	42588.726545265796
0.8653221945290621	42694.266396821746
0.8655385250776946	42799.832633340724
0.8657549097089641	42908.94459115947
0.8659713484363913	43022.58934267369
0.8661878412735006	43136.26250537583
0.866404388233819	43249.96408636864
0.8666209893308775	43363.69409275665
0.8668376445782103	43474.26868073252
0.8670543539893549	43571.876000524695
0.8672711175778525	43669.507722146875
0.8674879353572469	43767.163851699355
0.8677048073410862	43864.844395284264
0.8679217335429217	43962.54935900513
0.8681387139763074	44051.796744546264
0.8683557486548015	44140.645077564004
0.8685728375919655	44229.51562266511
0.8687899808013633	44318.40838540229
0.8690071782965637	44407.32337133028
0.869224430091138	44527.4465076139
0.8694417361986609	44660.289186760805
0.8696590966327107	44793.16507657747
0.869876511406869	44926.07418536659
0.8700939805347206	45059.01652143285
0.8703115040298544	45187.47325654121
0.870529081905862	45310.795768415264
0.8707467141763385	45434.14911091724
0.8709644008548827	45557.533291754844
0.8711821419550964	45680.94831863757
0.8713999374905854	45801.43045262832
0.871617787474958	45911.71378916229
0.8718356919218269	46022.0246965305
0.8720536508448075	46132.36318162555
0.8722716642575187	46242.729251341814
0.8724897321735832	46353.12291257555
0.8727078546066265	46457.31743542175
0.8729260315702784	46561.44327780593
0.873144263078171	46665.59515165059
0.8733625491439405	46769.77306346372
0.8735808897812266	46873.97701975484
0.8737992850036719	46963.02659676156
0.874017734824923	47046.72177736812
0.8742362392586293	47130.43788176979
0.874454798318444	47214.17491519755
0.8746734120180236	47297.932882883666
0.8748920803710283	47385.60530403233
0.875110803391121	47477.21225382644
0.8753295810919689	47568.842105358046
0.875548413487242	47660.49486435254
0.8757673005906139	47752.17053653678
0.8759862424157616	47853.89936889953
0.8762052389763657	47984.67660991195
0.8764242902861098	48115.48654523452
0.8766433963586814	48246.329183040965
0.8768625572077712	48377.2045315069
0.8770817728470732	48507.773348262584
0.8773010432902849	48611.886980494506
0.8775203685511077	48716.02664113464
0.8777397486432454	48820.1923366898
0.8779591835804065	48924.38407366897
0.8781786733763015	49028.60185858225
0.8783982180446457	49119.84760419394
0.878617817599157	49207.24947130506
0.8788374720535569	49294.673188882916
0.8790571814215703	49382.11876239014
0.8792769457169257	49469.586197290744
0.879496764953355	49527.32339278306
0.8797166391445934	49558.3259248867
0.8799365683043796	49589.33620762337
0.8801565524464557	49620.35424293072
0.8803765915845676	49651.38003274693
0.8805966857324639	49733.73740835565
0.880816834903897	49945.02544636919
0.881037039112623	50156.366306392316
0.8812572983724012	50367.760001630435
0.8814776126969944	50579.20654529245
0.8816979821001687	50785.563021688
0.8819184065956938	50870.905675190384
0.8821388861973429	50956.26966435622
0.8823594209188923	51041.654994519275
0.882580010774122	51127.061671014824
0.8828006557768155	51212.48969917955
0.8830213559407598	51308.44495116962
0.8832421112797452	51407.06652411962
0.8834629218075651	51505.7127524628
0.8836837875380171	51604.38364236309
0.8839047084849018	51703.07919998588
0.884125684662023	51803.267106819585
0.8843467160831886	51904.656214956565
0.8845678027622095	52006.07067037057
0.8847889447129001	52107.51047939846
0.8850101419490785	52208.97564837858
0.8852313944845657	52317.650952493066
0.885452702333187	52442.080003212526
0.8856740655087704	52566.54016119465
0.8858954840251476	52691.03143421624
0.8861169578961539	52815.55383005602
0.886338487135628	52935.35767698444
0.886560071757412	52991.98555733619
0.8867817117753515	53048.62759465804
0.8870034072032955	53105.283792489245
0.8872251580550963	53161.954154369836
0.8874469643446101	53218.63868384094
0.8876688260856963	53362.77624443789
0.8878907432922178	53525.04643209513
0.8881127159780409	53687.35718729918
0.8883347441570356	53849.70852019223
0.8885568278430749	54012.10044091833
0.8887789670500358	54165.09310738003
0.8890011617917983	54311.42763961681
0.8892234120822464	54457.79875548673
0.8894457179352669	54604.20646413548
0.8896680793647509	54750.65077471152
0.8898904963845921	54873.100561957304
0.8901129690086883	54949.72892463089
0.8903354972509405	55026.376444395115
0.8905580811252535	55103.043126039345
0.8907807206455347	55179.72897435388
0.8910034158256963	55253.32210093513
0.8912261666796527	55299.1227487511
0.8914489732213227	55344.934846729026
0.8916718354646282	55390.7583977315
0.8918947534234944	55436.59340462168
0.8921177271118502	55482.439870263544
0.8923407565436284	55444.98931226338
0.8925638417327644	55393.9395124137
0.8927869826931977	55342.876950114034
0.8930101794388711	55291.80162217381
0.8932334319837308	55240.713525401596
0.8934567403417267	55202.2225370125
0.8936801045268123	55171.55748217682
0.8939035245529441	55140.88476107744
0.8941270004340824	55110.20437179778
0.894350532184191	55079.516312420805
0.8945741198172371	55231.23568121548
0.8947977633471915	55685.50666435988
0.8950214627880284	56139.89121525003
0.8952452181537254	56594.38936227764
0.8954690294582639	57049.00113384228
0.8956928967156286	57456.53774511403
0.8959168199398075	57557.93765263176
0.8961407991447926	57659.362910126394
0.8963648343445789	57760.8135239354
0.896588925553165	57862.2895003978
0.8968130727845534	57963.79084585433
0.8970372760527496	58044.22762382209
0.8972615353717629	58122.0457344244
0.8974858507556059	58199.88329955436
0.8977102222182949	58277.740324075596
0.8979346497738496	58355.616812853
0.8981591334362931	58638.60353950164
0.8983836732196523	59033.82033184986
0.8986082691379572	59429.13592839592
0.8988329212052417	59824.5503538411
0.8990576294355432	60220.06363289299
0.8992823938429022	60521.98710818344
0.8995072144413631	60684.68290009597
0.8997320912449734	60847.41936595641
0.8999570242677847	61010.19651593328
0.9001820135238516	61173.01436019766
0.9004070590272328	61326.63542364217
0.9006321607919896	61431.8688430188
0.9008573188321878	61537.12857075038
0.9010825331618959	61642.41461341384
0.9013078037951865	61747.72697758799
0.9015331307461353	61853.065669853124
0.9017585140288219	61996.47608980393
0.9019839536573292	62143.199310673444
0.9022094496457435	62289.95921234807
0.9024350020081551	62436.75580399828
0.9026606107586572	62583.589094796356
0.902886275911347	62805.53832334326
0.9031119974803249	63063.73645377854
0.9033377754796951	63321.99913374644
0.903563609923565	63580.326379384205
0.903789500826046	63838.71820683356
0.9040154482012526	64054.19559885405
0.904241452063303	64214.05127517304
0.9044675124263188	64373.946915411085
0.9046936293044254	64533.88252955916
0.9049198027117517	64693.85812761085
0.9051460326624297	64848.59317828059
0.9053723191705955	64980.881139492965
0.9055986622503881	65113.20217269552
0.9058250619159507	65245.55628615638
0.9060515181814298	65377.94348814569
0.9062780310609752	65510.363786935406
0.9065046005687405	65445.26820247501
0.906731226718883	65369.13567011688
0.9069579095255627	65292.98410462576
0.907184649002944	65216.813501243254
0.907411445165195	65140.62385520983
0.9076382980264862	65370.73274456535
0.907865207600993	65728.11228595351
0.9080921739028933	66085.58117222693
0.9083191969463691	66443.13942572183
0.9085462767456058	66800.78706878031
0.9087734133147922	67062.53328188839
0.9090006066681211	67213.47431937155
0.909227856819788	67364.45309211388
0.9094551637839932	67515.4696095496
0.9096825275749393	67666.52388111464
0.9099099482068329	67827.30653525857
0.9101374256938848	68022.57001306355
0.9103649600503083	68217.8823067379
0.9105925512903209	68413.24342848563
0.9108201994281437	68608.653390514
0.9110479044780008	68804.11220503265
0.9112756664541204	68999.67998207353
0.911503485370734	69195.29802668712
0.9117313612420768	69390.96497581185
0.9119592940823873	69586.68084167379
0.912187283905908	69782.44563650228
0.9124153307268845	69793.26888079035
0.9126434345595664	69736.95409537274
0.9128715954182063	69680.62523125885
0.9130998133170609	69624.28228492888
0.9133280882703902	69567.92525286233
0.913556420292458	69660.30229596572
0.9137848093975312	69906.10861163014
0.9140132555998806	70151.97637887343
0.9142417589137806	70397.90561305855
0.9144703193535092	70643.89632955239
0.9146989369333476	70858.76848847854
