#wavelength	surface flux
0.676892	167883.42256554117
0.678297	172444.40690330736
0.679702	176889.97025393488
0.681109	181318.56039072433
0.682517	185818.75414957732
0.683926	190320.41155482846
0.685337	194771.98207097242
0.686749	199266.4578295254
0.688164	203746.33947341226
0.689581	207973.22308914957
0.691	210713.99507837358
0.692422	211639.70232509356
0.693847	218054.11191097222
0.695274	225513.32095893097
0.696705	231049.2871945648
0.698139	235390.17505955434
0.699576	239980.0604513212
0.701017	244240.61848004852
0.702461	247616.8179049534
0.70391	253720.58472285725
0.705362	259735.5634002315
0.706819	263955.504300076
0.70828	268329.66419155174
0.709745	272565.4983178532
0.711216	278134.3279538486
0.71269	282621.8820113219
0.71417	286420.01585773885
0.715655	287190.4566963899
0.717145	285337.1376196731
0.71864	293110.63656932866
0.72014	297885.37943028717
0.721647	300710.78055827325
0.723158	302607.1765406862
0.724676	303024.09828821005
0.726199	304175.8152322641
0.727728	307934.56730250455
0.729264	305897.2877934624
0.730805	308152.745002512
0.732353	313440.20456079947
0.733907	313185.24643371045
0.735468	313263.26805262023
0.737035	311464.1020140863
0.738609	310694.253819604
0.74019	307367.07023978635
0.741777	299125.63140835386
0.743372	291286.0477938711
0.744973	282418.1011635104
0.746582	269434.07590086083
0.748197	253742.7990521893
0.74982	234889.21488787257
0.751451	212408.00354948017
0.753088	186328.07507710642
0.754734	157359.83495004178
0.756386	126194.66237200738
0.758047	94028.64905291743
0.759715	63633.98772656724
0.76139	36571.782441747644
0.763074	16179.304579416641
0.764765	4681.850717509562
0.766464	862.0912165235833
0.768172	1128.0893278865326
0.769887	1278.6512953002984
0.77161	8930.493595875547
0.773341	29628.15037487709
0.775081	62602.35233984184
0.776829	102667.36364123048
0.778585	130912.53121962835
0.780349	155475.87362599157
0.782121	235652.1417999387
0.783902	299569.7963058144
0.785691	350787.9036371233
0.787489	398304.9670791307
0.789295	441240.25273901026
0.79111	474843.69353916316
0.792933	394213.7447564827
0.794764	208788.54079468307
0.796604	503619.4371917907
0.798453	625388.3502565129
0.80031	664427.9287899607
0.802176	696831.2440269894
0.804051	727024.8521674679
0.805934	756085.8167809165
0.807826	780844.7983602005
0.809727	791005.3525437389
0.811636	801586.305414974
0.813554	821969.5949184535
0.81548	876142.266460923
0.817416	905853.5860571647
0.81936	932342.7055868731
0.821313	956787.3332538682
0.823274	965673.4636053732
0.825244	1011684.5118686244
0.827223	1036193.7834426884
0.829211	1047141.5426150123
0.831208	1064862.0952575034
0.833213	1101125.270520396
0.835227	1121832.2092425413
0.837249	1129663.2171184141
0.83928	1159060.5266563057
0.841321	1212259.131927743
0.843369	1254511.5478361372
0.845427	1283124.5799264107
0.847493	1315347.4165478798
0.849567	1333990.1007699054
0.851651	1326500.0859101217
0.853742	1380097.3395043719
0.855843	1437625.5886527733
0.857952	1470520.3359525227
0.86007	1498102.4170998004
0.862196	1498286.3254318666
0.864331	1532135.4702511588
0.866474	1571163.4995352095
0.868626	1605024.0240531163
0.870786	1641899.0729830973
0.872955	1675852.1229849998
0.875132	1696951.1773232971
0.877317	1728106.4646501043
0.879511	1734773.1856231063
0.881713	1757963.631072436
0.883923	1784824.8737366276
0.886142	1802329.3040690336
0.888369	1815173.6847263763
0.890604	1822679.6071434412
0.892847	1745119.2978809765
0.895099	1762941.1569475415
0.897358	1863057.7103011908
0.899626	1978010.7904996334
0.901901	2043344.2722452844
0.904185	2116643.524319069
0.906476	2138619.2195031657
0.908776	2175011.2993607363
0.911083	2245272.1803204413
0.913398	2234875.397205246
0.915721	2230231.1188256545
0.918051	2196039.0998945893
0.92039	2355011.8183965907
0.922736	2374183.318176072
0.925089	2189509.683225042
0.927451	1779148.200220502
0.929819	1351213.0437936445
0.932195	1660659.1032661218
0.934579	1606437.0305260494
0.93697	1778739.0123206708
0.939369	2093448.726118585
0.941774	2132073.343122195
0.944187	1770259.782983256
0.946607	1648665.769846074
0.949035	2001672.4271731265
0.951469	1935799.5201933023
0.953911	2030974.585281309
0.956359	2466594.6285345806
0.958814	2002983.9360590563
0.961277	1810361.3889189588
0.963746	1892315.2446715562
0.966222	1969607.5766101815
0.968705	1959922.0389821494
0.971194	2570346.392886737
0.97369	2850392.960535718
0.976193	2730301.5582270757
0.978702	2940768.7136757905
0.981217	2996908.906395825
0.983739	3104937.889478999
0.986268	3167936.287273077
0.988802	3340962.998964071
0.991343	3509637.495363443
0.99389	3557983.662134062
0.996444	3689933.7302012546
0.999003	3768127.8376190737
1.00157	3805676.401632637
1.00414	3881253.65180659
1.00672	3997543.848836514
1.0093	4088289.4457140267
1.01189	4179914.5612720004
1.01448	4304224.514769758
1.01708	4377978.55841876
1.01969	4445991.7392239515
1.0223	4489631.174208738
1.02492	4450652.49682658
1.02754	4547675.310846976
1.03017	4472362.955789468
1.0328	4754013.170971542
1.03544	4854897.431561364
1.03808	4928189.627657218
1.04073	5002452.806349463
1.04339	5071802.576762896
1.04604	5136410.235969561
1.04871	5163367.006890425
1.05138	5214283.46470375
1.05405	5317973.128642217
1.05673	5407807.113462697
1.05941	5480305.735363488
1.0621	5543158.595091029
1.06479	5608835.552187249
1.06749	5671579.386075146
1.07019	5689204.741667982
1.07289	5774216.487825034
1.0756	5869858.469456566
1.07832	5916348.100038545
1.08104	6000047.556938132
1.08376	6080844.152238136
1.08649	6103763.534765559
1.08922	6030382.083414597
1.09195	5936062.327186599
1.09469	5867261.712652716
1.09743	5913734.473017139
1.10018	4665263.760274345
1.10293	3566853.2383606303
1.10568	2923332.196062988
1.10844	4331748.591262568
1.1112	3788068.9384516976
1.11396	2991825.0892818426
1.11673	2973918.6380371936
1.1195	2962638.1676163273
1.12228	2259057.976777156
1.12505	3320566.9898781735
1.12783	3327896.773248305
1.13062	3437967.285962051
1.13341	1861300.3935757969
1.1362	3092953.2603915357
1.13899	4400616.068588339
1.14178	3956812.1694663763
1.14458	4596548.346479221
1.14738	5213472.19765251
1.15019	3432749.6367145497
1.153	1492004.3320512397
1.1558	1949631.3833921342
1.15862	2117458.5480728922
1.16143	2270539.508664169
1.16425	3333817.516379955
1.16707	4513443.915328101
1.16989	3820674.9889782122
1.17271	4301656.866615436
1.17554	5483163.137285578
1.17837	6324593.159947067
1.1812	6641581.547456291
1.18403	7437123.758587078
1.18686	7385220.420533162
1.1897	7393063.91105084
1.19253	8138558.219732698
1.19537	8496801.003871517
1.19822	8681528.910940936
1.20106	8931168.547532242
1.2039	8802021.418629086
1.20675	9065344.969590623
1.2096	9190308.399473548
1.21245	9197157.577001289
1.2153	9528926.867954297
1.21815	9712108.01427288
1.221	9846068.544489287
1.22385	10023079.839246137
1.22671	10209339.332273856
1.22957	10315882.735669186
1.23242	10344562.098080767
1.23528	10485539.841861239
1.23814	10649978.224731393
1.241	10755795.143423732
1.24387	10861079.38718879
1.24673	10951396.687014615
1.24959	10991327.461734569
1.25245	10948827.435188293
1.25532	11226061.872754995
1.25818	11378327.638289778
1.26105	11357820.681016324
1.26392	11391747.06911161
1.26678	11484025.386980407
1.26965	11508371.565915715
1.27252	11482384.307514176
1.27538	11702381.24615811
1.27825	11724943.595986046
1.28112	11562070.370791193
1.28399	11770973.747245742
1.28686	11644185.217539337
1.28973	11271085.407956565
1.2926	11081131.508179612
1.29546	11412854.993024401
1.29833	11632341.068055106
1.3012	11060025.055667544
1.30407	11000330.018653376
1.30694	10877404.841021426
1.30981	11233695.447740097
1.31267	10799044.020255314
1.31554	11496702.734222226
1.31841	12184087.4215221
1.32128	11186920.115037307
1.32414	9755352.63120986
1.32701	9373185.511838278
1.32987	7576478.942573794
1.33274	4189475.767982552
1.3356	2629026.0886100978
1.33847	878710.7236607489
1.34133	271288.2570930154
1.34419	691555.7681548987
1.34705	954024.5318038187
1.34991	454651.7633898372
1.35277	186563.74768901372
1.35563	290415.8311649121
1.35849	311954.15725907305
1.36135	125943.55906121376
1.3642	312185.4345555949
1.36706	329491.5082240319
1.36991	252463.102469249
1.37277	830828.5592662394
1.37562	1743787.135582643
1.37847	2036802.1558329002
1.38132	742241.8543933667
1.38417	77365.35120678406
1.38701	175238.16891383307
1.38986	135782.54022389342
1.39271	176642.34651154268
1.39555	287509.9103518454
1.39839	218679.79401011902
1.40123	473133.0386414771
1.40407	903910.0055852694
1.40691	1263210.907257642
1.40974	609043.1330913898
1.41258	164236.00236473966
1.41541	453614.4743257314
1.41824	580353.0791161994
1.42107	299424.2120142379
1.4239	200389.80618655143
1.42673	488122.3337876833
1.42955	833272.6157846395
1.43237	563711.3744390078
1.43519	1059068.2184257128
1.43801	698940.1131454031
1.44083	879145.0911912541
1.44365	1444013.2611031355
1.44646	1624113.5233429172
1.44927	3210454.6737821307
1.45208	4131834.2510539326
1.45489	3149024.1225810237
1.45769	3974537.5858367356
1.4605	4549939.463495473
1.4633	4768607.849444398
1.4661	5107436.96205441
1.4689	3542804.2285279236
1.47169	3761257.761851141
1.47449	3560811.260031189
1.47728	3501129.3420312773
1.48007	3596726.899401104
1.48286	5366086.411059029
1.48564	6806356.984269284
1.48842	6834985.738764231
1.4912	7020801.639399605
1.49398	6669139.624658911
1.49676	5724446.929263905
1.49953	7128721.031436619
1.5023	8710735.04456777
1.50507	8606903.53238123
1.50784	7974150.833827455
1.51061	8401573.526802221
1.51337	9073918.608562982
1.51613	10069090.468592998
1.51888	11179884.169802388
1.52164	12839016.377923291
1.52439	13839392.009988982
1.52714	13115279.575887926
1.52989	12827027.427142374
1.53263	13679394.050677387
1.53538	14626642.38093297
1.53812	14821189.35911864
1.54086	14798341.614824127
1.54359	14950773.04742509
1.54632	15769223.59692358
1.54905	15837984.197213583
1.55178	16549042.215402633
1.5545	16480298.39848844
1.55723	15961239.767540546
1.55995	16263454.939084645
1.56266	16822932.958582945
1.56538	17767712.31952509
1.56809	18261886.85458561
1.5708	18148868.550109044
1.57351	17482020.612217244
1.57621	16915405.80738421
1.57891	15703888.125293665
1.58161	16721199.965158906
1.5843	18754352.392713454
1.587	19175400.293438338
1.58969	19067979.56183863
1.59238	18839266.699089617
1.59506	18328857.969718974
1.59774	17794576.14114401
1.60042	17448281.0484667
1.6031	17430215.171813734
1.60577	17638421.92442052
1.60844	17675011.444885164
1.61111	17313424.34430697
1.61378	16654579.84870526
1.61644	16220399.453983482
1.6191	15546682.739330597
1.62176	14622260.125878042
1.62441	13927236.471787311
1.62707	13245102.740744568
1.62971	11865152.402582956
1.63236	11292553.138284743
1.635	13758028.699218895
1.63764	17210764.623803563
1.64028	18310946.377625957
1.64292	17999149.938731644
1.64555	16384918.047723364
1.64818	13567257.676298695
1.65081	13376532.595620736
1.65343	15619055.922230344
1.65605	16410870.112331139
1.65867	16659177.913311504
1.66128	16121563.38590073
1.6639	13489714.102041705
1.66651	8427862.41748789
1.66911	7420073.693848668
1.67172	11611971.174680652
1.67432	14730317.455508215
1.67692	14504802.565601533
1.67951	13036691.532089595
1.68211	13190071.227645101
1.6847	13388431.742942575
1.68728	12297998.987268731
1.68987	11762811.660249697
1.69245	10805119.350159816
1.69503	8410216.981283262
1.6976	7096019.779499413
1.70018	8408572.076695792
1.70275	8385043.740927149
1.70531	8880009.107164724
1.70788	10464768.176933957
1.71044	10352737.097056305
1.713	11260246.570042897
1.71556	12148457.510834817
1.71811	12748691.993682427
1.72066	13826389.418606358
1.72321	13564628.540126918
1.72575	12999260.067803815
1.7283	12593215.593159607
1.73084	11862692.065048346
1.73337	10959330.406945769
1.73591	10356913.242218371
1.73844	10299803.839989731
1.74097	10509796.141581722
1.74349	9873315.626439394
1.74602	8919448.300446399
1.74854	8474187.224834815
1.75105	7608061.3138509225
1.75357	6341438.63251907
1.75608	7504549.292497617
1.75859	10087691.678296508
1.7611	10967317.281324329
1.7636	10402747.000350557
1.7661	8107185.717684659
1.7686	6326108.074837779
1.7711	4752146.423514669
1.77359	3260582.864315355
1.77608	1935901.5446862658
1.77857	1357498.8142676628
1.78105	1671864.9164009395
1.78354	2023606.2533180793
1.78602	1574180.8598017448
1.78849	1142171.2536978945
1.79097	1521307.857035717
1.79344	2218492.3037546696
1.79591	3173952.9625811884
1.79837	4277975.612765408
1.80084	2660921.21295582
1.8033	1026820.7222198318
1.80576	452733.9709862479
1.80821	308179.56489292823
1.81067	962111.1417267084
1.81312	1503308.0560007994
1.81557	801509.0626451343
1.81801	413408.1820226715
1.82046	1032306.6368449483
1.8229	1566284.81490724
1.82533	1031069.8678519326
1.82777	331887.0796781386
1.8302	199800.3259333922
1.83263	402172.2419606542
1.83506	726240.6787807351
1.83749	1225106.5722988388
1.83991	1459648.3834646593
1.84233	1128879.38907308
1.84475	1027901.6920522293
1.84716	1243188.0939619709
1.84957	1688453.7050468023
1.85198	1707254.2805642565
1.85439	869121.7934543777
1.8568	568827.752099986
1.8592	738053.3423178166
1.8616	558017.7121326795
1.864	272798.98674910783
1.86639	218868.22379110227
1.86878	350079.57958691556
1.87118	668512.3631193372
1.87356	1086180.44369289
1.87595	1404460.439371429
1.87833	2395713.487986118
1.88071	3968778.483890096
1.88309	3848220.2159160776
1.88547	2854326.467736856
1.88784	2522636.2294806186
1.89021	2304072.1875913045
1.89258	3886327.4585834895
1.89494	5177601.851583972
1.89731	3277761.6337098875
1.89967	1136802.951701641
1.90203	302033.1393616176
1.90439	255461.4691199245
1.90674	447670.784540208
1.90909	490158.75339901005
1.91144	310517.78259546345
1.91379	140668.42548064343
1.91613	131479.59884107352
1.91848	249743.974505305
1.92082	391552.50990546454
1.92315	386866.72050320747
1.92549	279500.7606583738
1.92782	323133.57279851974
1.93015	493034.7385683662
1.93248	648155.4983435468
1.93481	683528.7776961668
1.93713	600417.3662161396
1.93945	636879.784731728
1.94177	865714.2554801065
1.94409	1034692.9616926882
1.94641	1090884.7362180594
1.94872	1392351.9863809326
1.95103	1740452.1833674253
1.95334	1142698.0932765966
1.95564	756557.4192022921
1.95795	885466.5715134706
1.96025	926194.056173605
1.96255	953060.694603036
1.96484	1179201.4247570771
1.96714	1776158.7999786334
1.96943	2596045.0051800157
1.97172	3081803.1095252703
1.97401	2796145.5835581934
1.97629	3001488.0927364384
1.97858	3834796.1371908872
1.98086	4361776.637799445
1.98314	4978048.964637745
1.98541	5380057.849983866
1.98769	4952108.641504308
1.98996	3834753.4570602067
1.99223	3671895.0370443165
1.9945	4475470.728747105
1.99677	4229431.264223307
1.99903	4135538.311372644
2.00129	5133733.1107612485
2.00355	6583874.147967581
2.00581	7469366.554377353
2.00806	7868575.590003735
2.01031	9466114.301309248
2.01256	10141966.543483488
2.01481	9070517.440699138
2.01706	7851580.275339662
2.0193	7872510.356115837
2.02154	9317036.106867041
2.02378	10811262.726734215
2.02602	11140425.23812673
2.02825	11713893.162770038
2.03049	12475543.562408334
2.03272	13256652.682915198
2.03494	13932844.31107465
2.03717	14495178.010758363
2.03939	15095301.96707099
2.04162	16196036.732872885
2.04384	17205645.17150353
2.04605	18265160.174819995
2.04827	19171717.808465663
2.05048	19099491.918831293
2.05269	17721456.41465352
2.0549	17362489.276482023
2.05711	17926122.336584415
2.05931	18845810.4654751
2.06151	19582788.948152177
2.06371	20175382.87426018
2.06591	20573549.058263212
2.06811	20855941.20226322
2.0703	20979734.685732793
2.07249	20883607.876623772
2.07468	20484524.509471484
2.07686	20386810.970939647
2.07905	20596690.10757471
2.08123	20825312.28422904
2.08341	20937213.01116106
2.08559	20970398.677820165
2.08776	21070639.94898403
2.08994	20980199.04080255
2.09211	20708912.233085237
2.09428	20394408.888181083
2.09645	20400620.450957477
2.09861	20349159.366971362
2.10077	20200712.882886935
2.10293	19969478.30640337
2.10509	19681368.758200277
2.10725	19392634.589621287
2.1094	19565823.683251742
2.11155	19716700.141818434
2.1137	19602865.194521353
2.11585	18998544.925625604
2.11799	18552616.96973501
2.12013	18345551.71516163
2.12227	18343488.578695033
2.12441	18491214.672913644
2.12655	18596185.118994016
2.12868	18564909.428806376
2.13081	18552368.663952902
2.13294	18539675.665794946
2.13507	18160426.050187644
2.13719	17466834.225812096
2.13931	16879693.57262229
2.14143	16375385.630842218
2.14355	15580183.167812869
2.14567	15144453.90902729
2.14778	14830344.419214506
2.14989	14486053.21452968
2.152	13823031.432658391
2.1541	14021764.731975244
2.15621	14298091.102591129
2.15831	14320692.925476406
2.16041	13436549.80862645
2.16251	12986591.099221593
2.1646	12707742.379310977
2.1667	12571206.929063192
2.16879	12759782.37729327
2.17087	12960186.413775243
2.17296	13073366.116422333
2.17504	13043878.6414333
2.17713	12786850.28274826
2.1792	12344109.923681578
2.18128	11775372.884109136
2.18336	11129833.615045276
2.18543	10467359.5149562
2.1875	9794397.36796457
2.18957	9038122.517461691
2.19163	7888050.603472204
2.1937	6301149.23232493
2.19576	4723374.761404904
2.19782	3365100.3780771773
2.19987	2718561.1954005854
2.20193	2383478.301491756
2.20398	2304983.3909602053
2.20603	2394655.0049720053
2.20808	2628320.1994720176
2.21012	2927223.4376653754
2.21217	3268700.221741347
2.21421	3428286.333061313
2.21625	3384008.0980360997
2.21828	3162233.8335195333
2.22032	3036319.909147408
2.22235	2949429.08772038
2.22438	2823236.046715363
2.22641	2480369.634623007
2.22843	2101807.6553404853
2.23046	1775342.533351547
2.23248	1578379.0170741566
2.2345	1516101.8057359387
2.23651	1470227.3006434608
2.23853	1423755.7930284096
2.24054	1264766.593824933
2.24255	1084241.8582157826
2.24456	899097.9050487063
2.24657	926713.4908103374
2.24857	1063322.2421670791
2.25057	1257841.9252776788
2.25257	1332306.0552382213
2.25457	1399065.799632517
2.25656	1461257.8681975638
2.25856	1523688.2395396314
2.26055	1435317.439406128
2.26254	1271971.253338791
2.26453	1087030.9722182248
2.26651	980893.4630396466
2.2685	940859.3076698759
2.27048	1029161.7986105545
2.27246	1159447.7883653683
2.27443	1281674.6178577705
2.27641	1302190.3379002218
2.27838	1245571.606503107
2.28036	1158633.5675454792
2.28233	1097734.4509155774
2.28429	1046953.9446864338
2.28626	997853.4352326714
2.28823	928719.6334672496
2.29019	894657.968004027
2.29215	887751.5797454295
2.29411	938953.4865384452
2.29607	988705.0774901408
2.29802	1037058.3985608431
2.29998	1096530.1540328509
2.30193	1232223.99434199
2.30388	1455375.5628350526
2.30583	1897976.7163489936
2.30778	2344566.428641526
2.30972	2762306.6363091087
2.31167	2738141.087214983
2.31361	2456770.5838765074
2.31555	1720059.713536465
2.31749	1158846.7785141144
2.31943	733035.4810308052
2.32137	709702.5302204547
2.32331	711548.5082863818
2.32524	733331.5088731699
2.32718	718113.119799585
2.32911	709451.8729887536
2.33104	710976.5095723742
2.33297	702018.7028020293
2.3349	688595.5922785145
2.33683	668264.5849910596
2.33876	647478.4061475613
2.34068	625007.6642782371
2.34261	578944.102919268
2.34453	536137.2302831014
2.34646	496545.6396145753
2.34838	523900.8344902935
2.3503	587998.6443753998
2.35223	726064.381271852
2.35415	861707.2787563894
2.35607	993982.7097717745
2.35799	1088254.3754559262
2.35991	1180166.7665753877
2.36183	1269231.7573581354
2.36375	1220583.4802547307
2.36566	1102924.2818376615
2.36758	832778.7598282541
2.3695	613726.5607461096
2.37142	427426.4917455819
2.37334	449515.6263315334
2.37526	488464.70317410503
2.37718	553695.2788598445
2.3791	620125.8006057381
2.38101	691533.6659924682
2.38293	799480.8625828172
2.38485	899830.3097588646
2.38677	992422.0549013396
2.3887	975189.4033181475
2.39062	942298.543082959
2.39254	911203.6226766687
2.39446	923963.446230159
2.39639	965048.1593034797
2.39831	1016979.4600630896
2.40024	1041693.3144881777
2.40216	1014410.7381276775
2.40409	1038467.5135979091
2.40602	1096659.657973681
2.40795	1310208.5063202693
2.40989	1499217.4338413288
2.41182	1655872.5630193371
2.41376	1731347.860810844
2.4157	1809999.095330359
2.41764	1984580.6792607745
2.41958	2101432.915525019
2.42152	2171346.3363971594
