#wavelength	surface flux
0.7	704245.0140452178
0.7001166666666666	705276.3928557585
0.7002333527777778	706255.8445495674
0.700350058336574	707235.4594853247
0.7004667833462966	708215.2376902368
0.7005835278101878	709195.179191519
0.7007002917314895	710175.2840163832
0.7008170751134447	711155.5521920513
0.7009338779592968	712135.9837457484
0.7010507002722901	713064.578050031
0.7011675420556689	713930.0457804466
0.701284403312678	714795.6577554826
0.7014012840465635	715661.4139991823
0.7015181842605713	716527.3145355891
0.701635103957948	717393.3593887514
0.701752043141941	718259.5485827224
0.701869001815798	719125.8821415603
0.7019859799827672	720033.4666869148
0.7021029776460976	720969.8103736646
0.7022199948090387	721906.3101176968
0.7023370314748403	722842.9659450192
0.7024540876467528	723779.777881646
0.702571163328027	724716.745953594
0.7026882585219152	725653.8701868899
0.7028053732316688	726591.1506075566
0.7029225074605406	727714.8762735751
0.7030396612117841	728910.7239658748
0.7031568344886527	730106.7709661232
0.7032740272944008	731303.0173075377
0.7033912396322832	732499.4630233431
0.7035084715055552	733696.1081467665
0.7036257229174727	734892.9527110443
0.7037429938712924	736089.9967494173
0.7038602843702709	737249.2512809967
0.7039775944176659	738402.2558068701
0.7040949240167356	739555.4525001646
0.7042122731707383	740708.8413929077
0.7043296418829335	741862.4225171334
0.7044470301565806	743016.1959048796
0.70456443799494	744170.1615881895
0.7046818654012724	745324.3195991141
0.7047993123788394	746398.1377679927
0.7049167789309024	747472.0424922887
0.7050342650607243	748546.126200707
0.7051517707715678	749620.3889230763
0.7052692960666963	750694.8306892321
0.705386840949374	751769.4515290152
0.7055044054228656	752844.2514722733
0.7056219894904361	753901.894200981
0.7057395931553511	754849.5425582794
0.705857216420877	755797.3488569712
0.7059748592902804	756745.3131233791
0.7060925217668288	757693.4353838324
0.70621020385379	758641.7156646622
0.7063279055544321	759590.1539922043
0.7064456268720246	760538.7503928024
0.7065633678098366	761506.9191896487
0.7066811283711383	762528.7166774906
0.7067989085592001	763550.6844649138
0.7069167083772933	764572.822580301
0.7070345278286895	765595.1310520413
0.707152366916661	766617.6099085272
0.7072702256444803	767640.2591781546
0.7073881040154211	768663.0788893283
0.7075060020327569	769731.337844191
0.7076239196997625	770865.7019015538
0.7077418570197124	772000.2550195918
0.7078598139958823	773134.9972298159
0.7079777906315483	774269.9285637429
0.7080957869299869	775405.0490528914
0.7082138028944751	776540.3587287875
0.7083318385282908	777675.8576229637
0.7084498938347124	778668.3751524409
0.708567968817018	779539.6751290922
0.7086860634784875	780411.1203224072
0.7088041778224007	781282.7107565885
0.7089223118520377	782154.446455841
0.7090404655706796	783026.3274443762
0.709158638981608	783898.3537464106
0.709276832088105	784770.525386162
0.7093950448934531	785853.2815483307
0.7095132774009353	787036.5788757124
0.7096315296138355	788220.0734193159
0.7097498015354378	789403.7652120095
0.7098680931690269	790587.6542866675
0.7099864045178884	791771.7406761728
0.7101047355853081	792956.0244134094
0.7102230863745722	794140.5055312681
0.7103414568889679	795302.8928453076
0.7104598471317828	796460.408800807
0.7105782571063047	797618.1176756314
0.7106966868158224	798776.019501935
0.710815136263625	799934.114311876
0.7109336054530023	801092.4021376194
0.7110520943872445	802250.8830113334
0.7111706030696424	803409.5569651937
0.7112891315034873	804473.9812653038
0.7114076796920712	805534.0768331037
0.7115262476386865	806594.3490834982
0.7116448353466263	807654.7980459338
0.711763442819184	808715.4237498636
0.711882070059654	809776.226224745
0.7120007170713306	810837.2055000382
0.7121193838575091	811902.2651760514
0.7122380704214853	813008.2156066811
0.7123567767665555	814114.3503623814
0.7124755028960166	815220.6694738748
0.7125942488131658	816327.1729718861
0.7127130145213015	817433.86088715
0.7128318000237216	818540.7332503964
0.7129506053237256	819647.7900923716
0.7130694304246129	820752.4205165704
0.7131882753296837	821848.1063243916
0.7133071400422386	822943.9747465143
0.7134260245655789	824040.0258133733
0.7135449289030065	825136.2595554105
0.7136638530578235	826232.6760030707
0.7137827970333332	827329.275186807
0.7139017608328388	828426.0571370738
0.7140207444596443	829524.2806255501
0.7141397479170543	830624.9326206818
0.7142587712083737	831725.7680578112
0.7143778143369084	832826.7869675143
0.7144968773059646	833927.9893803694
0.7146159601188489	835029.3753269595
0.7147350627788687	836130.9448378742
0.7148541852893318	837232.6979437069
0.7149733276535467	838248.0796579445
0.7150924898748222	839176.3504578257
0.715211671956468	840104.775969507
0.7153308739017941	841033.3562187745
0.715450095714111	841962.0912314163
0.71556933739673	842890.9810332269
0.7156885989529628	843820.0256500045
0.7158078803861218	844749.225107553
0.7159271816995193	845368.4439943664
0.7160465028964692	845805.7359315006
0.7161658439802853	846243.1007506243
0.7162852049542819	846680.5384638844
0.7164045858217744	847118.0490834302
0.716523986586078	847555.6326214125
0.7166434072505089	847993.2890899843
0.716762847818384	848431.018501301
0.7168823082930204	849283.8723487076
0.7170017886777359	850258.9747178962
0.7171212889758488	851234.2396041456
0.7172408091906781	852209.6670345431
0.7173603493255433	853185.2570361792
0.7174799093837642	854161.0096361485
0.7175994893686615	855136.9248615514
0.7177190892835562	856113.0027394915
0.7178387091317702	858041.6207040946
0.7179583489166254	860066.1624846895
0.7180780086414448	862091.0416889159
0.7181976883095517	864116.2583730096
0.7183173879242699	866141.8125932176
0.718437107488924	868167.704405796
0.7185568470068389	870193.9338670106
0.7186766064813399	872182.2517216511
0.7187963859157535	873214.5838811875
0.7189161853134061	874247.0880960836
0.719036004677625	875279.7643950158
0.7191558440117378	876312.6128066637
0.7192757033190732	877345.6333597151
0.7193955826029597	878378.8260828574
0.7195154818667269	879412.1910047878
0.7196354011137046	880411.700969045
0.7197553403472235	881254.7102754371
0.7198752995706147	882097.86008338
0.7199952787872098	882941.1504162914
0.720115278000341	883784.5812975917
0.7202352972133411	884628.1527507055
0.7203553364295432	885471.8647990603
0.7204753956522815	886315.717466091
0.7205954748848902	887333.4091878268
0.7207155741307044	888734.2106056054
0.7208356933930594	890135.2454902845
0.7209558326752915	891536.5138807781
0.7210759919807375	892938.0158160053
0.7211961713127342	894339.7513348865
0.7213163706746197	895741.7204763565
0.7214365900697322	897143.9232793485
0.7215568295014103	898281.6048313376
0.721677088972994	899103.578738414
0.7217973684878227	899925.6896411403
0.7219176680492374	900747.9375623513
0.7220379876605789	901570.322524882
0.722158327325189	902392.8445515735
0.7222786870464099	903215.503665269
0.7223990668275843	904038.2998888171
0.7225194666720555	905080.0364416154
0.7226398865831676	906277.0179202809
0.7227603265642646	907474.1988958566
0.722880786618692	908671.5794015976
0.7230012667497951	909869.1594707554
0.7231217669609201	911066.9391365914
0.7232422872554135	912264.9184323708
0.7233628276366229	913463.0973913681
0.7234833881078956	914860.490814909
0.7236039686725803	916333.6753644475
0.7237245693340255	917807.105444742
0.7238451900955812	919280.7810967193
0.7239658309605971	920754.7023613035
0.7240864919324239	922228.8692794337
0.7242071730144127	923703.2818920504
0.724327874209915	925177.9402400994
0.7244485955222832	925545.0285019128
0.7245693369548704	925729.009951593
0.7246900985110294	925913.0220648479
0.7248108801941148	926097.0648467888
0.7249316820074803	926281.138302526
0.7250525039544815	926465.2424371728
0.7251733460384739	926649.3772558422
0.7252942082628137	926836.1364663427
0.7254150906308574	928525.8002948471
0.7255359931459625	930215.7457339898
0.7256569158114868	931905.9728307062
0.7257778586307888	933596.4816319394
0.7258988216072273	935287.2721846391
0.7260198047441617	936978.3445357624
0.7261408080449525	938669.6987322804
0.72626183151296	940310.2084428066
0.7263828751515454	941611.2274533904
0.7265039389640706	942912.4633004757
0.726625022953898	944213.916020203
0.7267461271243904	945515.5856487176
0.7268672514789111	946817.4722221694
0.7269883960208241	948119.5757767156
0.7271095607534942	949421.8963485218
0.7272307456802866	950687.7444720942
0.7273519508045666	951854.6963704993
0.7274731761297006	953021.842760887
0.7275944216590555	954189.183675673
0.7277156873959987	955356.7191472786
0.7278369733438982	956524.4492081313
0.727958279506122	957692.3738906577
0.7280796058860397	958860.4932272993
0.7282009524870207	959818.8895102692
0.7283223193124353	960466.9538117461
0.7284437063656539	961115.1261239386
0.7285651136500483	961763.4064648509
0.7286865411689898	962411.7948524852
0.7288079889258514	963060.2913048525
0.7289294569240056	963708.8958399603
0.7290509451668262	964357.6084758247
0.7291724536576875	965162.140099749
0.7292939823999636	966095.8290294006
0.7294155313970303	967029.6735738758
0.7295371006522632	967963.6737591081
0.7296586901690385	968897.829611037
0.7297802999507332	969832.1411556078
0.7299019300007252	970766.6084187715
0.7300235803223919	971701.2314264767
0.7301452509191123	972988.0954160148
0.7302669417942654	974437.685659981
0.7303886529512311	975887.5175023216
0.7305103843933897	977337.590983303
0.7306321361241218	978787.9061431969
0.7307539081468093	980238.4630222865
0.7308757004648336	981689.2616608529
0.7309975130815778	983140.3020991943
0.7311193460004248	984851.8568866926
0.7312411992247582	986622.6193067288
0.7313630727579622	988393.6768538347
0.7314849666034219	990165.0295772001
0.7316068807645224	991936.6775260182
0.7317288152446498	993708.6207494955
0.7318507700471907	995480.8592968442
0.7319727451755319	997253.3932172834
0.732094740633061	998245.851687429
0.7322167564231665	999203.3430234921
0.7323387925492371	1000160.9939414447
0.7324608490146619	1001118.8044678833
0.732582925822831	1002076.7746294099
0.7327050229771347	1003034.9044526289
0.7328271404809642	1003993.1939641528
0.7329492783377112	1004942.4642730005
0.7330714365507675	1005801.6543195004
0.7331936151235259	1006660.9875643412
0.7333158140593796	1007520.4640313885
0.7334380333617229	1008380.083744515
0.7335602730339499	1009239.8467275939
0.7336825330794556	1010099.7530045037
0.7338048135016354	1010959.8025991245
0.7339271143038857	1012019.8279797897
0.734049435489603	1013749.6057461918
0.7341717770621846	1015479.6718088887
0.7342941390250283	1017210.0262159285
0.7344165213815324	1018940.6690153688
0.734538924135096	1020671.6002552782
0.7346613472891185	1022402.8199837252
0.734783790847	1024134.3282487943
0.7349062548121412	1025469.3761972262
0.7350287391879431	1026103.3767669934
0.7351512439778078	1026737.4830035237
0.7352737691851374	1027371.6949244258
0.735396314813335	1028006.0125473153
0.7355188808658037	1028640.4358898076
0.7356414673459482	1029274.964969525
0.7357640742571725	1029909.5998040885
0.7358867016028818	1030799.9704985315
0.7360093493864824	1031942.9473522189
0.7361320176113801	1033086.1147020472
0.736254706280982	1034229.472579767
0.7363774153986956	1035373.0210171347
0.7365001449679286	1036516.7600459062
0.7366228949920899	1037660.6896978501
0.7367456654745885	1038804.8100047361
0.7368684564188344	1040041.0669674318
0.7369912678282374	1041329.4958969723
0.7371140997062088	1042618.1395646682
0.7372369520561599	1043906.9980063101
0.7373598248815024	1045196.0712576892
0.7374827181856494	1046485.3593546124
0.7376056319720137	1047774.8623328853
0.7377285662440091	1049064.5802283213
0.7378515210050496	1050276.3600889503
0.7379744962585505	1051464.8280563958
0.738097492007927	1052653.4941018356
0.7382205082565949	1053842.3582582825
0.738343545007971	1055031.420558755
0.7384666022654723	1056220.681036279
0.7385896800325165	1057410.1397238807
0.7387127783125219	1058599.7966545983
0.7388358971089073	1059799.6621230277
0.7389590364250921	1061000.7316231157
0.7390821962644963	1062202.0013014544
0.7392053766305403	1063403.4711914046
0.7393285775266454	1064605.1413263374
0.7394517989562333	1065807.011739627
0.7395750409227259	1067009.08246465
0.7396983034295463	1068201.2380138326
0.739821586480118	1069168.5649637156
0.7399448900778645	1070136.0531347552
0.7400682142262109	1071103.7025538264
0.740191558928582	1072071.5132477996
0.7403149241884034	1073039.4852435542
0.7404383100091014	1074007.6185679752
0.7405617163941028	1074975.9132479497
0.7406851433468352	1075879.0986325664
0.7408085908707264	1076483.836894124
0.7409320589692048	1077088.6759453916
0.7410555476456997	1077693.6158031684
0.7411790569036406	1078298.6564842542
0.7413025867464579	1078903.7980054538
0.7414261371775823	1079509.0403835736
0.7415497082004452	1080114.3836354227
0.7416732998184786	1080744.540497868
0.741796912035115	1081427.8160365405
0.7419205448537874	1082111.2054544692
0.7420441982779297	1082794.7087706341
0.742167872310976	1083478.326004019
0.7422915669563612	1084162.0571736095
0.7424152822175206	1084845.9022983948
0.7425390180978901	1085529.861397367
0.7426627746009065	1086416.5322402995
0.7427865517300065	1087550.332027573
0.7429103494886282	1088684.3207814787
0.7430341678802096	1089818.4985335094
0.7431580069081896	1090952.8653151654
0.7432818665760077	1092087.421157953
0.7434057468871037	1093222.1660933804
0.7435296478449182	1094357.100152963
0.7436535694528923	1095316.3133908832
0.7437775117144678	1096155.2707224838
0.7439014746330868	1096994.3678803053
0.7440254582121922	1097833.6048876536
0.7441494624552276	1098672.981767837
0.7442734873656368	1099512.4985441668
0.7443975329468645	1100352.15523996
0.7445215992023557	1101191.9518785358
0.7446456861355559	1101849.5800855735
0.7447697937499119	1102440.1603242683
0.7448939220488703	1103030.8389930024
0.7450180710358784	1103621.6161081812
0.7451422407143843	1104212.4916862124
0.7452664310878367	1104803.465743507
0.7453906421596846	1105394.5382964774
0.7455148739333779	1105985.70936154
0.7456391264123667	1106453.794449114
0.7457633996001021	1106902.2610295266
0.7458876935000356	1107350.8023543698
0.7460120081156189	1107799.4184360998
0.7461363434503048	1108248.1092871767
0.7462606995075466	1108696.874920063
0.7463850762907978	1109145.7153472204
0.7465094738035127	1109594.4318451586
0.7466338920491467	1109991.2349084336
0.746758331031155	1110388.104105553
0.7468827907529935	1110785.0394475379
0.7470072712181189	1111182.040945413
0.7471317724299886	1111579.108610205
0.7472562943920602	1111976.2424529402
0.7473808371077922	1112373.44248465
0.7475054005806435	1112746.5394021187
0.7476299848140736	1112970.825005254
0.7477545898115426	1113195.1479893231
0.7478792155765113	1113419.508360556
0.7480038621124406	1113643.9061251844
0.7481285294227926	1113868.34128944
0.7482532175110298	1114092.8138595566
0.7483779263806148	1114317.3238417676
0.7485026560350116	1114481.0753704046
0.7486274064776842	1114480.3124404915
0.748752177712097	1114479.5493834233
0.7488769697417158	1114478.7861991788
0.749001782570006	1114478.022887737
0.7491266162004343	1114477.2594490766
0.7492514706364677	1114476.4958831766
0.7493763458815739	1114475.7321900153
0.7495012419392209	1114348.701771057
0.7496261588128773	1114040.1268978543
0.7497510965060128	1113731.5005955058
0.7498760550220971	1113422.8228554402
0.7500010343646007	1113114.0936690848
0.7501260345369949	1112805.3130278648
0.750251055542751	1112496.480923205
0.7503760973853414	1112187.5973465275
0.7505011600682389	1111684.4984371662
0.750626243594917	1111019.1933012535
0.7507513479688495	1110353.777281152
0.7508764731935109	1109688.2503583806
0.7510016192723765	1109022.6125144553
0.7511267862089218	1108356.8637308897
0.7512519740066232	1107691.0039891934
0.7513771826689577	1107025.0332708731
0.7515024121994025	1106085.1193625412
0.7516276626014359	1105017.372844105
0.751752933878536	1103949.4483679172
0.7518782260341824	1102881.3459043168
0.7520035390718548	1101813.0654236383
0.7521288729950334	1100744.6068962137
0.7522542278071992	1099675.9702923677
0.7523796035118337	1098607.1555824205
0.7525050001124189	1097098.3629444644
0.7526304176124378	1095493.6722221202
0.7527558560153731	1093888.7140513244
0.752881315324709	1092283.4883874985
0.7530067955439299	1090677.9951860614
0.7531322966765205	1089072.234402426
0.7532578187259665	1087466.2059919932
0.7533833616957542	1085859.9099101585
0.75350892558937	1083658.574778366
0.7536345104103016	1081428.9049093851
0.7537601161620366	1079198.8634287606
0.7538857428480638	1076968.4502745536
0.7540113904718717	1074737.665384824
0.7541370590369503	1072506.5086976131
0.7542627485467898	1070274.980150953
0.7543884590048808	1067972.32769077
0.7545141904147151	1064963.7445728774
0.7546399427797842	1061954.6600244702
0.7547657161035808	1058945.073961971
0.754891510389598	1055934.986301795
0.7550173256413296	1052924.3969603411
0.7551431618622698	1049913.3058539976
0.7552690190559135	1046901.7128991372
0.7553948972257561	1043636.4068465296
0.7555207963752938	1039520.6220228263
0.755646716508023	1035404.1512349884
0.755772657627441	1031286.9943686842
0.7558986197370455	1027169.1513095684
0.756024602840335	1023050.6219432772
0.7561506069408084	1018931.4061554249
0.7562766320419653	1014811.5038316043
0.7564026781473054	1010128.6397605825
0.75652874526033	1004455.541052288
0.7566548333845401	998781.4968275394
0.7567809425234375	993106.5069287553
0.7569070726805247	987430.5711983247
0.7570332238593047	981753.6894786063
0.7571593960632813	976075.8616119294
0.7572855892959586	970397.0874406076
0.7574118035608413	964026.5448722359
0.7575380388614347	956979.0869028204
0.7576642952012449	949930.4543570741
0.7577905725837782	942880.647039247
0.7579168710125422	935829.664753521
0.7580431904910444	928777.507304078
0.7581695310227928	921724.1744950691
0.7582958926112967	914669.6661305832
0.7584222752600652	906194.0701767274
0.7585486789726085	896901.3764624012
0.7586751037524372	887607.133965786
0.7588015496030628	878311.3424287364
0.7589280165279966	869014.0015931157
0.7590545045307512	859715.1112006891
0.7591810136148396	850414.6709931972
0.7593075437837755	841112.6807123239
0.7594340950410726	829775.8818720309
0.7595606673902461	817847.2709934777
0.7596872608348112	805916.6720130994
0.7598138753782836	793984.0845995708
0.75994051102418	782049.5084214623
0.7600671677760173	770112.9431473333
0.7601938456373134	758174.3884456495
0.7603205446115863	746233.8439848556
0.7604472647023548	731242.4754912461
0.7605740059131385	715945.5547065701
0.7607007682474575	700646.0844350817
0.7608275517088319	685344.0642519154
0.7609543563007835	670039.4937320179
0.7610811820268336	654732.3724503764
0.7612080288905045	639422.699981884
0.7613348968953197	623905.4568395405
0.7614617860448022	604179.089034715
0.7615886963424764	584449.433501895
0.7617156277918667	564716.489693172
0.7618425803964988	544980.2570604647
0.7619695541598982	525240.7350556571
0.7620965490855914	505497.92313053
0.7622235651771058	485751.8207367258
0.7623506024379685	465715.6029725847
0.7624776608717082	444418.86338883714
0.7626047404818536	423118.5743484913
0.7627318412719337	401814.73526000866
0.762858963245479	380507.34553166456
0.7629861064060198	359196.4045716971
0.7631132707570876	337881.91178821423
0.7632404563022137	316563.8665892866
0.7633676630449308	295612.1253069057
0.7634948909887717	275444.19465932593
0.7636221401372697	255272.90268999775
0.7637494104939593	235098.2488386557
0.7638767020623748	214920.2325450342
0.7640040148460518	194738.8532486741
0.7641313488485262	174554.1103890987
0.7642587040733344	154366.00340569046
0.7643860805240132	137059.44673877032
0.7645134782041005	123192.5740548473
0.7646408971171346	109323.3902254712
0.764768337266654	95451.89486546195
0.7648957986561985	81578.08758955487
0.7650232812893079	67701.96801243699
0.7651507851695227	53823.53574872279
0.7652783103003843	39942.79041296634
0.7654058566854343	31981.122177369194
0.7655334243282153	28053.709490093162
0.7656610132322699	24125.642234041035
