#wavelength	surface flux
0.7	160181.58404793052
0.7001166666666666	160497.74844522218
0.7002333527777778	160712.50543779152
0.700350058336574	160927.2982231929
0.7004667833462966	161142.12680739153
0.7005835278101878	161356.99119635476
0.7007002917314895	161571.89139604918
0.7008170751134447	161786.8274124435
0.7009338779592968	162001.79925150712
0.7010507002722901	162122.34975698547
0.7011675420556689	162127.97226757274
0.701284403312678	162133.5957152451
0.7014012840465635	162139.22010015874
0.7015181842605713	162144.84542246987
0.701635103957948	162150.47168233473
0.701752043141941	162156.09887990955
0.701869001815798	162161.72701535065
0.7019859799827672	162276.61950993259
0.7021029776460976	162467.57234198612
0.7022199948090387	162658.55699951193
0.7023370314748403	162849.57348781388
0.7024540876467528	163040.6218121972
0.702571163328027	163231.7019779676
0.7026882585219152	163422.81399043283
0.7028053732316688	163613.95785489984
0.7029225074605406	164050.22931048152
0.7030396612117841	164581.21618117223
0.7031568344886527	165112.29154967485
0.7032740272944008	165643.4554307385
0.7033912396322832	166174.707839116
0.7035084715055552	166706.04878956097
0.7036257229174727	167237.47829683122
0.7037429938712924	167768.99637568655
0.7038602843702709	168199.90813734446
0.7039775944176659	168613.81312511937
0.7040949240167356	169027.78709705907
0.7042122731707383	169441.83006466055
0.7043296418829335	169855.94203942353
0.7044470301565806	170270.1230328489
0.70456443799494	170684.3730564395
0.7046818654012724	171098.69212170097
0.7047993123788394	171407.10567535678
0.7049167789309024	171715.44902075495
0.7050342650607243	172023.84375671117
0.7051517707715678	172332.2898917899
0.7052692960666963	172640.78743455763
0.705386840949374	172949.3363935824
0.7055044054228656	173257.93677743414
0.7056219894904361	173538.97103814504
0.7057395931553511	173644.5455061221
0.705857216420877	173750.13756984385
0.7059748592902804	173855.74723224287
0.7060925217668288	173961.3744962524
0.70621020385379	174067.0193648059
0.7063279055544321	174172.68184083735
0.7064456268720246	174278.36192728166
0.7065633678098366	174415.0747611548
0.7066811283711383	174637.22662849922
0.7067989085592001	174859.41552115488
0.7069167083772933	175081.6414452925
0.7070345278286895	175303.9044070843
0.707152366916661	175526.2044127031
0.7072702256444803	175748.5414683226
0.7073881040154211	175970.9155801183
0.7075060020327569	176253.2592075763
0.7076239196997625	176622.93236274956
0.7077418570197124	176992.667130115
0.7078598139958823	177362.46351994164
0.7079777906315483	177732.32154250026
0.7080957869299869	178102.24120806236
0.7082138028944751	178472.22252690187
0.7083318385282908	178842.26550929478
0.7084498938347124	178985.3366062079
0.708567968817018	178935.94785771103
0.7086860634784875	178886.55087775606
0.7088041778224007	178837.14566497103
0.7089223118520377	178787.73221798395
0.7090404655706796	178738.3105354224
0.709158638981608	178688.88061591372
0.709276832088105	178639.44245808508
0.7093950448934531	178899.7367182976
0.7095132774009353	179307.7930220484
0.7096315296138355	179715.91733518336
0.7097498015354378	180124.10966903705
0.7098680931690269	180532.37003494598
0.7099864045178884	180940.69844424975
0.7101047355853081	181349.09490828833
0.7102230863745722	181757.559438404
0.7103414568889679	182129.9577882943
0.7104598471317828	182494.2076499159
0.7105782571063047	182858.5182198475
0.7106966868158224	183222.88950820742
0.710815136263625	183587.32152511532
0.7109336054530023	183951.81428069295
0.7110520943872445	184316.36778506302
0.7111706030696424	184680.9820483507
0.7112891315034873	184880.9957297667
0.7114076796920712	185073.1862795255
0.7115262476386865	185265.4088610426
0.7116448353466263	185457.66347965648
0.711763442819184	185649.9501407069
0.711882070059654	185842.26884953436
0.7120007170713306	186034.6196114798
0.7121193838575091	186228.50949725488
0.7122380704214853	186438.15000404572
0.7123567767665555	186647.82545092082
0.7124755028960166	186857.5358437038
0.7125942488131658	187067.2811882188
0.7127130145213015	187277.0614902918
0.7128318000237216	187486.8767557478
0.7129506053237256	187696.72699041502
0.7130694304246129	187899.9404317178
0.7131882753296837	188079.86088925015
0.7133071400422386	188259.81133352543
0.7134260245655789	188439.79176954133
0.7135449289030065	188619.80220229662
0.7136638530578235	188799.8426367906
0.7137827970333332	188979.91307802394
0.7139017608328388	189160.0135309974
0.7140207444596443	189333.52714044022
0.7141397479170543	189495.26584680396
0.7142587712083737	189657.03150961857
0.7143778143369084	189818.8241333771
0.7144968773059646	189980.64372257295
0.7146159601188489	190142.49028170027
0.7147350627788687	190304.36381525412
0.7148541852893318	190466.2643277302
0.7149733276535467	190514.7687557972
0.7150924898748222	190448.90798149008
0.715211671956468	190383.0362303872
0.7153308739017941	190317.15350065907
0.715450095714111	190251.25979047603
0.71556933739673	190185.35509800797
0.7156885989529628	190119.43942142447
0.7158078803861218	190053.5127588948
0.7159271816995193	189544.30197168517
0.7160465028964692	188774.83263977696
0.7161658439802853	188005.2350629801
0.7162852049542819	187235.50921992058
0.7164045858217744	186465.65508922012
0.716523986586078	185695.67264949816
0.7166434072505089	184925.56187936998
0.716762847818384	184155.3227574465
0.7168823082930204	183868.4533851764
0.7170017886777359	183723.7792915108
0.7171212889758488	183579.08108549632
0.7172408091906781	183434.35876311414
0.7173603493255433	183289.61232034484
0.7174799093837642	183144.84175316853
0.7175994893686615	183000.04705756425
0.7177190892835562	182855.2282295108
0.7178387091317702	184196.44327027295
0.7179583489166254	185687.05661790574
0.7180780086414448	187177.9184010976
0.7181976883095517	188669.02866125325
0.7183173879242699	190160.38743978576
0.718437107488924	191651.994778115
0.7185568470068389	193143.85071766793
0.7186766064813399	194578.7054500657
0.7187963859157535	194582.4269116502
0.7189161853134061	194586.14899347833
0.719036004677625	194589.87169565342
0.7191558440117378	194593.59501827887
0.7192757033190732	194597.31896145808
0.7193955826029597	194601.0435252945
0.7195154818667269	194604.76870989156
0.7196354011137046	194572.61016692864
0.7197553403472235	194375.22830970862
0.7198752995706147	194177.81355551246
0.7199952787872098	193980.36589885716
0.720115278000341	193782.88533425907
0.7202352972133411	193585.37185623354
0.7203553364295432	193387.8254592953
0.7204753956522815	193190.2461379573
0.7205954748848902	193207.13756116643
0.7207155741307044	193696.93223193812
0.7208356933930594	194186.80853515406
0.7209558326752915	194676.7664844207
0.7210759919807375	195166.80609334615
0.7211961713127342	195656.92737553915
0.7213163706746197	196147.13034461328
0.7214365900697322	196637.41501418175
0.7215568295014103	196821.7162766689
0.721677088972994	196640.86100581262
0.7217973684878227	196459.9755924115
0.7219176680492374	196279.06003144127
0.7220379876605789	196098.11431787765
0.722158327325189	195917.13844669503
0.7222786870464099	195736.1324128673
0.7223990668275843	195555.0962113672
0.7225194666720555	195399.38695735726
0.7226398865831676	195261.6229776964
0.7227603265642646	195123.8360373726
0.722880786618692	194986.0261325584
0.7230012667497951	194848.1932594269
0.7231217669609201	194710.3374141498
0.7232422872554135	194572.45859289862
0.7233628276366229	194434.55679184367
0.7234833881078956	194786.0995682384
0.7236039686725803	195323.5328786099
0.7237245693340255	195861.05576119895
0.7238451900955812	196398.6682309361
0.7239658309605971	196936.3703027509
0.7240864919324239	197474.1619915784
0.7242071730144127	198012.04331235407
0.724327874209915	198550.01428001537
0.7244485955222832	197536.53687926818
0.7245693369548704	196266.3568604795
0.7246900985110294	194995.9651450229
0.7248108801941148	193725.36169761035
0.7249316820074803	192454.5464829608
0.7250525039544815	191183.51946577342
0.7251733460384739	189912.28061074964
0.7252942082628137	188644.3688908484
0.7254150906308574	189426.85933137668
0.7255359931459625	190209.48018697844
0.7256569158114868	190992.23147938974
0.7257778586307888	191775.11323035014
0.7258988216072273	192558.12546160215
0.7260198047441617	193341.26819489183
0.7261408080449525	194124.54145197175
0.72626183151296	194827.4045773588
0.7263828751515454	194995.1458357028
0.7265039389640706	195162.91505092318
0.726625022953898	195330.71222767956
0.7267461271243904	195498.5373706321
0.7268672514789111	195666.3904844417
0.7269883960208241	195834.27157377015
0.7271095607534942	196002.18064328024
0.7272307456802866	196153.2887683495
0.7273519508045666	196258.9630780541
0.7274731761297006	196364.6550001436
0.7275944216590555	196470.36453755343
0.7277156873959987	196576.09169321953
0.7278369733438982	196681.83647007842
0.727958279506122	196787.5988710665
0.7280796058860397	196893.37889912154
0.7282009524870207	196692.29354105558
0.7283223193124353	196037.26051346047
0.7284437063656539	195382.11831369545
0.7285651136500483	194726.86692356272
0.7286865411689898	194071.50632486635
0.7288079889258514	193416.0364994019
0.7289294569240056	192760.45742896807
0.7290509451668262	192104.7690953551
0.7291724536576875	191638.4512648182
0.7292939823999636	191329.06011314172
0.7294155313970303	191019.6173962727
0.7295371006522632	190710.1231056176
0.7296586901690385	190400.57723258095
0.7297802999507332	190090.97976856562
0.7299019300007252	189781.33070497215
0.7300235803223919	189471.63003320224
0.7301452509191123	189650.74292100925
0.7302669417942654	190055.53089119244
0.7303886529512311	190460.38632603743
0.7305103843933897	190865.30923678834
0.7306321361241218	191270.29963469072
0.7307539081468093	191675.35753099347
0.7308757004648336	192080.48293694475
0.7309975130815778	192485.67586379749
0.7311193460004248	193179.86226065652
0.7312411992247582	193939.573499139
0.7313630727579622	194699.41135616106
0.7314849666034219	195459.3758528267
0.7316068807645224	196219.46701024135
0.7317288152446498	196979.6848495159
0.7318507700471907	197740.02939176405
0.7319727451755319	198500.5006581023
0.732094740633061	198205.2902986656
0.7322167564231665	197862.4979102654
0.7323387925492371	197519.64838980045
0.7324608490146619	197176.74172774886
0.732582925822831	196833.77791458683
0.7327050229771347	196490.75694078967
0.7328271404809642	196147.67879682986
0.7329492783377112	195789.49757401497
0.7330714365507675	195283.33954239808
0.7331936151235259	194777.0971511094
0.7333158140593796	194270.7703860894
0.7334380333617229	193764.35923327444
0.7335602730339499	193257.86367860046
0.7336825330794556	192751.2837080006
0.7338048135016354	192244.61930740663
0.7339271143038857	191981.17592067953
0.734049435489603	192532.9287463833
0.7341717770621846	193084.77353089146
0.7342941390250283	193636.71028953005
0.7344165213815324	194188.73903762823
0.734538924135096	194740.85979051856
0.7346613472891185	195293.07256353367
0.734783790847	195845.3773720111
0.7349062548121412	195959.63197528315
0.7350287391879431	195299.47128944317
0.7351512439778078	194639.20057682088
0.7352737691851374	193978.8198190806
0.735396314813335	193318.32899788013
0.7355188808658037	192657.7280948772
0.7356414673459482	191997.01709172246
0.7357640742571725	191336.1959700676
0.7358867016028818	190928.41887469878
0.7360093493864824	190770.58638211028
0.7361320176113801	190612.7275841066
0.736254706280982	190454.8424763032
0.7363774153986956	190296.93105431498
0.7365001449679286	190138.99331375677
0.7366228949920899	189981.02925024167
0.7367456654745885	189823.03885938262
0.7368684564188344	189695.45088705712
0.7369912678282374	189585.03933845035
0.7371140997062088	189474.6093879188
0.7372369520561599	189364.1610323954
0.7373598248815024	189253.69426881298
0.7374827181856494	189143.2090941031
0.7376056319720137	189032.70550519746
0.7377285662440091	188922.18349902696
0.7378515210050496	188694.46412034275
0.7379744962585505	188431.45120647497
0.738097492007927	188168.39445712164
0.7382205082565949	187905.29386497688
0.738343545007971	187642.1494227335
0.7384666022654723	187378.96112308282
0.7385896800325165	187115.72895871592
0.7387127783125219	186852.4529223213
0.7388358971089073	186682.23733046724
0.7389590364250921	186521.33196412408
0.7390821962644963	186360.39978021974
0.7392053766305403	186199.44077428497
0.7393285775266454	186038.4549418491
0.7394517989562333	185877.442278441
0.7395750409227259	185716.4027795893
0.7396983034295463	185542.77035467955
0.739821586480118	185089.56705301697
0.7399448900778645	184636.28821747165
0.7400682142262109	184182.9338354524
0.740191558928582	183729.5038943699
0.7403149241884034	183275.99838163095
0.7404383100091014	182822.41728463979
0.7405617163941028	182368.76059079936
0.7406851433468352	181851.3278207616
0.7408085908707264	181042.3944959392
0.7409320589692048	180233.32634889637
0.7410555476456997	179424.12335716173
0.7411790569036406	178614.78549826238
0.7413025867464579	177805.31274971965
0.7414261371775823	176995.70508905195
0.7415497082004452	176185.96249377474
0.7416732998184786	175390.9530375099
0.741796912035115	174627.70607313773
0.7419205448537874	173864.33190093833
0.7420441982779297	173100.83049971025
0.742167872310976	172337.20184824793
0.7422915669563612	171573.44592534375
0.7424152822175206	170809.56270978594
0.7425390180978901	170045.55218035931
0.7426627746009065	169491.965404969
0.7427865517300065	169194.9632199563
0.7429103494886282	168897.91153457906
0.7430341678802096	168600.81034058786
0.7431580069081896	168303.659629731
0.7432818665760077	168006.45939375527
0.7434057468871037	167709.2096244071
0.7435296478449182	167411.91031343088
0.7436535694528923	166939.0525559055
0.7437775117144678	166345.97476558585
0.7439014746330868	165752.7981289687
0.7440254582121922	165159.52262957825
0.7441494624552276	164566.14825093767
0.7442734873656368	163972.67497656745
0.7443975329468645	163379.10278998435
0.7445215992023557	162785.43167470355
0.7446456861355559	162048.54638415412
0.7447697937499119	161258.8184286154
0.7448939220488703	160468.95885175094
0.7450180710358784	159678.96763162437
0.7451422407143843	158888.84474629434
0.7452664310878367	158098.59017381605
0.7453906421596846	157308.20389224315
0.7455148739333779	156517.68587962308
0.7456391264123667	155654.17898480574
0.7457633996001021	154778.87872008825
0.7458876935000356	153903.43257199175
0.7460120081156189	153027.84051620556
0.7461363434503048	152152.10252840968
0.7462606995075466	151276.2185842817
0.7463850762907978	150400.18865949768
0.7465094738035127	149523.94642275156
0.7466338920491467	148630.21260981532
0.746758331031155	147736.32984124272
0.7468827907529935	146842.29809220976
0.7470072712181189	145948.11733788528
0.7471317724299886	145053.7875534349
0.7472562943920602	144159.30871402106
0.7473808371077922	143264.68079479988
0.7475054005806435	142360.5166471603
0.7476299848140736	141398.3808044965
0.7477545898115426	140436.08460585872
0.7478792155765113	139473.62802452093
0.7480038621124406	138511.01103375372
0.7481285294227926	137548.23360682157
0.7482532175110298	136585.2957169839
0.7483779263806148	135622.1973374993
0.7485026560350116	134639.57545908407
0.7486274064776842	133604.38462328492
0.748752177712097	132569.02125568164
0.7488769697417158	131533.48532751494
0.749001782570006	130497.7768100281
0.7491266162004343	129461.89567445533
0.7492514706364677	128425.84189202615
0.7493763458815739	127389.61543396553
0.7495012419392209	126311.27377072295
0.7496261588128773	125172.45504073847
0.7497510965060128	124033.44650763154
0.7498760550220971	122894.2481397695
0.7500010343646007	121754.85990551264
0.7501260345369949	120615.28177321618
0.750251055542751	119475.51371123228
0.7503760973853414	118335.55568790402
0.7505011600682389	117157.24628834696
0.750626243594917	115946.87662149474
0.7507513479688495	114736.30522636656
0.7508764731935109	113525.53206933878
0.7510016192723765	112314.5571167845
0.7511267862089218	111103.38033507261
0.7512519740066232	109892.00169056334
0.7513771826689577	108680.42114961261
0.7515024121994025	107447.70269549788
0.7516276626014359	106205.01725645884
0.751752933878536	104962.12470318215
0.7518782260341824	103719.02500114618
0.7520035390718548	102475.71811582596
0.7521288729950334	101232.20401269216
0.7522542278071992	99988.48265720776
0.7523796035118337	98744.55401483015
0.7525050001124189	97454.86056183037
0.7526304176124378	96155.04442488878
0.7527558560153731	94855.01165192603
0.752881315324709	93554.7622068332
0.7530067955439299	92254.29605349906
0.7531322966765205	90953.61315580775
0.7532578187259665	89652.71347763311
0.7533833616957542	88351.59698284547
0.75350892558937	87026.83680003266
0.7536345104103016	85700.75422710495
0.7537601161620366	84374.45064041577
0.7538857428480638	83047.92600312753
0.7540113904718717	81721.18027840146
0.7541370590369503	80394.21342938823
0.7542627485467898	79067.02541923265
0.7543884590048808	77741.42722884649
0.7545141904147151	76433.66777984395
0.7546399427797842	75125.69037093535
0.7547657161035808	73817.49496579173
0.754891510389598	72509.08152808067
0.7550173256413296	71200.45002146279
0.7551431618622698	69891.60040959412
0.7552690190559135	68582.53265612375
0.7553948972257561	67273.10882082292
0.7555207963752938	65963.00385683971
0.755646716508023	64652.68054202992
0.755772657627441	63342.138840000545
0.7558986197370455	62031.37871435397
0.756024602840335	60720.400128686786
0.7561506069408084	59409.20304658867
0.7562766320419653	58097.78743164237
0.7564026781473054	56786.598213476515
0.75652874526033	55475.973485302246
0.7566548333845401	54165.1303196726
0.7567809425234375	52854.068680182485
0.7569070726805247	51542.78853041987
0.7570332238593047	50231.289833965806
0.7571593960632813	48919.57255439441
0.7572855892959586	47607.63665527636
0.7574118035608413	46361.12834287156
0.7575380388614347	45178.63614070299
0.7576642952012449	43995.946856500275
0.7577905725837782	42813.06045741856
0.7579168710125422	41629.97691060157
0.7580431904910444	40446.69618319299
0.7581695310227928	39263.21824233134
0.7582958926112967	38079.54305514472
0.7584222752600652	36951.26775640624
0.7585486789726085	35854.742862776984
0.7586751037524372	34758.035214998374
0.7588015496030628	33661.14478260966
0.7589280165279966	32564.071535151055
0.7590545045307512	31466.815442151208
0.7591810136148396	30369.376473135882
0.7593075437837755	29271.7545976241
0.7594340950410726	28273.018506324832
0.7595606673902461	27302.859418147455
0.7596872608348112	26332.538636787744
0.7598138753782836	25362.056135298873
0.75994051102418	24391.411886725517
0.7600671677760173	23420.60586411149
0.7601938456373134	22449.638040492948
0.7603205446115863	21478.508388904353
0.7604472647023548	20627.59253958364
0.7605740059131385	19788.500196901517
0.7607007682474575	18949.2680054948
0.7608275517088319	18109.895942058043
0.7609543563007835	17270.38398327552
0.7610811820268336	16430.7321058337
0.7612080288905045	15590.940286413923
0.7613348968953197	14757.14928155199
0.7614617860448022	14049.21455519712
0.7615886963424764	13341.161839720226
0.7617156277918667	12632.991115458102
0.7618425803964988	11924.702362741353
0.7619695541598982	11216.29556189934
0.7620965490855914	10507.770693257708
0.7622235651771058	9799.12773713715
0.7623506024379685	9128.314351225581
0.7624776608717082	8623.717975308275
0.7626047404818536	8119.03749999496
0.7627318412719337	7614.272911269959
0.762858963245479	7109.424195113186
0.7629861064060198	6604.491337503676
0.7631132707570876	6099.474324417373
0.7632404563022137	5594.373141829343
0.7633676630449308	5141.243847657607
0.7634948909887717	4798.849125483393
0.7636221401372697	4456.397337522596
0.7637494104939593	4113.888474263482
0.7638767020623748	3771.322526194319
0.7640040148460518	3428.6994838000883
0.7641313488485262	3086.019337565471
0.7642587040733344	2743.282077972759
0.7643860805240132	2461.7667627355668
0.7645134782041005	2253.3288251549193
0.7646408971171346	2044.8561479179216
0.764768337266654	1836.348725234794
0.7648957986561985	1627.8065513144852
