#wavelength	surface flux
0.8	1321116.8420658638
0.8002000000000001	1325481.5715595551
0.8004000500000003	1330303.48868565
0.8006001500125003	1335131.218314242
0.8008003000500035	1339960.1548752415
0.8010005001250161	1344790.2986703834
0.8012007502500472	1349621.6500014672
0.8014010504376099	1353597.0564897757
0.8016014007002193	1357286.3368686726
0.8018018010503944	1360976.5395676645
0.8020022515006572	1364667.6648173325
0.8022027520635323	1368359.71284831
0.8024033027515483	1372068.8209378952
0.8026039035772362	1375794.6699812612
0.8028045545531306	1379521.4504868886
0.8030052556917691	1383249.162687644
0.803206007005692	1386977.8068164461
0.8034068085074435	1390868.2168611437
0.8036076602095705	1395210.4401150595
0.8038085621246229	1399553.7489247853
0.8040095142651542	1403898.143561716
0.8042105166437206	1408243.6242973045
0.8044115692728815	1412568.486039307
0.8046126721651998	1415960.8430589333
0.8048138253332411	1419354.048167812
0.8050150287895745	1422748.101577971
0.805216282546772	1426143.0035014814
0.8054175866174087	1429538.754150471
0.8056189410140631	1433023.5469842742
0.8058203457493168	1436534.1754253143
0.8060218008357541	1440045.6815234602
0.8062233062859632	1443558.0654981325
0.8064248621125346	1447071.327568796
0.806626468328063	1451055.5575064945
0.8068281249451449	1455444.533557715
0.8070298319763813	1459834.6068529536
0.8072315894343755	1464225.7776665126
0.8074333973317341	1468618.0462727766
0.8076352556810671	1472147.7013005945
0.8078371644949874	1473599.140587327
0.8080391237861113	1475050.9427338818
0.8082411335670578	1476503.1078309722
0.8084431938504498	1477955.6359693382
0.8086453046489125	1479376.4146983777
0.8088474659750746	1480199.670634347
0.8090496778415686	1481023.1323843016
0.809251940261029	1481846.799999693
0.8094542532460944	1482670.6735319889
0.8096566168094059	1483494.7530326669
0.8098590309636085	1485094.0279073236
0.8100614957213493	1486875.0951870321
0.8102640110952797	1488656.6077335612
0.8104665770980536	1490438.5656582273
0.8106691937423283	1492220.9690723754
0.8108718610407639	1494488.9502870727
0.8110745790060241	1497128.453627365
0.8112773476507757	1499768.6168434948
0.8114801669876885	1502409.4401004277
0.8116830370294355	1505050.9235631735
0.8118859577886929	1507367.810915852
0.8120889292781401	1509009.7055567035
0.8122919515104597	1510652.0106712151
0.8124950244983374	1512294.7263620053
0.8126981482544621	1513937.852731718
0.8129013227915257	1515665.6241844487
0.8131045481222237	1518358.3232094995
0.8133078242592543	1521051.695409307
0.8135111512153191	1523745.7409521637
0.813714529003123	1526440.4600064065
0.8139179576353739	1529135.852740413
0.8141214371247829	1539268.1446885036
0.8143249674840641	1550844.9788839957
0.814528548725935	1562424.7072880298
0.8147321808631167	1574007.3306241806
0.8149358639083326	1585592.8496161618
0.8151395978743097	1593091.879618583
0.8153433827737784	1597829.8240471997
0.8155472186194719	1602568.9529619217
0.8157511054241268	1607309.2666588717
0.815955043200483	1612050.765434249
0.8161590319612831	1616181.263280427
0.8163630717192736	1619191.036971624
0.8165671624872033	1622201.5631062402
0.8167713042778252	1625212.8418723932
0.8169754971038948	1628224.8734582392
0.8171797409781707	1630931.1511292325
0.8173840359134155	1631191.1656773237
0.8175883819223938	1631451.2452290517
0.8177927790178745	1631711.3898006678
0.8179972272126291	1631971.5994084268
0.8182017265194322	1632231.8740685876
0.8184062769510622	1637269.5327957792
0.8186108785203001	1643043.6096236345
0.8188155312399301	1648819.1299706888
0.8190202351227402	1654596.0941978365
0.819224990181521	1660374.5026660373
0.8194297964290664	1665842.922337032
0.8196346538781738	1671124.993183923
0.8198395625416434	1676408.3845485237
0.8200445224322789	1681693.0967609677
0.820249533562887	1686979.1301514634
0.8204545959462778	1691851.9251463178
0.8206597095952644	1696058.7153660948
0.8208648745226633	1700266.5572834301
0.8210700907412941	1704475.451161244
0.8212753582639793	1708685.397262523
0.8214806771035456	1711645.5404296936
0.8216860472728215	1706899.6302677204
0.8218914687846397	1702152.5336282065
0.822096941651836	1697404.2502145304
0.822302465887249	1692654.7797300033
0.8225080415037209	1687904.1218778528
0.8227136685140968	1693231.1541003857
0.8229193469312254	1699703.6813518882
0.8231250767679583	1706177.8267352062
0.8233308580371503	1712653.590654866
0.8235366907516598	1719130.9735155108
0.8237425749243477	1726141.1996951827
0.8239485105680789	1733434.7364758733
0.824154497695721	1740730.0966407543
0.824360536320145	1748027.2806456778
0.8245666264542252	1755326.2889466023
0.8247727681108388	1761834.0643092755
0.8249789613028664	1767207.658739666
0.8251852060431922	1772582.5965686685
0.825391502344703	1777958.8781321258
0.8255978502202894	1783336.503765979
0.8258042496828445	1788398.0417566507
0.8260107007452654	1791919.2140282022
0.8262172034204517	1795441.2665928178
0.8264237577213068	1798964.1996705758
0.8266303636607373	1802488.0134816046
0.8268370212516525	1806012.7082460846
0.8270437305069654	1806091.9784083166
0.8272504914395923	1805901.961989747
0.8274573040624523	1805711.8980670723
0.8276641683884679	1805521.7866284172
0.8278710844305652	1805331.6276619022
0.8280780522016729	1808206.049971754
0.8282850717147234	1812482.0270438367
0.8284921429826521	1816759.073110183
0.8286992660183978	1821037.1884380493
0.8289064408349024	1825316.3732947446
0.8291136674451112	1828268.740686516
0.8293209458619727	1829547.4468734087
0.8295282760984382	1830826.4727368464
0.829735658167463	1832105.8183567515
0.8299430920820048	1833385.4838130597
0.8301505778550254	1834806.8398554467
0.8303581154994891	1836792.8029783461
0.8305657050283641	1838779.2625920281
0.8307733464546212	1840766.2188206122
0.8309810397912352	1842753.6717882566
0.8311887850511829	1844741.6216191389
0.8313965822474458	1853336.4522700994
0.8316044313930077	1862240.0688485017
0.8318123325008561	1871145.911331057
0.8320202855839813	1880053.9802742286
0.8322282906553774	1888964.2762346368
0.8324363477280413	1893248.9516598
0.8326444568149735	1895671.5429314622
0.8328526179291771	1898094.7398509393
0.8330608310836596	1900518.5425696499
0.8332690962914304	1902942.951239037
0.8334774135655034	1904925.799460098
0.833685782918895	1906415.2288358845
0.8338942043646247	1907905.0305690141
0.834102677915716	1909395.204752578
0.834311203585195	1910885.7514796867
0.8345197813860912	1913892.1697981437
0.8347284113314379	1922000.650926057
0.8349370934342709	1930111.1591742479
0.8351458277076294	1938223.6950494908
0.8353546141645565	1946338.2590587162
0.8355634528180977	1954454.8517089405
0.8357723436813022	1948348.8530560888
0.8359812867672226	1942065.6900855072
0.8361902820889144	1935780.9563241862
0.8363993296594368	1929494.651379423
0.8366084294918518	1923206.7748584214
0.8368175815992247	1927337.0623642213
0.8370267859946247	1935057.0465415968
0.8372360426911234	1942778.960715014
0.8374453517017962	1950502.8053669739
0.8376547130397217	1958228.5809800958
0.8378641267179816	1963630.536551463
0.8380735927496613	1966726.09255686
0.8382831111478488	1969822.4224512565
0.8384926819256358	1972919.526428125
0.8387023050961173	1976017.4046809906
0.8389119806723914	1979067.7576106994
0.8391217086675596	1981982.9417294818
0.8393314890947265	1984898.8546442913
0.8395413219670003	1987815.49653733
0.8397512072974922	1990732.8675908442
0.8399611450993165	1993776.9704984154
0.8401711353855914	2003079.074111907
0.8403811781694378	2012383.5032512995
0.8405912734639802	2021690.258497979
0.8408014212823464	2030999.3404334749
0.8410116216376671	2040310.7496394531
0.8412218745430766	2048317.4570095555
0.8414321800117124	2055945.8708537717
0.8416425380567154	2063576.1918014523
0.8418529486912297	2071208.4203293717
0.8420634119284025	2078842.5569144168
0.8422739277813847	2083727.849476996
0.8424844962633302	2086190.8436208798
0.842695117387396	2088654.4535132963
0.8429057911667428	2091118.6793081858
0.8431165176145345	2093583.5211595255
0.8433272967439382	2096244.9249729707
0.8435381285681244	2099384.960161413
0.8437490131002665	2102525.780358652
0.8439599503535415	2105667.3857609383
0.84417094034113	2108809.7765645776
0.8443819830762154	2112044.469001906
0.8445930785719846	2117123.568480821
0.8448042268416277	2122203.937734602
0.8450154278983382	2127285.577080697
0.8452266817553128	2132368.486836627
0.8454379884257517	2137452.667319997
0.8456493479228583	2142584.3616696303
0.845860760259839	2147728.474769945
0.846072225449904	2152873.8738985346
0.8462837435062666	2158020.5593769075
0.8464953144421433	2163168.531526653
0.8467069382707537	2167287.5437157066
0.8469186150053215	2170604.5397981065
0.847130344659073	2173922.365129528
0.8473421272452377	2177241.019917279
0.8475539627770492	2180560.5043687304
0.8477658512677435	2184291.1167174005
0.8479777927305605	2188893.8755486943
0.8481897871787432	2193497.785069695
0.848401834625538	2198102.8455680786
0.8486139350841944	2202709.0573315835
0.8488260885679657	2207222.6721210405
0.8490382950901076	2210594.6540509877
0.8492505546638802	2213967.4789764197
0.8494628673025462	2217341.1471080813
0.8496752330193721	2220715.658656781
0.8498876518276269	2224091.0138333635
0.8501001237405839	2223446.4084348786
0.8503126487715191	2221999.0187072987
0.850525226933712	2220551.267132288
0.8507378582404455	2219103.1536193835
0.8509505427050057	2217654.6780780996
0.8511632803406821	2217893.7166854325
0.8513760711607672	2219288.701217191
0.8515889151785576	2220684.034495084
0.8518018124073523	2222079.7166062957
0.8520147628604541	2223475.747638034
0.8522277665511693	2227563.895193866
0.8524408234928071	2236631.163435257
0.8526539336986805	2245700.698493711
0.8528670971821053	2254772.5009359303
0.8530803139564007	2263846.571328749
0.8532935840348901	2272821.8259508666
0.8535069074308987	2280945.6159176338
0.8537202841577566	2289071.4368319
0.8539337142287962	2297199.289201395
0.8541471976573534	2305329.173533978
0.8543607344567677	2313461.090337645
0.8545743246403821	2319291.803376426
0.8547879682215422	2324758.1937738224
0.8550016652135977	2330225.950768817
0.8552154156299011	2335695.0747030615
0.8554292194838088	2341165.5659182933
0.8556430767886797	2345849.863380166
0.855856987557877	2350057.145449533
0.8560709518047664	2354265.4793394157
0.8562849695427177	2358474.865312772
0.8564990407851035	2362685.3036326226
0.8567131655452999	2366903.2204407477
0.8569273438366862	2371132.7207447686
0.8571415756726455	2375363.2784238663
0.8573558610665638	2379594.8937423853
0.8575702000318304	2383827.566964729
0.8577845925818384	2388129.156350601
0.857999038729984	2392855.687171063
0.8582135384896665	2397583.3996242285
0.858428091874289	2402312.294005508
0.8586426988972576	2407042.3706103815
0.8588573595719821	2411773.6297344076
0.8590720739118751	2415759.9161764183
0.8592868419303532	2419659.2252274635
0.8595016636408359	2423559.5091057713
0.8597165390567462	2427460.7680550474
0.8599314681915105	2431363.0023190617
0.8601464510585584	2434680.9298292254
0.860361487671323	2437689.023055494
0.8605765780432408	2440697.8683050675
0.8607917221877518	2443707.4657659563
0.8610069201182988	2446717.8156262096
0.8612221718483286	2443025.9629281736
0.8614374773912907	2429669.9703127197
0.8616528367606385	2416310.6386991153
0.8618682499698288	2402947.967252599
0.8620837170323213	2389581.9551382237
0.8622992379615795	2378592.13032657
0.8625148127710699	2379374.9344766783
0.8627304414742627	2380157.9343278245
0.8629461240846313	2380941.129928933
0.8631618606156526	2381724.5213289424
0.8633776510808066	2382508.1085768016
0.8635934954935769	2403624.329191348
0.8638093938674504	2426412.515534428
0.8640253462159173	2449206.3989240928
0.8642413525524714	2472005.9807846043
0.8644574128906095	2494811.2625405765
0.8646735272438323	2498838.9825787325
0.8648896956256433	2494132.9717745967
0.8651059180495498	2489425.7844677595
0.8653221945290621	2484717.4203641005
0.8655385250776946	2480007.8791694087
0.8657549097089641	2482077.1080504796
0.8659713484363913	2492826.677393388
0.8661878412735006	2503578.934128637
0.866404388233819	2514333.8789280686
0.8666209893308775	2525091.5124636944
0.8668376445782103	2534383.965234263
0.8670543539893549	2537687.6177898915
0.8672711175778525	2540992.0962586612
0.8674879353572469	2544297.400847045
0.8677048073410862	2547603.5317615764
0.8679217335429217	2550910.489208839
0.8681387139763074	2556023.500255202
0.8683557486548015	2561227.468625499
0.8685728375919655	2566432.7379878946
0.8687899808013633	2571639.3086676192
0.8690071782965637	2576847.180990021
0.869224430091138	2581344.599670988
0.8694417361986609	2585553.5302488734
0.8696590966327107	2589763.5130594024
0.869876511406869	2593974.548365634
0.8700939805347206	2598186.63643069
0.8703115040298544	2602632.9818622353
0.870529081905862	2607347.058909377
0.8707467141763385	2612062.314475779
0.8709644008548827	2616778.7488560723
0.8711821419550964	2621496.362344958
0.8713999374905854	2626390.6321427715
0.871617787474958	2631891.7571927295
0.8718356919218269	2637394.2575239553
0.8720536508448075	2642898.133480264
0.8722716642575187	2648403.3854055586
0.8724897321735832	2653910.013643837
0.8727078546066265	2658588.3528378117
0.8729260315702784	2663255.2396796485
0.873144263078171	2667923.2932431903
0.8733625491439405	2672592.513820124
0.8735808897812266	2677262.9017022033
0.8737992850036719	2679476.821638852
0.874017734824923	2680820.840956708
0.8742362392586293	2682165.196279393
0.874454798318444	2683509.8876909083
0.8746734120180236	2684854.9152752766
0.8748920803710283	2687231.590528574
0.875110803391121	2690645.229649484
0.8753295810919689	2694059.7221801765
0.875548413487242	2697475.0683340016
0.8757673005906139	2700891.2683243654
0.8759862424157616	2705708.474861072
0.8762052389763657	2714578.2930245884
0.8764242902861098	2723450.32864264
0.8766433963586814	2732324.582269598
0.8768625572077712	2741201.0544599653
0.8770817728470732	2750011.694111037
0.8773010432902849	2753511.234727064
0.8775203685511077	2757011.65022825
0.8777397486432454	2760512.9408333064
0.8779591835804065	2764015.1067610183
0.8781786733763015	2767518.148230208
0.8783982180446457	2765998.485133559
0.878617817599157	2762984.0208719997
0.8788374720535569	2759968.8029943765
0.8790571814215703	2756952.8313122843
0.8792769457169257	2753936.105637272
0.879496764953355	2751225.8441186403
0.8797166391445934	2748791.1144987764
0.8799365683043796	2746355.7761965073
0.8801565524464557	2743919.8290596628
0.8803765915845676	2741483.2729360317
0.8805966857324639	2743868.953633256
0.880816834903897	2758368.7739718813
0.881037039112623	2772872.2192655974
0.8812572983724012	2787379.290420635
0.8814776126969944	2801889.9883434684
0.8816979821001687	2816068.40894225
0.8819184065956938	2822343.113941697
0.8821388861973429	2828619.3876174004
0.8823594209188923	2834897.2303615166
0.882580010774122	2841176.642566316
0.8828006557768155	2847457.62462417
0.8830213559407598	2853432.9519176558
0.8832421112797452	2859332.502834428
0.8834629218075651	2865233.5286389263
0.8836837875380171	2871136.0296998774
0.8839047084849018	2877040.0063860947
0.884125684662023	2877458.977388097
0.8843467160831886	2873481.338771971
0.8845678027622095	2869502.705746191
0.8847889447129001	2865523.078062154
0.8850101419490785	2861542.4554711967
0.8852313944845657	2862758.0446888776
0.885452702333187	2875349.9864077806
0.8856740655087704	2887945.0761121116
0.8858954840251476	2900543.314588865
0.8861169578961539	2913144.702625232
0.886338487135628	2924487.2887564907
0.886560071757412	2919039.3985202285
0.8867817117753515	2913590.1463114074
0.8870034072032955	2908139.531789532
0.8872251580550963	2902687.554614032
0.8874469643446101	2897234.2144442354
0.8876688260856963	2903816.484503803
0.8878907432922178	2912891.6060728654
0.8881127159780409	2921968.996422314
0.8883347441570356	2931048.656119361
0.8885568278430749	2940130.585731323
0.8887789670500358	2946065.801332903
0.8890011617917983	2949768.6941318796
0.8892234120822464	2953472.5126540577
0.8894457179352669	2957177.257130863
0.8896680793647509	2960882.927793791
0.8898904963845921	2962579.206993014
0.8901129690086883	2960440.170827
0.8903354972509405	2958300.599901945
0.8905580811252535	2956160.494084157
0.8907807206455347	2954019.8532399177
0.8910034158256963	2951261.57562943
0.8912261666796527	2942987.593693949
0.8914489732213227	2934711.543262982
0.8916718354646282	2926433.4238193985
0.8918947534234944	2918153.234845963
0.8921177271118502	2909870.975825289
0.8923407565436284	2902394.2906200527
0.8925638417327644	2895047.485002819
0.8927869826931977	2887698.842684179
0.8930101794388711	2880348.3632049593
0.8932334319837308	2872996.0461058714
0.8934567403417267	2868526.8673713375
0.8936801045268123	2865849.2445968343
0.8939035245529441	2863170.95241664
0.8941270004340824	2860491.9906633985
0.894350532184191	2857812.35916972
0.8945741198172371	2868769.7273470536
0.8947977633471915	2902346.283111049
0.8950214627880284	2935931.2330139843
0.8952452181537254	2969524.579154375
0.8954690294582639	3003126.323631321
0.8956928967156286	3032659.0973951914
0.8959168199398075	3035738.568069451
0.8961407991447926	3038818.8086113804
0.8963648343445789	3041899.8192134453
0.896588925553165	3044981.6000681585
0.8968130727845534	3048064.151368086
0.8970372760527496	3047371.2603713614
0.8972615353717629	3046205.715867833
0.8974858507556059	3045039.8799781776
0.8977102222182949	3043873.7526295506
0.8979346497738496	3042707.3337490857
0.8981591334362931	3058062.618480587
0.8983836732196523	3082457.232726596
0.8986082691379572	3106857.9456261504
0.8988329212052417	3131264.75870393
0.8990576294355432	3155677.6734849997
0.8992823938429022	3172117.074893829
0.8995072144413631	3176695.91032137
0.8997320912449734	3181275.8904577657
0.8999570242677847	3185857.0155891944
0.9001820135238516	3190439.2860019063
0.9004070590272328	3195083.9217184703
0.9006321607919896	3200050.6533372696
0.9008573188321878	3205018.6266389783
0.9010825331618959	3209987.8419340104
0.9013078037951865	3214958.299532867
0.9015331307461353	3219929.9997461205
0.9017585140288219	3227531.969801206
0.9019839536573292	3235362.285251578
0.9022094496457435	3243194.558280806
0.9024350020081551	3251028.789378301
0.9026606107586572	3258864.9790335675
0.902886275911347	3270001.2552411896
0.9031119974803249	3282730.242546159
0.9033377754796951	3295462.412097954
0.903563609923565	3308197.764692132
0.903789500826046	3320936.3011244666
0.9040154482012526	3329746.701662664
0.904241452063303	3333466.6223187414
0.9044675124263188	3337187.4729549824
0.9046936293044254	3340909.253803882
0.9049198027117517	3344631.9650979955
0.9051460326624297	3349048.18913803
0.9053723191705955	3356414.69279954
0.9055986622503881	3363783.038086958
0.9058250619159507	3371153.2254606984
0.9060515181814298	3378525.2553812866
0.9062780310609752	3385899.12830935
0.9065046005687405	3378255.4344420135
0.906731226718883	3369771.9411577485
0.9069579095255627	3361286.327000173
0.907184649002944	3352798.5914390576
0.907411445165195	3344308.7339440435
0.9076382980264862	3353648.8161207275
0.907865207600993	3370396.8556965347
0.9080921739028933	3387149.0822822307
0.9083191969463691	3403905.4969245703
0.9085462767456058	3420666.100670579
0.9087734133147922	3432176.8174228063
0.9090006066681211	3437621.8876265716
0.909227856819788	3443068.3190978807
0.9094551637839932	3448516.1121770656
0.9096825275749393	3453965.267204518
0.9099099482068329	3459959.4090289036
0.9101374256938848	3467887.100317076
0.9103649600503083	3475816.773528066
0.9105925512903209	3483748.4291573577
0.9108201994281437	3491682.067700565
0.9110479044780008	3499617.689653399
0.9112756664541204	3507515.8142856476
0.911503485370734	3515415.009730749
0.9117313612420768	3523316.179974711
0.9119592940823873	3531219.3255112316
0.912187283905908	3539124.446834139
0.9124153307268845	3533165.8416549657
0.9126434345595664	3522173.3071865663
0.9128715954182063	3511178.02458456
0.9130998133170609	3500179.993161898
0.9133280882703902	3489179.212231381
0.913556420292458	3488687.120363768
0.9137848093975312	3499035.5079856846
