#wavelength	surface flux
0.7	186083.56993585394
0.7001166666666666	186434.4331928837
0.7002333527777778	186689.6936739303
0.700350058336574	186944.99669839029
0.7004667833462966	187200.34227335404
0.7005835278101878	187455.7304059143
0.7007002917314895	187711.1611031629
0.7008170751134447	187966.63437219436
0.7009338779592968	188222.15022010388
0.7010507002722901	188387.65065329408
0.7011675420556689	188443.58407036227
0.701284403312678	188499.52680966654
0.7014012840465635	188555.47887276078
0.7015181842605713	188611.44026119885
0.701635103957948	188667.41097653497
0.701752043141941	188723.39102032362
0.701869001815798	188779.38039411965
0.7019859799827672	188934.6043203862
0.7021029776460976	189158.90928391187
0.7022199948090387	189383.2516315984
0.7023370314748403	189607.6313696761
0.7024540876467528	189832.04850437678
0.702571163328027	190056.50304193288
0.7026882585219152	190280.9949885792
0.7028053732316688	190505.52435054962
0.7029225074605406	190965.7742798678
0.7030396612117841	191517.1089888019
0.7031568344886527	192068.5355868542
0.7032740272944008	192620.05408933922
0.7033912396322832	193171.6645115749
0.7035084715055552	193723.3668688804
0.7036257229174727	194275.16117657901
0.7037429938712924	194827.04744999608
0.7038602843702709	195283.46311208094
0.7039775944176659	195723.74672846397
0.7040949240167356	196164.10372544994
0.7042122731707383	196604.5341152685
0.7043296418829335	197045.03791015226
0.7044470301565806	197485.61512233512
0.70456443799494	197926.26576405298
0.7046818654012724	198366.98984754473
0.7047993123788394	198702.9247033965
0.7049167789309024	199038.79521380956
0.7050342650607243	199374.7217026415
0.7051517707715678	199710.70417922141
0.7052692960666963	200046.7426528806
0.705386840949374	200382.83713295194
0.7055044054228656	200718.98762877047
0.7056219894904361	201028.35423913668
0.7057395931553511	201167.2076363937
0.705857216420877	201306.08417588368
0.7059748592902804	201444.9838614635
0.7060925217668288	201583.90669699103
0.70621020385379	201722.85268632448
0.7063279055544321	201861.82183332264
0.7064456268720246	202000.81414184553
0.7065633678098366	202169.27090743856
0.7066811283711383	202418.83760634024
0.7067989085592001	202668.4458996917
0.7069167083772933	202918.09579442526
0.7070345278286895	203167.78729747474
0.707152366916661	203417.52041577478
0.7072702256444803	203667.29515626092
0.7073881040154211	203917.11152587083
0.7075060020327569	204223.7558055315
0.7076239196997625	204613.15173305268
0.7077418570197124	205002.61255989474
0.7078598139958823	205392.1382968746
0.7079777906315483	205781.72895481097
0.7080957869299869	206171.38454452337
0.7082138028944751	206561.10507683386
0.7083318385282908	206950.89056256667
0.7084498938347124	207121.03600266937
0.708567968817018	207104.93940370672
0.7086860634784875	207088.84012197758
0.7088041778224007	207072.7381570348
0.7089223118520377	207056.6335084312
0.7090404655706796	207040.5261757195
0.709158638981608	207024.41615845234
0.709276832088105	207008.30345618233
0.7093950448934531	207288.2902088404
0.7095132774009353	207709.53793105934
0.7096315296138355	208130.8558612322
0.7097498015354378	208552.24401105996
0.7098680931690269	208973.7023922456
0.7099864045178884	209395.23101649532
0.7101047355853081	209816.82989551566
0.7102230863745722	210238.49904101554
0.7103414568889679	210625.06670277574
0.7104598471317828	211003.70693952238
0.7105782571063047	211382.4102829749
0.7106966868158224	211761.17674365127
0.710815136263625	212140.00633207103
0.7109336054530023	212518.89905875578
0.7110520943872445	212897.85493422815
0.7111706030696424	213276.87396901334
0.7112891315034873	213492.2266028196
0.7114076796920712	213699.8031193727
0.7115262476386865	213907.4142320119
0.7116448353466263	214115.05994650308
0.711763442819184	214322.74026861344
0.711882070059654	214530.45520411103
0.7120007170713306	214738.2047587644
0.7121193838575091	214947.26377804505
0.7122380704214853	215169.65389225967
0.7123567767665555	215392.0810714931
0.7124755028960166	215614.5453219232
0.7125942488131658	215837.0466497282
0.7127130145213015	216059.58506108844
0.7128318000237216	216282.16056218318
0.7129506053237256	216504.77315919515
0.7130694304246129	216720.48342772422
0.7131882753296837	216911.96695401781
0.7133071400422386	217103.48239423253
0.7134260245655789	217295.02975368712
0.7135449289030065	217486.6090377017
0.7136638530578235	217678.22025159685
0.7137827970333332	217869.86340069456
0.7139017608328388	218061.53849031712
0.7140207444596443	218245.39962521617
0.7141397479170543	218415.29509571084
0.7142587712083737	218585.21888211698
0.7143778143369084	218755.17098915434
0.7144968773059646	218925.15142154292
0.7146159601188489	219095.1601840035
0.7147350627788687	219265.19728125783
0.7148541852893318	219435.2627180283
0.7149733276535467	219493.45532873037
0.7150924898748222	219438.81899919806
0.715211671956468	219384.1735636108
0.7153308739017941	219329.51902045088
0.715450095714111	219274.8553682005
0.71556933739673	219220.18260534137
0.7156885989529628	219165.50073035512
0.7158078803861218	219110.80974172297
0.7159271816995193	218634.9572006506
0.7160465028964692	217911.8351451923
0.7161658439802853	217188.59256939145
0.7162852049542819	216465.22945316145
0.7164045858217744	215741.7457764116
0.716523986586078	215018.1415190493
0.7166434072505089	214294.4166609778
0.716762847818384	213570.57118209632
0.7168823082930204	213304.27464541906
0.7170017886777359	213172.57816968154
0.7171212889758488	213040.8597445315
0.7172408091906781	212909.11936631057
0.7173603493255433	212777.35703135986
0.7174799093837642	212645.57273602008
0.7175994893686615	212513.76647663105
0.7177190892835562	212381.93824953213
0.7178387091317702	213666.80587076617
0.7179583489166254	215094.101840637
0.7180780086414448	216521.6356931706
0.7181976883095517	217949.40746801285
0.7183173879242699	219377.41720481776
0.718437107488924	220805.6649432458
0.7185568470068389	222234.1507229641
0.7186766064813399	223607.76830715427
0.7187963859157535	223603.83647138195
0.7189161853134061	223599.9039803037
0.719036004677625	223595.97083381025
0.7191558440117378	223592.03703179237
0.7192757033190732	223588.10257414082
0.7193955826029597	223584.16746074636
0.7195154818667269	223580.23169149965
0.7196354011137046	223542.41295287458
0.7197553403472235	223348.58768366522
0.7198752995706147	223154.7301102444
0.7199952787872098	222960.8402272279
0.720115278000341	222766.91802923087
0.7202352972133411	222572.9635108675
0.7203553364295432	222378.97666675135
0.7204753956522815	222184.95749149425
0.7205954748848902	222193.19398342771
0.7207155741307044	222647.4012920631
0.7208356933930594	223101.6843019158
0.7209558326752915	223556.0430256036
0.7210759919807375	224010.47747574595
0.7211961713127342	224464.98766496274
0.7213163706746197	224919.57360587845
0.7214365900697322	225374.23531111717
0.7215568295014103	225556.8475233039
0.721677088972994	225414.7988807165
0.7217973684878227	225272.72656335554
0.7219176680492374	225130.63056727487
0.7220379876605789	224988.51088852828
0.722158327325189	224846.36752316853
0.7222786870464099	224704.20046724792
0.7223990668275843	224562.00971681796
0.7225194666720555	224392.8630407
0.7226398865831676	224204.6006297861
0.7227603265642646	224016.30684180412
0.722880786618692	223827.98167152377
0.7230012667497951	223639.62511371516
0.7231217669609201	223451.2371631469
0.7232422872554135	223262.81781458703
0.7233628276366229	223074.36706280208
0.7234833881078956	223360.02966366752
0.7236039686725803	223825.75434266453
0.7237245693340255	224291.5566424406
0.7238451900955812	224757.4365759342
0.7239658309605971	225223.39415608282
0.7240864919324239	225689.42939582877
0.7242071730144127	226155.54230811467
0.724327874209915	226621.732905885
0.7244485955222832	225628.62071830404
0.7245693369548704	224394.0467785973
0.7246900985110294	223159.26707656906
0.7248108801941148	221924.28157792054
0.7249316820074803	220689.09024835972
0.7250525039544815	219453.69305357526
0.7251733460384739	218218.08995925816
0.7252942082628137	216985.61462851908
0.7254150906308574	217684.583761962
0.7255359931459625	218383.66939026062
0.7256569158114868	219082.87153283082
0.7257778586307888	219782.19020909176
0.7258988216072273	220481.62543846524
0.7260198047441617	221181.17724037616
0.7261408080449525	221880.84563425527
0.72626183151296	222504.41863642723
0.7263828751515454	222621.62307972752
0.7265039389640706	222738.84705710167
0.726625022953898	222856.09057180543
0.7267461271243904	222973.35362709503
0.7268672514789111	223090.6362262271
0.7269883960208241	223207.93837245894
0.7271095607534942	223325.26006904856
0.7272307456802866	223425.7612122411
0.7273519508045666	223480.78991183237
0.7274731761297006	223535.82778287356
0.7275944216590555	223590.87482689324
0.7277156873959987	223645.93104542026
0.7278369733438982	223700.9964399838
0.727958279506122	223756.07101211298
0.7280796058860397	223811.15476333757
0.7282009524870207	223565.12898130142
0.7283223193124353	222873.67408458996
0.7284437063656539	222182.1039453971
0.7285651136500483	221490.41854451326
0.7286865411689898	220798.61786273072
0.7288079889258514	220106.70188083284
0.7289294569240056	219414.67057960626
0.7290509451668262	218722.52393982868
0.7291724536576875	218207.1536930011
0.7292939823999636	217838.27140860318
0.7294155313970303	217469.32764382378
0.7295371006522632	217100.32238841703
0.7296586901690385	216731.25563213465
0.7297802999507332	216362.1273647264
0.7299019300007252	215992.93757593926
0.7300235803223919	215623.68625552166
0.7301452509191123	215709.6632704469
0.7302669417942654	216005.80251277555
0.7303886529512311	216301.9911116447
0.7305103843933897	216598.22907528034
0.7306321361241218	216894.51641190975
0.7307539081468093	217190.85312976243
0.7308757004648336	217487.23923706744
0.7309975130815778	217783.67474205737
0.7311193460004248	218327.54930236907
0.7312411992247582	218927.5203668808
0.7313630727579622	219527.59142656982
0.7314849666034219	220127.76249810273
0.7316068807645224	220728.0335981472
0.7317288152446498	221328.40474337526
0.7318507700471907	221928.8759504612
0.7319727451755319	222529.44723608138
0.732094740633061	222139.44156634295
0.7322167564231665	221704.77030109463
0.7323387925492371	221270.0265906354
0.7324608490146619	220835.2104228912
0.732582925822831	220400.3217857856
0.7327050229771347	219965.360667241
0.7328271404809642	219530.32705517623
0.7329492783377112	219081.28884979867
0.7330714365507675	218495.20863813197
0.7331936151235259	217909.03074643013
0.7333158140593796	217322.75515841367
0.7334380333617229	216736.38185779832
0.7335602730339499	216149.91082829927
0.7336825330794556	215563.3420536285
0.7338048135016354	214976.67551749642
0.7339271143038857	214612.13091402082
0.734049435489603	214992.1139599915
0.7341717770621846	215372.16033646985
0.7342941390250283	215752.2700540108
0.7344165213815324	216132.44312317116
0.734538924135096	216512.67955451028
0.7346613472891185	216892.97935858744
0.734783790847	217273.34254596545
0.7349062548121412	217250.47526803726
0.7350287391879431	216514.76581199275
0.7351512439778078	215778.93373770406
0.7352737691851374	215042.9790247372
0.735396314813335	214306.90165265088
0.7355188808658037	213570.70160100373
0.7356414673459482	212834.3788493465
0.7357640742571725	212097.93337723118
0.7358867016028818	211584.7933169245
0.7360093493864824	211292.2231829129
0.7361320176113801	210999.6042872127
0.736254706280982	210706.9366216965
0.7363774153986956	210414.2201782357
0.7365001449679286	210121.4549487016
0.7366228949920899	209828.64092496232
0.7367456654745885	209535.77809888576
0.7368684564188344	209243.7304559521
0.7369912678282374	208952.12244939423
0.7371140997062088	208660.46584150178
0.7372369520561599	208368.7606241744
0.7373598248815024	208077.00678931145
0.7374827181856494	207785.20432880888
0.7376056319720137	207493.35323456285
0.7377285662440091	207201.45349846774
0.7378515210050496	206809.71621564036
0.7379744962585505	206387.89019995116
0.738097492007927	205965.99387992613
0.7382205082565949	205544.02724384802
0.738343545007971	205121.99027999732
0.7384666022654723	204699.8829766522
0.7385896800325165	204277.7053220905
0.7387127783125219	203855.45730458584
0.7388358971089073	203496.54394662677
0.7389590364250921	203143.93045208187
0.7390821962644963	202791.25818862094
0.7392053766305403	202438.52714644995
0.7393285775266454	202085.73731577166
0.7394517989562333	201732.88868678795
0.7395750409227259	201379.98124969995
0.7396983034295463	201015.58448790153
0.739821586480118	200396.8468627648
0.7399448900778645	199778.00611469176
0.7400682142262109	199159.06222649218
0.740191558928582	198540.01518097855
0.7403149241884034	197920.8649609578
0.7404383100091014	197301.6115492336
0.7405617163941028	196682.2549286078
0.7406851433468352	196002.43404228712
0.7408085908707264	195046.3626126375
0.7409320589692048	194090.13183775003
0.7410555476456997	193133.74169106598
0.7411790569036406	192177.19214602487
0.7413025867464579	191220.4831760593
0.7414261371775823	190263.61475459847
0.7415497082004452	189306.58685506813
0.7416732998184786	188359.41362805702
0.741796912035115	187433.5649205143
0.7419205448537874	186507.56190485385
0.7420441982779297	185581.4045553575
0.742167872310976	184655.09284630202
0.7422915669563612	183728.62675196177
0.7424152822175206	182802.006246606
0.7425390180978901	181875.23130449993
0.7426627746009065	181129.87888712424
0.7427865517300065	180605.75759418053
0.7429103494886282	180081.5489476874
0.7430341678802096	179557.25293308694
0.7431580069081896	179032.86953581742
0.7432818665760077	178508.39874131427
0.7434057468871037	177983.84053501248
0.7435296478449182	177459.1949023433
0.7436535694528923	176768.33475189874
0.7437775117144678	175963.64037836908
0.7439014746330868	175158.81188911168
0.7440254582121922	174353.84926177206
0.7441494624552276	173548.75247399422
0.7442734873656368	172743.5215034186
0.7443975329468645	171938.15632768054
0.7445215992023557	171132.6569244133
0.7446456861355559	170204.17033250065
0.7447697937499119	169230.27323217323
0.7448939220488703	168256.2138156626
0.7450180710358784	167281.99205591678
0.7451422407143843	166307.60792587753
0.7452664310878367	165333.0613984824
0.7453906421596846	164358.35244666704
0.7455148739333779	163383.48104335938
0.7456391264123667	162323.66242149752
0.7457633996001021	161250.1105521042
0.7458876935000356	160176.37975739734
0.7460120081156189	159102.47000756013
0.7461363434503048	158028.38127276406
0.7462606995075466	156954.11352317792
0.7463850762907978	155879.66672896847
0.7465094738035127	154805.00719568596
0.7466338920491467	153721.36207833127
0.746758331031155	152637.53635345597
0.7468827907529935	151553.52999096113
0.7470072712181189	150469.3429607392
0.7471317724299886	149384.97523267867
0.7472562943920602	148300.42677666424
0.7473808371077922	147215.69756257284
0.7475054005806435	146120.5518709565
0.7476299848140736	144962.1758230111
0.7477545898115426	143803.60671239076
0.7478792155765113	142644.8445069184
0.7480038621124406	141485.88917441267
0.7481285294227926	140326.74068268517
0.7482532175110298	139167.39899954112
0.7483779263806148	138007.86409278485
0.7485026560350116	136832.2485284963
0.7486274064776842	135613.43837053582
0.748752177712097	134394.42507755122
0.7488769697417158	133175.20861568188
0.749001782570006	131955.78895107037
0.7491266162004343	130736.16604984844
0.7492514706364677	129516.33987814243
0.7493763458815739	128296.31040207323
0.7495012419392209	127041.98453206808
0.7496261588128773	125738.43677734118
0.7497510965060128	124434.67176465425
0.7498760550220971	123130.68945779902
0.7500010343646007	121826.48982055912
0.7501260345369949	120522.07281671236
0.750251055542751	119217.4384100331
0.7503760973853414	117912.58656428526
0.7505011600682389	116579.93790636979
0.750626243594917	115224.03902469421
0.7507513479688495	113867.91415987375
0.7508764731935109	112511.56327424201
0.7510016192723765	111154.98633012899
0.7511267862089218	109798.1832898599
0.7512519740066232	108441.15411575025
0.7513771826689577	107083.89877011083
0.7515024121994025	105723.74538725908
0.7516276626014359	104362.11955581838
0.751752933878536	103000.2667867415
0.7518782260341824	101638.18704220264
0.7520035390718548	100275.88028437243
0.7521288729950334	98913.3464754166
0.7522542278071992	97550.58557749251
0.7523796035118337	96187.59755275144
0.7525050001124189	94795.09569701119
0.7526304176124378	93395.99256267841
0.7527558560153731	91996.65624449169
0.752881315324709	90597.08670358392
0.7530067955439299	89197.2839010855
0.7531322966765205	87797.24779812185
0.7532578187259665	86396.9783558073
0.7533833616957542	84996.47553525241
0.75350892558937	83590.86334251458
0.7536345104103016	82184.78759973416
0.7537601161620366	80778.47751099736
0.7538857428480638	79371.93303724438
0.7540113904718717	77965.15413941427
0.7541370590369503	76558.14077843483
0.7542627485467898	75150.89291522767
0.7543884590048808	73748.77289142963
0.7545141904147151	72399.89344911218
0.7546399427797842	71050.78919355651
0.7547657161035808	69701.46008729137
0.754891510389598	68351.90609284193
0.7550173256413296	67002.1271727262
0.7551431618622698	65652.12328945745
0.7552690190559135	64301.89440554178
0.7553948972257561	62958.24872111623
0.7555207963752938	61637.23178631509
0.755646716508023	60315.99468202557
0.755772657627441	58994.53737155156
0.7558986197370455	57672.859818192264
0.756024602840335	56350.961985241076
0.7561506069408084	55028.843835984415
0.7562766320419653	53706.50533370169
0.7564026781473054	52396.39918562416
0.75652874526033	51107.98819358555
0.7566548333845401	49819.362466380946
0.7567809425234375	48530.52196822226
0.7569070726805247	47241.46666331461
0.7570332238593047	45952.196515856325
0.7571593960632813	44662.7114900389
0.7572855892959586	43373.011550050425
0.7574118035608413	42162.24955052957
0.7575380388614347	41028.72361326323
0.7576642952012449	39895.00875500693
0.7577905725837782	38761.10494427588
0.7579168710125422	37627.012149574366
0.7580431904910444	36492.73033940664
0.7581695310227928	35358.259482271984
0.7582958926112967	34223.59954665971
0.7584222752600652	33161.306531699025
0.7585486789726085	32140.517138464304
0.7586751037524372	31119.557613663656
0.7588015496030628	30098.427928940215
0.7589280165279966	29077.128055938007
0.7590545045307512	28055.657966290302
0.7591810136148396	27034.017631627674
0.7593075437837755	26012.207023574432
0.7594340950410726	25099.80425171347
0.7595606673902461	24219.04203801395
0.7596872608348112	23338.13303061127
0.7598138753782836	22457.077205041656
0.75994051102418	21575.874536833624
0.7600671677760173	20694.52500151491
0.7601938456373134	19813.028574606302
0.7603205446115863	18931.385231627042
0.7604472647023548	18178.414042591725
0.7605740059131385	17438.12196096324
0.7607007682474575	16697.706497320425
0.7608275517088319	15957.16763110198
0.7609543563007835	15216.505341737524
0.7610811820268336	14475.719608658621
0.7612080288905045	13734.810411292292
0.7613348968953197	12999.856222700862
0.7614617860448022	12389.496809710974
0.7615886963424764	11779.03567015142
0.7617156277918667	11168.472787069197
0.7618425803964988	10557.808143505958
0.7619695541598982	9947.041722502287
0.7620965490855914	9336.173507095566
0.7622235651771058	8725.203480318904
0.7623506024379685	8147.667145685212
0.7624776608717082	7717.024401957488
0.7626047404818536	7286.309884439124
0.7627318412719337	6855.52358116858
0.762858963245479	6424.6654801805535
0.7629861064060198	5993.73556950899
0.7631132707570876	5562.7338371852
0.7632404563022137	5131.660271239743
0.7633676630449308	4743.138353473437
0.7634948909887717	4445.282948469223
0.7636221401372697	4147.377900897896
0.7637494104939593	3849.4232024850266
0.7638767020623748	3551.418844956185
0.7640040148460518	3253.364820034082
0.7641313488485262	2955.26111944117
0.7642587040733344	2657.107734897821
0.7643860805240132	2406.1982226646514
0.7645134782041005	2211.682291900861
0.7646408971171346	2017.1339418151952
0.764768337266654	1822.5531670045866
0.7648957986561985	1627.93996206478
