#wavelength	surface flux
0.8	19660471.698763054
0.8002000000000001	19692869.846695926
0.8004000500000003	19709637.03845959
0.8006001500125003	19726250.452160355
0.8008003000500035	19742868.01921455
0.8010005001250161	19759489.740660515
0.8012007502500472	19776115.617536817
0.8014010504376099	19801683.93992001
0.8016014007002193	19830252.708136644
0.8018018010503944	19858828.618545335
0.8020022515006572	19887411.67293164
0.8022027520635323	19916001.87308152
0.8024033027515483	19943541.512692705
0.8026039035772362	19970051.52450881
0.8028045545531306	19996568.163827874
0.8030052556917691	20023091.43230678
0.803206007005692	20049621.331602782
0.8034068085074435	20075762.869779505
0.8036076602095705	20100803.71835701
0.8038085621246229	20125850.827146646
0.8040095142651542	20150904.19771349
0.8042105166437206	20175963.83162297
0.8044115692728815	20200828.897817843
0.8046126721651998	20217062.01531899
0.8048138253332411	20233299.191099502
0.8050150287895745	20249540.42617397
0.805216282546772	20265785.721557207
0.8054175866174087	20282035.078264277
0.8056189410140631	20299545.79463667
0.8058203457493168	20317416.785377882
0.8060218008357541	20335292.243866757
0.8062233062859632	20353172.171220258
0.8064248621125346	20371056.56855559
0.806626468328063	20391523.517281342
0.8068281249451449	20414209.841833074
0.8070298319763813	20436901.837965973
0.8072315894343755	20459599.50709789
0.8074333973317341	20482302.850647092
0.8076352556810671	20505376.885209866
0.8078371644949874	20529335.34076477
0.8080391237861113	20553299.785933565
0.8082411335670578	20577270.22221364
0.8084431938504498	20601246.65110281
0.8086453046489125	20625158.109771263
0.8088474659750746	20647754.317657147
0.8090496778415686	20670356.174595032
0.809251940261029	20692963.681997135
0.8094542532460944	20715576.84127611
0.8096566168094059	20738195.653844874
0.8098590309636085	20756960.278549075
0.8100614957213493	20774826.166739747
0.8102640110952797	20792696.52140247
0.8104665770980536	20810571.34365387
0.8106691937423283	20828450.634610835
0.8108718610407639	20848089.888779633
0.8110745790060241	20869076.386417177
0.8112773476507757	20890068.13067915
0.8114801669876885	20911065.12287718
0.8116830370294355	20932067.36432325
0.8118859577886929	20955375.086907748
0.8120889292781401	20983466.315917645
0.8122919515104597	21011564.567734793
0.8124950244983374	21039669.8441149
0.8126981482544621	21067782.146814093
0.8129013227915257	21095977.992919564
0.8131045481222237	21125057.000220023
0.8133078242592543	21154143.277272314
0.8135111512153191	21183236.825893857
0.813714529003123	21212337.647902556
0.8139179576353739	21241445.745116767
0.8141214371247829	21270835.748408463
0.8143249674840641	21300286.354393583
0.814528548725935	21329744.32303018
0.8147321808631167	21359209.65615898
0.8149358639083326	21388682.355621047
0.8151395978743097	21410744.976931386
0.8153433827737784	21427801.57594962
0.8155472186194719	21444862.439117603
0.8157511054241268	21461927.567501374
0.815955043200483	21478996.962167256
0.8161590319612831	21495587.758824654
0.8163630717192736	21511297.911273126
0.8165671624872033	21527011.991259694
0.8167713042778252	21542729.99976627
0.8169754971038948	21558451.937774986
0.8171797409781707	21570104.596761264
0.8173840359134155	21549242.475907627
0.8175883819223938	21528375.1395238
0.8177927790178745	21507502.586305864
0.8179972272126291	21486624.81494962
0.8182017265194322	21465741.82415056
0.8184062769510622	21475479.50475621
0.8186108785203001	21489932.49129832
0.8188155312399301	21504389.09108705
0.8190202351227402	21518849.30502574
0.819224990181521	21533313.134017907
0.8194297964290664	21586093.956852987
0.8196346538781738	21661981.295453824
0.8198395625416434	21737887.60588928
0.8200445224322789	21813812.892902378
0.820249533562887	21889757.161237206
0.8204545959462778	21950084.726265814
0.8206597095952644	21985262.153247476
0.8208648745226633	22020448.37458591
0.8210700907412941	22055643.392479677
0.8212753582639793	22090847.209127877
0.8214806771035456	22124363.120733712
0.8216860472728215	22147433.635204747
0.8218914687846397	22170509.917304404
0.822096941651836	22193591.968474593
0.822302465887249	22216679.790157564
0.8225080415037209	22239773.38379597
0.8227136685140968	22274137.336659
0.8229193469312254	22309788.646430243
0.8231250767679583	22345448.86902894
0.8233308580371503	22381118.006683268
0.8235366907516598	22416796.06162204
0.8237425749243477	22448942.8880882
0.8239485105680789	22479221.410594556
0.824154497695721	22509507.502731524
0.824360536320145	22539801.16639153
0.8245666264542252	22570102.403467447
0.8247727681108388	22599210.687427614
0.8249789613028664	22626606.865799364
0.8251852060431922	22654009.89321573
0.825391502344703	22681419.771388937
0.8255978502202894	22708836.502031714
0.8258042496828445	22736003.12630827
0.8260107007452654	22761928.59523924
0.8262172034204517	22787860.545537416
0.8264237577213068	22813798.978823174
0.8266303636607373	22839743.89671726
0.8268370212516525	22865695.300840814
0.8270437305069654	22887274.240815878
0.8272504914395923	22908516.38888663
0.8274573040624523	22929763.847494405
0.8276641683884679	22951016.617966816
0.8278710844305652	22972274.701631866
0.8280780522016729	22999744.80825804
0.8282850717147234	23030058.857345115
0.8284921429826521	23060380.48494443
0.8286992660183978	23090709.69295067
0.8289064408349024	23121046.483258888
0.8291136674451112	23151485.150219377
0.8293209458619727	23182050.32490706
0.8295282760984382	23212623.140888374
0.829735658167463	23243203.60007372
0.8299430920820048	23273791.70437382
0.8301505778550254	23303194.478161585
0.8303581154994891	23327843.079937883
0.8305657050283641	23352497.843864653
0.8307733464546212	23377158.771482386
0.8309810397912352	23401825.86433206
0.8311887850511829	23426499.1239549
0.8313965822474458	23460844.21247012
0.8316044313930077	23495646.52169376
0.8318123325008561	23530457.531494737
0.8320202855839813	23565277.244048145
0.8322282906553774	23600105.661529697
0.8324363477280413	23632056.943890654
0.8326444568149735	23662854.384173296
0.8328526179291771	23693659.52381597
0.8330608310836596	23724472.364743605
0.8332690962914304	23755292.908881433
0.8334774135655034	23781838.038901415
0.833685782918895	23803605.42034278
0.8338942043646247	23825378.2436295
0.834102677915716	23847156.510122053
0.834311203585195	23868940.22118121
0.8345197813860912	23894350.157793913
0.8347284113314379	23931954.329712175
0.8349370934342709	23969567.902673393
0.8351458277076294	24007190.879027806
0.8353546141645565	24044823.261126373
0.8355634528180977	24082465.051320445
0.8357723436813022	24087295.57385815
0.8359812867672226	24091722.052279413
0.8361902820889144	24096149.637320276
0.8363993296594368	24100578.329257406
0.8366084294918518	24105008.12836752
0.8368175815992247	24121629.84661465
0.8370267859946247	24142454.361050136
0.8372360426911234	24163284.081614222
0.8374453517017962	24184119.009608448
0.8376547130397217	24204959.14633467
0.8378641267179816	24231256.430013217
0.8380735927496613	24262970.02667122
0.8382831111478488	24294691.551728368
0.8384926819256358	24326421.007166766
0.8387023050961173	24358158.394969046
0.8389119806723914	24386935.898916245
0.8391217086675596	24407368.187053915
0.8393314890947265	24427805.583263602
0.8395413219670003	24448248.088822342
0.8397512072974922	24468695.70500749
0.8399611450993165	24489293.062480222
0.8401711353855914	24517077.812792372
0.8403811781694378	24544869.50929209
0.8405912734639802	24572668.153715942
0.8408014212823464	24600473.74780091
0.8410116216376671	24628286.293284398
0.8412218745430766	24654997.86114225
0.8414321800117124	24681393.741793882
0.8416425380567154	24707796.22141569
0.8418529486912297	24734205.30165741
0.8420634119284025	24760620.984169167
0.8422739277813847	24797549.54842666
0.8424844962633302	24843743.78327194
0.842695117387396	24889949.56667587
0.8429057911667428	24936166.901525654
0.8431165176145345	24982395.79070917
0.8433272967439382	25020104.406088695
0.8435381285681244	25037010.9468709
0.8437490131002665	25053921.7142883
0.8439599503535415	25070836.709397543
0.84417094034113	25087755.933255576
0.8443819830762154	25104201.16005164
0.8445930785719846	25111016.57701767
0.8448042268416277	25117833.697837934
0.8450154278983382	25124652.522938404
0.8452266817553128	25131473.05274515
0.8454379884257517	25138295.287684344
0.8456493479228583	25167689.534572802
0.845860760259839	25202526.331061844
0.846072225449904	25237371.83675001
0.8462837435062666	25272226.0538146
0.8464953144421433	25307088.98443348
0.8467069382707537	25339264.737052705
0.8469186150053215	25369347.167241525
0.847130344659073	25399437.1180379
0.8473421272452377	25429534.59132195
0.8475539627770492	25459639.588974345
0.8477658512677435	25488141.30582912
0.8479777927305605	25513229.8114632
0.8481897871787432	25538324.589223683
0.848401834625538	25563425.64067862
0.8486139350841944	25588532.96739641
0.8488260885679657	25613202.247726586
0.8490382950901076	25632461.553068742
0.8492505546638802	25651725.67323724
0.8494628673025462	25670994.609435778
0.8496752330193721	25690268.36286839
0.8498876518276269	25709546.934739336
0.8501001237405839	25737290.100643594
0.8503126487715191	25766728.9218853
0.850525226933712	25796175.102832306
0.8507378582404455	25825628.645324543
0.8509505427050057	25855089.551202424
0.8511632803406821	25893232.164621238
0.8513760711607672	25937324.64976114
0.8515889151785576	25981428.158022396
0.8518018124073523	26025542.69216068
0.8520147628604541	26069668.254932474
0.8522277665511693	26112670.76754947
0.8524408234928071	26153586.684060548
0.8526539336986805	26194512.829550765
0.8528670971821053	26235449.20657736
0.8530803139564007	26276395.817698162
0.8532935840348901	26315887.37917355
0.8535069074308987	26343013.721987747
0.8537202841577566	26370146.84638767
0.8539337142287962	26397286.75406869
0.8541471976573534	26424433.44672662
0.8543607344567677	26451586.926057715
0.8545743246403821	26476021.78374637
0.8547879682215422	26500029.923889607
0.8550016652135977	26524044.06606788
0.8552154156299011	26548064.21178169
0.8554292194838088	26572090.362531953
0.8556430767886797	26591502.00306419
0.855856987557877	26608113.04076759
0.8560709518047664	26624728.231230408
0.8562849695427177	26641347.575490847
0.8564990407851035	26657971.07458736
0.8567131655452999	26677764.65361279
0.8569273438366862	26702750.653251637
0.8571415756726455	26727742.899390403
0.8573558610665638	26752741.393590707
0.8575702000318304	26777746.137414537
0.8577845925818384	26808344.63938011
0.857999038729984	26873852.41787196
0.8582135384896665	26939376.573308416
0.858428091874289	27004917.10978374
0.8586426988972576	27070474.03139316
0.8588573595719821	27136047.342233006
0.8590720739118751	27148033.788456608
0.8592868419303532	27153703.247014202
0.8595016636408359	27159374.12293644
0.8597165390567462	27165046.416577652
0.8599314681915105	27170720.128292274
0.8601464510585584	27175757.61803112
0.860361487671323	27180457.912067268
0.8605765780432408	27185159.381176922
0.8607917221877518	27189862.025653858
0.8610069201182988	27194565.84579191
0.8612221718483286	27147949.89439643
0.8614374773912907	27027336.197939042
0.8616528367606385	26906692.34805757
0.8618682499698288	26786018.337213553
0.8620837170323213	26665314.157866843
0.8622992379615795	26564584.591717727
0.8625148127710699	26562825.88093143
0.8627304414742627	26561066.73046744
0.8629461240846313	26559307.140215833
0.8631618606156526	26557547.11006666
0.8633776510808066	26555786.639909953
0.8635934954935769	26727607.096282855
0.8638093938674504	26913699.286339395
0.8640253462159173	27099837.99944344
0.8642413525524714	27286023.24722576
0.8644574128906095	27472255.041319985
0.8646735272438323	27497739.790898215
0.8648896956256433	27448457.431138612
0.8651059180495498	27399162.750789065
0.8653221945290621	27349855.746769477
0.8655385250776946	27300536.415998816
0.8657549097089641	27302794.218261078
0.8659713484363913	27371098.438114636
0.8661878412735006	27439419.73402319
0.866404388233819	27507758.11025571
0.8666209893308775	27576113.57108226
0.8668376445782103	27635406.013032623
0.8670543539893549	27657652.748970628
0.8672711175778525	27679905.046592634
0.8674879353572469	27702162.90728902
0.8677048073410862	27724426.33245059
0.8679217335429217	27746695.323468465
0.8681387139763074	27760000.15635129
0.8683557486548015	27772862.72233772
0.8685728375919655	27785728.50396566
0.8687899808013633	27798597.50203898
0.8690071782965637	27811469.717361834
0.869224430091138	27814893.85103143
0.8694417361986609	27814473.118831437
0.8696590966327107	27814052.28144839
0.869876511406869	27813631.338855997
0.8700939805347206	27813210.291027956
0.8703115040298544	27818024.286684588
0.870529081905862	27828824.775329664
0.8707467141763385	27839627.9640969
0.8709644008548827	27850433.853661325
0.8711821419550964	27861242.444698136
0.8713999374905854	27882010.473683644
0.871617787474958	27937147.844525088
0.8718356919218269	27992298.99970929
0.8720536508448075	28047463.942682296
0.8722716642575187	28102642.676891007
0.8724897321735832	28157835.2057833
0.8727078546066265	28199328.66071553
0.8729260315702784	28240623.871243484
0.873144263078171	28281929.405574027
0.8733625491439405	28323245.266288154
0.8735808897812266	28364571.455967475
0.8737992850036719	28385990.343674455
0.874017734824923	28400360.08781178
0.8742362392586293	28414733.42438513
0.874454798318444	28429110.354292627
0.8746734120180236	28443490.878432598
0.8748920803710283	28463017.058930054
0.875110803391121	28487715.402535003
0.8753295810919689	28512419.920725863
0.875548413487242	28537130.615046278
0.8757673005906139	28561847.487040266
0.8759862424157616	28597945.253828973
0.8762052389763657	28666965.321384322
0.8764242902861098	28736002.643956516
0.8766433963586814	28805057.22585937
0.8768625572077712	28874129.07140772
0.8770817728470732	28942930.261588275
0.8773010432902849	28989268.325022515
0.8775203685511077	29035617.97297268
0.8777397486432454	29081979.208334774
0.8779591835804065	29128352.034005765
0.8781786733763015	29174736.452883113
0.8783982180446457	29153871.90137277
0.878617817599157	29112993.37238936
0.8788374720535569	29072104.623773728
0.8790571814215703	29031205.652970947
0.8792769457169257	28990296.457425464
0.879496764953355	28973267.34191952
0.8797166391445934	28977712.92457554
0.8799365683043796	28982159.618627224
0.8801565524464557	28986607.424352422
0.8803765915845676	28991056.342029054
0.8805966857324639	29019455.84116741
0.880816834903897	29108016.327135265
0.881037039112623	29196598.95322465
0.8812572983724012	29285203.72497055
0.8814776126969944	29373830.64790942
0.8816979821001687	29459822.1596379
0.8819184065956938	29483275.57259181
0.8821388861973429	29506734.84889899
0.8823594209188923	29530199.99002522
0.882580010774122	29553670.997436717
0.8828006557768155	29577147.872600086
0.8830213559407598	29634904.211881213
0.8832421112797452	29701295.14726582
0.8834629218075651	29767702.68038424
0.8836837875380171	29834126.81538596
0.8839047084849018	29900567.556421436
0.884125684662023	29904734.57093429
0.8843467160831886	29858984.877720904
0.8845678027622095	29813223.747084215
0.8847889447129001	29767451.17616486
0.8850101419490785	29721667.162102785
0.8852313944845657	29728009.487453006
0.885452702333187	29848476.615925558
0.8856740655087704	29968973.861180212
0.8858954840251476	30089501.230746146
0.8861169578961539	30210058.732154414
0.886338487135628	30318788.273071248
0.886560071757412	30269744.437261228
0.8867817117753515	30220688.34049226
0.8870034072032955	30171619.979699075
0.8872251580550963	30122539.35181575
0.8874469643446101	30073446.45377542
0.8876688260856963	30107035.564888272
0.8878907432922178	30157747.714806087
0.8881127159780409	30208472.54276135
0.8883347441570356	30259210.05192366
0.8885568278430749	30309960.245463207
0.8887789670500358	30337534.764885645
0.8890011617917983	30348666.9653105
0.8892234120822464	30359801.94878546
0.8894457179352669	30370939.716006283
0.8896680793647509	30382080.26766892
0.8898904963845921	30401101.23771528
0.8901129690086883	30435157.694599308
0.8903354972509405	30469222.665597547
0.8905580811252535	30503296.15283856
0.8907807206455347	30537378.15845134
0.8910034158256963	30569339.320607785
0.8912261666796527	30582278.42430368
0.8914489732213227	30595220.7627755
0.8916718354646282	30608166.336831953
0.8918947534234944	30621115.147281907
0.8921177271118502	30634067.194934465
0.8923407565436284	30676700.66227371
0.8925638417327644	30724186.10639866
0.8927869826931977	30771683.42188466
0.8930101794388711	30819192.611699525
0.8932334319837308	30866713.678811837
0.8934567403417267	30917387.122815777
0.8936801045268123	30970024.68414944
0.8939035245529441	31022675.4048734
0.8941270004340824	31075339.288277563
0.894350532184191	31128016.33765256
0.8945741198172371	31177030.94779908
0.8947977633471915	31219962.253356375
0.8950214627880284	31262904.29174006
0.8952452181537254	31305857.065633316
0.8954690294582639	31348820.57772007
0.8956928967156286	31388548.679467667
0.8959168199398075	31407220.34821234
0.8961407991447926	31425896.684874203
0.8963648343445789	31444577.690620232
0.896588925553165	31463263.366617687
0.8968130727845534	31481953.71403414
0.8970372760527496	31530330.590212297
0.8972615353717629	31582433.358554702
0.8974858507556059	31634549.152589202
0.8977102222182949	31686677.975572195
0.8979346497738496	31738819.830760963
0.8981591334362931	31786238.814985916
0.8983836732196523	31831079.69808968
0.8986082691379572	31875931.791414198
0.8988329212052417	31920795.09776204
0.8990576294355432	31965669.619936515
0.8992823938429022	31986477.457526222
0.8995072144413631	31971489.714826975
0.8997320912449734	31956498.225192055
0.8999570242677847	31941502.987684734
0.9001820135238516	31926504.00136803
0.9004070590272328	31919818.260652203
0.9006321607919896	31956731.375565298
0.9008573188321878	31993653.71875716
0.9010825331618959	32030585.292534802
0.9013078037951865	32067526.099205893
0.9015331307461353	32104476.141078632
0.9017585140288219	32149434.898371812
0.9019839536573292	32195093.91112132
0.9022094496457435	32240764.338623986
0.9024350020081551	32286446.183733575
0.9026606107586572	32332139.44930443
0.902886275911347	32378494.23266701
0.9031119974803249	32425173.995513316
0.9033377754796951	32471865.428300332
0.903563609923565	32518568.533945523
0.903789500826046	32565283.31536716
0.9040154482012526	32601955.595454387
0.904241452063303	32625612.731260844
0.9044675124263188	32649275.78135125
0.9046936293044254	32672944.747204177
0.9049198027117517	32696619.630298577
0.9051460326624297	32720570.189700052
0.9053723191705955	32745675.42729921
0.9055986622503881	32770786.94120774
0.9058250619159507	32795904.73299475
0.9060515181814298	32821028.80422972
0.9062780310609752	32846159.156482484
0.9065046005687405	32878347.933965717
0.906731226718883	32910938.176831584
0.9069579095255627	32943536.567258123
0.907184649002944	32976143.10728227
0.907411445165195	33008757.798941456
0.9076382980264862	33015396.15241726
0.907865207600993	33011244.85413909
0.9080921739028933	33007092.51803635
0.9083191969463691	33002939.143849585
0.9085462767456058	32998784.73131927
0.9087734133147922	33037429.270607397
0.9090006066681211	33125517.990483277
0.909227856819788	33213628.732539006
0.9094551637839932	33301761.502280373
0.9096825275749393	33389916.305214148
0.9099099482068329	33459452.069110017
0.9101374256938848	33462754.50343489
0.9103649600503083	33466057.763368346
0.9105925512903209	33469361.849116784
0.9108201994281437	33472666.76088666
0.9110479044780008	33475972.498884477
0.9112756664541204	33511982.38192705
0.911503485370734	33548749.84063792
0.9117313612420768	33585526.49121347
0.9119592940823873	33622312.33595165
0.912187283905908	33659107.37715103
0.9124153307268845	33680327.0327815
0.9126434345595664	33695895.70015779
0.9128715954182063	33711468.259700924
0.9130998133170609	33727044.71238395
0.9133280882703902	33742625.05918014
0.913556420292458	33767336.655488424
0.9137848093975312	33801467.6050837
