#wavelength	surface flux
0.8	435494.74090468837
0.8002000000000001	436901.11515854043
0.8004000500000003	438545.0246665059
0.8006001500125003	440191.7409403501
0.8008003000500035	441838.86889326293
0.8010005001250161	443486.4086281647
0.8012007502500472	445134.3602479978
0.8014010504376099	446476.89019725984
0.8016014007002193	447717.3108469791
0.8018018010503944	448958.0416018607
0.8020022515006572	450199.08253943163
0.8022027520635323	451440.4337372359
0.8024033027515483	452692.1410397684
0.8026039035772362	453954.00572920317
0.8028045545531306	455216.1858848104
0.8030052556917691	456478.6815854572
0.803206007005692	457741.49291002797
0.8034068085074435	459067.9518699051
0.8036076602095705	460572.27114106604
0.8038085621246229	462076.9664920436
0.8040095142651542	463582.0380168598
0.8042105166437206	465087.48580955673
0.8044115692728815	466588.23670144565
0.8046126721651998	467871.1528114871
0.8048138253332411	469154.389650555
0.8050150287895745	470437.9472988338
0.805216282546772	471721.8258365244
0.8054175866174087	473006.02534384874
0.8056189410140631	474263.05506024434
0.8058203457493168	475512.6173431081
0.8060218008357541	476762.49201654096
0.8062233062859632	478012.67915864283
0.8064248621125346	479263.17884752934
0.806626468328063	480660.3166226667
0.8068281249451449	482183.47955192043
0.8070298319763813	483707.0232719083
0.8072315894343755	485230.94787782506
0.8074333973317341	486755.25346489385
0.8076352556810671	488006.41897435754
0.8078371644949874	488599.4861845367
0.8080391237861113	489192.7016615186
0.8082411335670578	489786.0654423693
0.8084431938504498	490379.5775641659
0.8086453046489125	490957.96874464373
0.8088474659750746	491252.2171529396
0.8090496778415686	491546.53912333795
0.809251940261029	491840.93467422866
0.8094542532460944	492135.4038240073
0.8096566168094059	492429.9465910731
0.8098590309636085	492947.6933980103
0.8100614957213493	493517.7951346697
0.8102640110952797	494088.0393967633
0.8104665770980536	494658.4262199227
0.8106691937423283	495228.9556397881
0.8108718610407639	495961.63866914005
0.8110745790060241	496818.3861600976
0.8112773476507757	497675.34783792874
0.8114801669876885	498532.5237561791
0.8116830370294355	499389.9139684085
0.8118859577886929	500100.92235136573
0.8120889292781401	500507.621816817
0.8122919515104597	500914.4229571346
0.8124950244983374	501321.3257977373
0.8126981482544621	501728.3303640501
0.8129013227915257	502174.24701591843
0.8131045481222237	503064.65940949507
0.8133078242592543	503955.29440617014
0.8135111512153191	504846.1520615942
0.813714529003123	505737.2324314322
0.8139179576353739	506628.53557136277
0.8141214371247829	510457.4506073518
0.8143249674840641	514856.93201917934
0.814528548725935	519257.51330135716
0.8147321808631167	523659.19472886145
0.8149358639083326	528061.9765767213
0.8151395978743097	530927.6126020134
0.8153433827737784	532754.6611494777
0.8155472186194719	534582.1664590782
0.8157511054241268	536410.1286450058
0.815955043200483	538238.547821481
0.8161590319612831	539836.7154243598
0.8163630717192736	541012.5370382194
0.8165671624872033	542188.6526074812
0.8167713042778252	543365.0622056365
0.8169754971038948	544541.765906192
0.8171797409781707	545611.7151529817
0.8173840359134155	545827.3295223174
0.8175883819223938	546042.9977952453
0.8177927790178745	546258.7199852414
0.8179972272126291	546474.4961057851
0.8182017265194322	546690.3261703588
0.8184062769510622	548981.7458977485
0.8186108785203001	551593.1327056469
0.8188155312399301	554205.1723602437
0.8190202351227402	556817.8650247571
0.819224990181521	559431.210862435
0.8194297964290664	561191.1778538758
0.8196346538781738	562436.8184538314
0.8198395625416434	563682.7704639365
0.8200445224322789	564929.0339620446
0.820249533562887	566175.6090260269
0.8204545959462778	567520.9432375949
0.8206597095952644	569025.0623823792
0.8208648745226633	570529.5575569508
0.8210700907412941	572034.4288553158
0.8212753582639793	573539.676371504
0.8214806771035456	574577.339052539
0.8216860472728215	572732.0503452601
0.8218914687846397	570886.3003158042
0.822096941651836	569040.08884884
0.822302465887249	567193.4158290101
0.8225080415037209	565346.2811409243
0.8227136685140968	567240.0114853098
0.8229193469312254	569558.9340492642
0.8231250767679583	571878.4363438603
0.8233308580371503	574198.5185140289
0.8235366907516598	576519.1807047416
0.8237425749243477	579176.6073523037
0.8239485105680789	582012.8819408445
0.824154497695721	584849.8655980306
0.824360536320145	587687.5585011316
0.8245666264542252	590525.9608274582
0.8247727681108388	593009.4312111455
0.8249789613028664	594984.1768362601
0.8251852060431922	596959.4161477827
0.825391502344703	598935.1492691323
0.8255978502202894	600911.376323764
0.8258042496828445	602791.1270796859
0.8260107007452654	604200.4044129174
0.8262172034204517	605610.0340654808
0.8264237577213068	607020.0161254576
0.8266303636607373	608430.3506809501
0.8268370212516525	609841.0378200808
0.8270437305069654	609782.0740278834
0.8272504914395923	609608.2242669237
0.8274573040624523	609434.3310435239
0.8276641683884679	609260.3943468182
0.8278710844305652	609086.4141659383
0.8280780522016729	610173.7116783808
0.8282850717147234	611837.8285946444
0.8284921429826521	613502.3615401355
0.8286992660183978	615167.3106188641
0.8289064408349024	616832.6759348614
0.8291136674451112	617918.8678028015
0.8293209458619727	618274.4975371608
0.8295282760984382	618630.2161789531
0.829735658167463	618986.0237504062
0.8299430920820048	619341.9202737517
0.8301505778550254	619724.2488200135
0.8303581154994891	620211.8157703532
0.8305657050283641	620699.504612431
0.8307733464546212	621187.3153767189
0.8309810397912352	621675.2480936988
0.8311887850511829	622163.3027938567
0.8313965822474458	625626.8736549887
0.8316044313930077	629229.4141902985
0.8318123325008561	632832.8553607455
0.8320202855839813	636437.1973914832
0.8322282906553774	640042.4405077291
0.8324363477280413	641734.7258188934
0.8326444568149735	642656.9212731755
0.8328526179291771	643579.34727632
0.8330608310836596	644502.0038859667
0.8332690962914304	645424.8911597646
0.8334774135655034	646163.6727657836
0.833685782918895	646696.729266551
0.8338942043646247	647229.9190314432
0.834102677915716	647763.242093777
0.834311203585195	648296.698486876
0.8345197813860912	649442.22894707
0.8347284113314379	652647.8954224399
0.8349370934342709	655854.3633144269
0.8351458277076294	659061.632823383
0.8353546141645565	662269.7041497217
0.8355634528180977	665478.5774938907
0.8357723436813022	662954.0916601975
0.8359812867672226	660358.1724225157
0.8361902820889144	657761.604205026
0.8363993296594368	655164.386845481
0.8366084294918518	652566.5201815953
0.8368175815992247	654140.1844772047
0.8370267859946247	657151.1839807602
0.8372360426911234	660162.9362341906
0.8374453517017962	663175.4414256841
0.8376547130397217	666188.6997434751
0.8378641267179816	668347.5119309817
0.8380735927496613	669658.2836624024
0.8382831111478488	670969.3830867553
0.8384926819256358	672280.8102859636
0.8387023050961173	673592.5653419727
0.8389119806723914	674861.8601786088
0.8391217086675596	676011.0524804895
0.8393314890947265	677160.5320804447
0.8395413219670003	678310.2990503001
0.8397512072974922	679460.3534618989
0.8399611450993165	680659.5298112589
0.8401711353855914	684284.1060060194
0.8403811781694378	687909.5883448276
0.8405912734639802	691535.9770542214
0.8408014212823464	695163.2723607942
0.8410116216376671	698791.4744911933
0.8412218745430766	701862.7730861906
0.8414321800117124	704772.5381504957
0.8416425380567154	707683.0306560682
0.8418529486912297	710594.250784768
0.8420634119284025	713506.1987184974
0.8422739277813847	715438.4719880675
0.8424844962633302	716507.4555470181
0.842695117387396	717576.706351857
0.8429057911667428	718646.2244693972
0.8431165176145345	719716.0099664674
0.8433272967439382	720880.6367579876
0.8435381285681244	722276.2465470051
0.8437490131002665	723672.2052384696
0.8439599503535415	725068.5129196062
0.84417094034113	726465.1696776641
0.8443819830762154	727879.8146027538
0.8445930785719846	729650.1524092603
0.8448042268416277	731420.9328002172
0.8450154278983382	733192.1558862717
0.8452266817553128	734963.8217780977
0.8454379884257517	736735.9305863966
0.8456493479228583	738655.1854627668
0.845860760259839	740610.2480082386
0.846072225449904	742565.7993193469
0.8462837435062666	744521.8395182833
0.8464953144421433	746478.3687272705
0.8467069382707537	748084.4320437693
0.8469186150053215	749417.3382127313
0.847130344659073	750750.5776082359
0.8473421272452377	752084.1503135881
0.8475539627770492	753418.056412118
0.8477658512677435	754901.1767712957
0.8479777927305605	756700.7966507174
0.8481897871787432	758500.8664351085
0.848401834625538	760301.3862369467
0.8486139350841944	762102.3561687341
0.8488260885679657	763877.0544100525
0.8490382950901076	765326.4654495405
0.8492505546638802	766776.2388417892
0.8494628673025462	768226.3746773853
0.8496752330193721	769676.8730469425
0.8498876518276269	771127.7340410902
0.8501001237405839	771520.8188581173
0.8503126487715191	771702.7788395098
0.850525226933712	771884.7843108975
0.8507378582404455	772066.835283653
0.8509505427050057	772248.9317691518
0.8511632803406821	772894.6645194999
0.8513760711607672	773858.0334691901
0.8515889151785576	774821.6432611193
0.8518018124073523	775785.4939554957
0.8520147628604541	776749.585612545
0.8522277665511693	778372.602299511
0.8524408234928071	781214.1811918494
0.8526539336986805	784056.4704789118
0.8528670971821053	786899.470338296
0.8530803139564007	789743.1809476418
0.8532935840348901	792564.7195586094
0.8535069074308987	795193.7055506578
0.8537202841577566	797823.3487892065
0.8539337142287962	800453.649438565
0.8541471976573534	803084.6076630843
0.8543607344567677	805716.2236271602
0.8545743246403821	807813.408066073
0.8547879682215422	809826.1384839783
0.8550016652135977	811839.3720844879
0.8552154156299011	813853.1089933978
0.8554292194838088	815867.3493365363
0.8556430767886797	817643.4320538413
0.855856987557877	819275.0500231533
0.8560709518047664	820907.0758969567
0.8562849695427177	822539.5097772292
0.8564990407851035	824172.3517659722
0.8567131655452999	825806.6291308957
0.8569273438366862	827442.9981104132
0.8571415756726455	829079.7761821758
0.8573558610665638	830716.963448457
0.8575702000318304	832354.5600115529
0.8577845925818384	834008.8232007173
0.857999038729984	835765.0485842788
0.8582135384896665	837521.7130241857
0.858428091874289	839278.8166302027
0.8586426988972576	841036.3595121207
0.8588573595719821	842794.3417797599
0.8590720739118751	844385.9507383094
0.8592868419303532	845958.289870995
0.8595016636408359	847531.0220884638
0.8597165390567462	849104.1474889865
0.8599314681915105	850677.6661708596
0.8601464510585584	852204.3003309959
0.860361487671323	853706.2213696364
0.8605765780432408	855208.5178885361
0.8607917221877518	856711.1899815667
0.8610069201182988	858214.2377426203
0.8612221718483286	859157.1577765215
0.8614374773912907	859292.2719079051
0.8616528367606385	859427.4198178215
0.8618682499698288	859562.6015147154
0.8620837170323213	859697.8170070335
0.8622992379615795	860084.5991699174
0.8625148127710699	861716.2178186894
0.8627304414742627	863348.2443721239
0.8629461240846313	864980.6789321969
0.8631618606156526	866613.5216009101
0.8633776510808066	868246.7724802902
0.8635934954935769	870981.4111703591
0.8638093938674504	873806.9828008196
0.8640253462159173	876633.2608241875
0.8642413525524714	879460.2454170613
0.8644574128906095	882287.9367560827
0.8646735272438323	884009.3147648167
0.8648896956256433	885216.3280262755
0.8651059180495498	886423.6430410497
0.8653221945290621	887631.2598845765
0.8655385250776946	888839.178632316
0.8657549097089641	890588.4534232385
0.8659713484363913	893030.8336715447
0.8661878412735006	895473.824514914
0.866404388233819	897917.4261059938
0.8666209893308775	900361.6385974702
0.8668376445782103	902614.1682089963
0.8670543539893549	904082.4117958663
0.8672711175778525	905551.0224436342
0.8674879353572469	907020.0002440623
0.8677048073410862	908489.3452889412
0.8679217335429217	909959.0576700821
0.8681387139763074	911363.4565057222
0.8683557486548015	912764.9435776407
0.8685728375919655	914166.7810213288
0.8687899808013633	915568.9689243748
0.8690071782965637	916971.5073743983
0.869224430091138	919065.2784202364
0.8694417361986609	921440.6919054739
0.8696590966327107	923816.6992440822
0.869876511406869	926193.3005845253
0.8700939805347206	928570.4960753024
0.8703115040298544	930888.8854784244
0.870529081905862	933139.942653205
0.8707467141763385	935391.5625922786
0.8709644008548827	937643.7454363368
0.8711821419550964	939896.4913261047
0.8713999374905854	942067.247210906
0.871617787474958	943953.6260782626
0.8718356919218269	945840.4765403375
0.8720536508448075	947727.7987150283
0.8722716642575187	949615.5927202617
0.8724897321735832	951503.8586739971
0.8727078546066265	953160.8545620748
0.8729260315702784	954814.7391410928
0.873144263078171	956469.0371912536
0.8733625491439405	958123.7488159273
0.8735808897812266	959778.8741185078
0.8737992850036719	960837.8632673839
0.874017734824923	961685.828985495
0.8742362392586293	962534.0066950354
0.874454798318444	963382.396449003
0.8746734120180236	964230.9983004091
0.8748920803710283	965303.3773317622
0.875110803391121	966600.6860097232
0.8753295810919689	967898.3190148545
0.875548413487242	969196.2764282371
0.8757673005906139	970494.558330973
0.8759862424157616	972117.6119944256
0.8762052389763657	974679.874677802
0.8764242902861098	977242.7779268475
0.8766433963586814	979806.3219017058
0.8768625572077712	982370.5067625586
0.8770817728470732	984921.4934172605
0.8773010432902849	986392.5839135865
0.8775203685511077	987864.0421825385
0.8777397486432454	989335.868316056
0.8779591835804065	990808.0624061086
0.8781786733763015	992280.6245446819
0.8783982180446457	993094.7674690527
0.878617817599157	993713.1370047996
0.8788374720535569	994331.6611329301
0.8790571814215703	994950.3398920924
0.8792769457169257	995569.1733209445
0.879496764953355	995391.1410596181
0.8797166391445934	994496.4906027019
0.8799365683043796	993601.6164831715
0.8801565524464557	992706.5186451111
0.8803765915845676	991811.1970325904
0.8805966857324639	992453.8562055602
0.880816834903897	996960.1849035886
0.881037039112623	1001467.6401837935
0.8812572983724012	1005976.222327818
0.8814776126969944	1010485.9316173805
0.8816979821001687	1014846.2841125077
0.8819184065956938	1015665.3027862775
0.8821388861973429	1016484.5262147165
0.8823594209188923	1017303.9544490118
0.882580010774122	1018123.5875403654
0.8828006557768155	1018943.4255399922
0.8830213559407598	1020219.0064040279
0.8832421112797452	1021609.478570401
0.8834629218075651	1023000.2983548148
0.8836837875380171	1024391.4658441752
0.8839047084849018	1025782.9811254081
0.884125684662023	1027130.6078066488
0.8843467160831886	1028443.1215064413
0.8845678027622095	1029755.9633346586
0.8847889447129001	1031069.1333733333
0.8850101419490785	1032382.6317045174
0.8852313944845657	1033931.2456512618
0.885452702333187	1035994.167225184
0.8856740655087704	1038057.6045294995
0.8858954840251476	1040121.5576931405
0.8861169578961539	1042186.0268450713
0.886338487135628	1044030.2627417268
0.886560071757412	1042937.3579900461
0.8867817117753515	1041844.1800121774
0.8870034072032955	1040750.7287398139
0.8872251580550963	1039657.0041046335
0.8874469643446101	1038563.0060382936
0.8876688260856963	1040984.6740677746
0.8878907432922178	1044134.6162729157
0.8881127159780409	1047285.3459636063
0.8883347441570356	1050436.863336723
0.8885568278430749	1053589.16858918
0.8887789670500358	1056443.6774749428
0.8890011617917983	1059087.0920533615
0.8892234120822464	1061731.167485426
0.8894457179352669	1064375.9039363463
0.8896680793647509	1067021.3015713815
0.8898904963845921	1068620.6940242725
0.8901129690086883	1068223.4190317846
0.8903354972509405	1067826.0447205484
0.8905580811252535	1067428.5710657344
0.8907807206455347	1067030.998042507
0.8910034158256963	1066496.530212149
0.8912261666796527	1064739.3930938246
0.8914489732213227	1062981.81669122
0.8916718354646282	1061223.800894513
0.8918947534234944	1059465.3455938587
0.8921177271118502	1057706.4506793802
0.8923407565436284	1054541.3056674756
0.8925638417327644	1051146.0434715871
0.8927869826931977	1047749.9324601485
0.8930101794388711	1044352.9724209572
0.8932334319837308	1040955.1631417567
0.8934567403417267	1037655.6112607564
0.8936801045268123	1034416.8177330127
0.8939035245529441	1031177.2145068893
0.8941270004340824	1027936.8013799582
0.894350532184191	1024695.578149746
0.8945741198172371	1027492.887394225
0.8947977633471915	1040306.425572196
0.8950214627880284	1053123.167134711
0.8952452181537254	1065943.112882609
0.8954690294582639	1078766.2636169516
0.8956928967156286	1090047.6011321044
0.8959168199398075	1091305.1360066077
0.8961407991447926	1092562.98526483
0.8963648343445789	1093821.148985367
0.896588925553165	1095079.6272468332
0.8968130727845534	1096338.420127865
0.8970372760527496	1096468.0618435782
0.8972615353717629	1096456.4170448359
0.8974858507556059	1096444.7693348937
0.8977102222182949	1096433.118713024
0.8979346497738496	1096421.465178499
0.8981591334362931	1103419.6031973024
0.8983836732196523	1114252.9825193372
0.8986082691379572	1125089.0701861954
0.8988329212052417	1135927.8668749705
0.8990576294355432	1146769.373262927
0.8992823938429022	1154443.8739962236
0.8995072144413631	1157407.328425436
0.8997320912449734	1160371.523718255
0.8999570242677847	1163336.4600598966
0.9001820135238516	1166302.1376356236
0.9004070590272328	1169013.8872623926
0.9006321607919896	1170391.2511138325
0.9008573188321878	1171768.9593062368
0.9010825331618959	1173147.0119256885
0.9013078037951865	1174525.4090582954
0.9015331307461353	1175904.1507901845
0.9017585140288219	1178123.0907936925
0.9019839536573292	1180414.9242984774
0.9022094496457435	1182707.3307616366
0.9024350020081551	1185000.3103264144
0.9026606107586572	1187293.8631360827
0.902886275911347	1191952.8454338755
0.9031119974803249	1197753.0177266176
0.9033377754796951	1203554.6400624332
0.903563609923565	1209357.7128038302
0.903789500826046	1215162.2363134164
0.9040154482012526	1219452.5903743696
0.904241452063303	1221780.6628990464
0.9044675124263188	1224109.3174418537
0.9046936293044254	1226438.5541482964
0.9049198027117517	1228768.3731639166
0.9051460326624297	1231043.8969034324
0.9053723191705955	1233086.3073793573
0.9055986622503881	1235129.228457899
0.9058250619159507	1237172.6602667107
0.9060515181814298	1239216.6029334757
0.9062780310609752	1241261.056585906
0.9065046005687405	1236887.1073051207
0.906731226718883	1232153.9722999828
0.9069579095255627	1227419.6540110998
0.907184649002944	1222684.1521426444
0.907411445165195	1217947.4663987171
0.9076382980264862	1222447.2726659342
0.907865207600993	1230784.5936943623
0.9080921739028933	1239123.9990530452
0.9083191969463691	1247465.4892630663
0.9085462767456058	1255809.0648456442
0.9087734133147922	1261251.4475675023
0.9090006066681211	1263341.8679366473
0.909227856819788	1265432.810910882
0.9094551637839932	1267524.276620863
0.9096825275749393	1269616.265197271
0.9099099482068329	1272037.8578543984
0.9101374256938848	1275629.6157868698
0.9103649600503083	1279222.2716588227
0.9105925512903209	1282815.8256947428
0.9108201994281437	1286410.2781191757
0.9110479044780008	1290005.6291567106
0.9112756664541204	1293400.5898243827
0.911503485370734	1296791.7917577447
0.9117313612420768	1300183.8414915903
0.9119592940823873	1303576.7392378682
0.912187283905908	1306970.4852085838
0.9124153307268845	1304216.3016543593
0.9126434345595664	1299229.7825599657
0.9128715954182063	1294242.0168358036
0.9130998133170609	1289253.0041702078
0.9133280882703902	1284262.7442514459
0.913556420292458	1284266.7568238033
0.9137848093975312	1289422.723993998
0.9140132555998806	1294579.9801559849
0.9142417589137806	1299738.5256320122
0.9144703193535092	1304898.360744412
0.9146989369333476	1309059.2479070653
0.9149276116675811	1310204.426565277
0.9151563435704979	1311349.891518152
