#wavelength	surface flux
0.7	367559.65548263845
0.7001166666666666	368183.5735711709
0.7002333527777778	368690.2208612875
0.700350058336574	369196.9525926188
0.7004667833462966	369703.7687792381
0.7005835278101878	370210.66943522316
0.7007002917314895	370717.6545746501
0.7008170751134447	371224.7242116002
0.7009338779592968	371731.8783601562
0.7010507002722901	372124.38250041055
0.7011675420556689	372377.3277580362
0.701284403312678	372630.31517320435
0.7014012840465635	372883.3447529421
0.7015181842605713	373136.4165042764
0.701635103957948	373389.5304342357
0.701752043141941	373642.68654985004
0.701869001815798	373895.8848581506
0.7019859799827672	374261.1357686661
0.7021029776460976	374704.40048741945
0.7022199948090387	375147.7390836264
0.7023370314748403	375591.1515695993
0.7024540876467528	376034.6379576531
0.702571163328027	376478.1982601041
0.7026882585219152	376921.8324892734
0.7028053732316688	377365.5406574803
0.7029225074605406	378139.4990991941
0.7030396612117841	379041.08275423595
0.7031568344886527	379942.8166732204
0.7032740272944008	380844.70088119083
0.7033912396322832	381746.7354031964
0.7035084715055552	382648.920264288
0.7036257229174727	383551.2554895235
0.7037429938712924	384453.7411039641
0.7038602843702709	385248.0210009177
0.7039775944176659	386024.0552849756
0.7040949240167356	386800.2189080812
0.7042122731707383	387576.51189179014
0.7043296418829335	388352.93425766355
0.7044470301565806	389129.48602726444
0.70456443799494	389906.16722215974
0.7046818654012724	390682.97786392126
0.7047993123788394	391310.1743680151
0.7049167789309024	391937.3035674252
0.7050342650607243	392564.5372883694
0.7051517707715678	393191.87554826686
0.7052692960666963	393819.31836454064
0.705386840949374	394446.86575461685
0.7055044054228656	395074.5177359258
0.7056219894904361	395667.8162862214
0.7057395931553511	396042.23654568876
0.705857216420877	396416.719208533
0.7059748592902804	396791.2642851542
0.7060925217668288	397165.87178595515
0.70621020385379	397540.54172133957
0.7063279055544321	397915.2741017127
0.7064456268720246	398290.0689374832
0.7065633678098366	398703.16716708697
0.7066811283711383	399221.650463426
0.7067989085592001	399740.22017364774
0.7069167083772933	400258.87631215417
0.7070345278286895	400777.6188933507
0.707152366916661	401296.44793164416
0.7072702256444803	401815.3634414435
0.7073881040154211	402334.36543716176
0.7075060020327569	402934.35950534244
0.7076239196997625	403652.2801893033
0.7077418570197124	404370.32052671065
0.7078598139958823	405088.4805375076
0.7079777906315483	405806.7602416404
0.7080957869299869	406525.15965905663
0.7082138028944751	407243.67880970874
0.7083318385282908	407962.31771355314
0.7084498938347124	408392.65023601527
0.708567968817018	408578.52089329733
0.7086860634784875	408764.4225290225
0.7088041778224007	408950.3551483538
0.7089223118520377	409136.3187564547
0.7090404655706796	409322.3133584902
0.709158638981608	409508.3389596262
0.709276832088105	409694.3955650292
0.7093950448934531	410281.7306574396
0.7095132774009353	411060.52288975223
0.7096315296138355	411839.44492077053
0.7097498015354378	412618.49677212717
0.7098680931690269	413397.6784654582
0.7099864045178884	414176.99002240587
0.7101047355853081	414956.4314646128
0.7102230863745722	415736.00281372626
0.7103414568889679	416466.9880975479
0.7104598471317828	417187.0257906992
0.7105782571063047	417907.1834901321
0.7106966868158224	418627.4612158482
0.710815136263625	419347.8589878518
0.7109336054530023	420068.3768261512
0.7110520943872445	420789.01475075673
0.7111706030696424	421509.7727816835
0.7112891315034873	422021.3812976744
0.7114076796920712	422523.0902244776
0.7115262476386865	423024.88276943524
0.7116448353466263	423526.7589464834
0.711763442819184	424028.7187695613
0.711882070059654	424530.7622526102
0.7120007170713306	425032.8894095726
0.7121193838575091	425537.74302131275
0.7122380704214853	426070.24415780616
0.7123567767665555	426602.83404448844
0.7124755028960166	427135.5126961521
0.7125942488131658	427668.28012759064
0.7127130145213015	428201.1363536026
0.7128318000237216	428734.0813889838
0.7129506053237256	429267.11524853844
0.7130694304246129	429792.28777369426
0.7131882753296837	430289.751220787
0.7133071400422386	430787.29757845437
0.7134260245655789	431284.92686051433
0.7135449289030065	431782.6390807881
0.7136638530578235	432280.4342530983
0.7137827970333332	432778.31239127135
0.7139017608328388	433276.27350913396
0.7140207444596443	433767.9556704785
0.7141397479170543	434248.37069139705
0.7142587712083737	434728.8657814851
0.7143778143369084	435209.4409540886
0.7144968773059646	435690.0962225542
0.7146159601188489	436170.8316002311
0.7147350627788687	436651.647100471
0.7148541852893318	437132.54273662745
0.7149733276535467	437452.50696161797
0.7150924898748222	437610.16405524884
0.715211671956468	437767.84742506203
0.7153308739017941	437925.557075437
0.715450095714111	438083.2930107535
0.71556933739673	438241.0552353927
0.7156885989529628	438398.84375373594
0.7158078803861218	438556.6585701658
0.7159271816995193	438130.79333017505
0.7160465028964692	437362.25789651665
0.7161658439802853	436593.5943736193
0.7162852049542819	435824.80274013494
0.7164045858217744	435055.88297471125
0.716523986586078	434286.8350559936
0.7166434072505089	433517.6589626232
0.716762847818384	432748.354673237
0.7168823082930204	432672.982399866
0.7170017886777359	432801.7871314742
0.7171212889758488	432930.61333053757
0.7172408091906781	433059.4610006342
0.7173603493255433	433188.33014534257
0.7174799093837642	433317.2207682416
0.7175994893686615	433446.13287291117
0.7177190892835562	433575.0664629315
0.7178387091317702	435609.35611690447
0.7179583489166254	437835.2477765567
0.7180780086414448	440061.510418154
0.7181976883095517	442288.1441035248
0.7183173879242699	444515.14889451006
0.718437107488924	446742.524852961
0.7185568470068389	448970.2720407392
0.7186766064813399	451124.63986316766
0.7187963859157535	451435.4378005465
0.7189161853134061	451746.28753758164
0.719036004677625	452057.18908290623
0.7191558440117378	452368.1424451549
0.7192757033190732	452679.14763296436
0.7193955826029597	452990.2046549714
0.7195154818667269	453301.31351981574
0.7196354011137046	453553.5763146887
0.7197553403472235	453534.7045949619
0.7198752995706147	453515.8297299485
0.7199952787872098	453496.9517191242
0.720115278000341	453478.07056196476
0.7202352972133411	453459.18625794584
0.7203553364295432	453440.2988065429
0.7204753956522815	453421.4082072314
0.7205954748848902	453701.92978502397
0.7207155741307044	454642.5970040662
0.7208356933930594	455583.4210009767
0.7209558326752915	456524.4018018869
0.7210759919807375	457465.5394329318
0.7211961713127342	458406.8339202473
0.7213163706746197	459348.28528997896
0.7214365900697322	460289.8935682712
0.7215568295014103	460741.1921653979
0.721677088972994	460607.3566807552
0.7217973684878227	460473.4988901986
0.7219176680492374	460339.6187900101
0.7220379876605789	460205.7163764716
0.722158327325189	460071.7916458642
0.7222786870464099	459937.8445944684
0.7223990668275843	459803.875218564
0.7225194666720555	459991.0740854165
0.7226398865831676	460405.93995070964
0.7227603265642646	460820.8749603126
0.722880786618692	461235.87912575144
0.7230012667497951	461650.95245855086
0.7231217669609201	462066.09497023915
0.7232422872554135	462481.3066723457
0.7233628276366229	462896.5875764033
0.7234833881078956	463755.1026764383
0.7236039686725803	464782.01350364665
0.7237245693340255	465809.095482658
0.7238451900955812	466836.34864200104
0.7239658309605971	467863.7730102028
0.7240864919324239	468891.3686158006
0.7242071730144127	469919.1354873327
0.724327874209915	470947.0736533413
0.7244485955222832	469885.1500299675
0.7245693369548704	468477.48010181653
0.7246900985110294	467069.5755620129
0.7248108801941148	465661.436371449
0.7249316820074803	464253.0624910246
0.7250525039544815	462844.45388161787
0.7251733460384739	461435.6105041094
0.7252942082628137	460031.30574287084
0.7254150906308574	461392.6396942201
0.7255359931459625	462754.20053456136
0.7256569158114868	464115.98830170976
0.7257778586307888	465478.0030334867
0.7258988216072273	466840.24476771854
0.7260198047441617	468202.71354223794
0.7261408080449525	469565.40939488873
0.72626183151296	470825.2702328157
0.7263828751515454	471400.43405657826
0.7265039389640706	471975.693740978
0.726625022953898	472551.0493019922
0.7267461271243904	473126.50075560017
0.7268672514789111	473702.0481177834
0.7269883960208241	474277.6914045264
0.7271095607534942	474853.4306318176
0.7272307456802866	475380.3175686888
0.7273519508045666	475775.07129022403
0.7274731761297006	476169.89080404595
0.7275944216590555	476564.77612112014
0.7277156873959987	476959.727252414
0.7278369733438982	477354.74420889706
0.727958279506122	477749.8270015384
0.7280796058860397	478144.9756413124
0.7282009524870207	478145.21618728025
0.7283223193124353	477561.24631421256
0.7284437063656539	476977.1791128339
0.7285651136500483	476393.01456692076
0.7286865411689898	475808.7526602511
0.7288079889258514	475224.39337659563
0.7289294569240056	474639.9366997275
0.7290509451668262	474055.3826134126
0.7291724536576875	473731.0840167497
0.7292939823999636	473622.46178707463
0.7294155313970303	473513.8214536945
0.7295371006522632	473405.1630135921
0.7296586901690385	473296.4864637498
0.7297802999507332	473187.7918011492
0.7299019300007252	473079.0790227712
0.7300235803223919	472970.3481255972
0.7301452509191123	473498.8945222996
0.7302669417942654	474321.68510412495
0.7303886529512311	475144.61281771417
0.7305103843933897	475967.6776859226
0.7306321361241218	476790.8797316084
0.7307539081468093	477614.2189776366
0.7308757004648336	478437.69544687076
0.7309975130815778	479261.3091621841
0.7311193460004248	480519.12654446164
0.7312411992247582	481875.4206541717
0.7313630727579622	483231.9408128998
0.7314849666034219	484588.68705832236
0.7316068807645224	485945.6594281183
0.7317288152446498	487302.85795997654
0.7318507700471907	488660.2826915908
0.7319727451755319	490017.93366065976
0.732094740633061	489934.68851991056
0.7322167564231665	489786.5497187956
0.7323387925492371	489638.3862278804
0.7324608490146619	489490.1980430501
0.732582925822831	489341.985160189
0.7327050229771347	489193.74757518084
0.7328271404809642	489045.48528390843
0.7329492783377112	488876.4720232312
0.7330714365507675	488503.66953278065
0.7331936151235259	488130.8049085818
0.7333158140593796	487757.87814027927
0.7334380333617229	487384.88921751484
0.7335602730339499	487011.83812992973
0.7336825330794556	486638.7248671633
0.7338048135016354	486265.5494188538
0.7339271143038857	486238.36265325674
0.734049435489603	487370.67908846383
0.7341717770621846	488503.184243077
0.7342941390250283	489635.8781485487
0.7344165213815324	490768.7608363376
0.734538924135096	491901.8323379094
0.7346613472891185	493035.09268472996
0.734783790847	494168.5419082754
0.7349062548121412	494628.8375974215
0.7350287391879431	493899.04973540996
0.7351512439778078	493169.14024208655
0.7352737691851374	492439.1090971819
0.735396314813335	491708.956280419
0.7355188808658037	490978.6817715212
0.7356414673459482	490248.2855502039
0.7357640742571725	489517.7675961834
0.7358867016028818	489187.78983812145
0.7360093493864824	489253.4468901888
0.7361320176113801	489319.114885098
0.736254706280982	489384.79382467305
0.7363774153986956	489450.4837107381
0.7365001449679286	489516.1845451174
0.7366228949920899	489581.89632963575
0.7367456654745885	489647.6190661182
0.7368684564188344	489847.6712032628
0.7369912678282374	490123.67063791445
0.7371140997062088	490399.7160724719
0.7372369520561599	490675.8075146021
0.7373598248815024	490951.944971972
0.7374827181856494	491228.12845225196
0.7376056319720137	491504.357963112
0.7377285662440091	491780.63351222384
0.7378515210050496	491838.5115270386
0.7379744962585505	491830.6761602782
0.738097492007927	491822.8394876233
0.7382205082565949	491815.0015088563
0.738343545007971	491807.1622237595
0.7384666022654723	491799.3216321152
0.7385896800325165	491791.47973370564
0.7387127783125219	491783.636528313
0.7388358971089073	491844.28138145653
0.7389590364250921	491911.80599545414
0.7390821962644963	491979.34186355415
0.7392053766305403	492046.88898763206
0.7393285775266454	492114.4473695641
0.7394517989562333	492182.01701122645
0.7395750409227259	492249.5979144956
0.7396983034295463	492298.410621692
0.739821586480118	491929.46841064596
0.7399448900778645	491560.4647092321
0.7400682142262109	491191.3995072002
0.740191558928582	490822.27279430174
0.7403149241884034	490453.08456028474
0.7404383100091014	490083.83479489526
0.7405617163941028	489714.5234878785
0.7406851433468352	489236.74059591285
0.7408085908707264	488262.9282438228
0.7409320589692048	487288.9535896746
0.7410555476456997	486314.81660641654
0.7411790569036406	485340.51726699533
0.7413025867464579	484366.0555443506
0.7414261371775823	483391.4314114185
0.7415497082004452	482416.64484113164
0.7416732998184786	481463.3631763913
0.741796912035115	480556.4034059554
0.7419205448537874	479649.292475558
0.7420441982779297	478742.03036000556
0.742167872310976	477834.6170340997
0.7422915669563612	476927.05247263954
0.7424152822175206	476019.33665041934
0.7425390180978901	475111.4695422294
0.7426627746009065	474524.87745957205
0.7427865517300065	474330.02933280653
0.7429103494886282	474135.148731353
0.7430341678802096	473940.2356497994
0.7431580069081896	473745.2900827323
0.7432818665760077	473550.31202473695
0.7434057468871037	473355.30147039884
0.7435296478449182	473160.25841430173
0.7436535694528923	472661.0905496573
0.7437775117144678	471953.6789826271
0.7439014746330868	471246.1495136701
0.7440254582121922	470538.5021231344
0.7441494624552276	469830.73679136665
0.7442734873656368	469122.8534987104
0.7443975329468645	468414.8522255048
0.7445215992023557	467706.7329520871
0.7446456861355559	466721.896093456
0.7447697937499119	465635.00315973803
0.7448939220488703	464547.92907719803
0.7450180710358784	463460.6738156452
0.7451422407143843	462373.23734488204
0.7452664310878367	461285.619634706
0.7453906421596846	460197.8206549128
0.7455148739333779	459109.84037528926
0.7456391264123667	457834.1174874395
0.7457633996001021	456528.1919678745
0.7458876935000356	455222.04879405396
0.7460120081156189	453915.6879297069
0.7461363434503048	452609.1093385485
0.7462606995075466	451302.3129842904
0.7463850762907978	449995.29883064196
0.7465094738035127	448687.71230718674
0.7466338920491467	447287.16370042163
0.746758331031155	445886.3816688873
0.7468827907529935	444485.36617368273
0.7470072712181189	443084.11717589555
0.7471317724299886	441682.63463660853
0.7472562943920602	440280.9185168992
0.7473808371077922	438878.9687778354
0.7475054005806435	437447.3544029964
0.7476299848140736	435834.2181465449
0.7477545898115426	434220.8130340502
0.7478792155765113	432607.13902070303
0.7480038621124406	430993.1960616883
0.7481285294227926	429378.9841121807
0.7482532175110298	427764.5031273466
0.7483779263806148	426149.7530623505
0.7485026560350116	424469.33572280983
0.7486274064776842	422611.64067120146
0.748752177712097	420753.63600375457
0.7488769697417158	418895.3216688591
0.749001782570006	417036.6976149101
0.7491266162004343	415177.763790286
0.7492514706364677	413318.5201433569
0.7493763458815739	411458.9666224848
0.7495012419392209	409462.91943883366
0.7496261588128773	407270.7592294753
0.7497510965060128	405078.23366008047
0.7498760550220971	402885.34266975825
0.7500010343646007	400692.08619760396
0.7501260345369949	398498.46418270323
0.750251055542751	396304.4765641358
0.7503760973853414	394110.123280964
0.7505011600682389	391750.689329452
0.750626243594917	389253.3289280913
0.7507513479688495	386755.5523000008
0.7508764731935109	384257.3593758048
0.7510016192723765	381758.75008612074
0.7511267862089218	379259.72436155746
0.7512519740066232	376760.2821327058
0.7513771826689577	374260.4233301479
0.7515024121994025	371588.1958958945
0.7516276626014359	368835.34941015806
0.751752933878536	366082.0441166788
0.7518782260341824	363328.2799389831
0.7520035390718548	360574.0568005899
0.7521288729950334	357819.3746250083
0.7522542278071992	355064.2333357307
0.7523796035118337	352308.63285623677
0.7525050001124189	349278.75649454974
0.7526304176124378	346188.8261633512
0.7527558560153731	343098.38084376813
0.752881315324709	340007.42044996214
0.7530067955439299	336915.9448960894
0.7531322966765205	333823.9540962951
0.7532578187259665	330731.44796469994
0.7533833616957542	327638.42641541624
0.75350892558937	324269.5385951256
0.7536345104103016	320887.1415134822
0.7537601161620366	317504.1806989936
0.7538857428480638	314120.6560576993
0.7540113904718717	310736.5674956358
0.7541370590369503	307351.91491881275
0.7542627485467898	303966.6982332248
0.7543884590048808	300560.59812367224
0.7545141904147151	296951.30475468317
0.7546399427797842	293341.409836805
0.7547657161035808	289730.91326977336
0.754891510389598	286119.8149533141
0.7550173256413296	282508.11478713393
0.7551431618622698	278895.8126709269
0.7552690190559135	275282.90850436804
0.7553948972257561	271601.1754703152
0.7555207963752938	267689.81741193245
0.755646716508023	263777.80746054224
0.755772657627441	259865.14550749213
0.7558986197370455	255951.8314441159
0.756024602840335	252037.86516173012
0.7561506069408084	248123.24655163067
0.7562766320419653	244207.97550509265
0.7564026781473054	240169.9007299514
0.75652874526033	235916.19944845053
0.7566548333845401	231661.7892167339
0.7567809425234375	227406.66991664682
0.7569070726805247	223150.84143001214
0.7570332238593047	218894.30363863026
0.7571593960632813	214637.05642427912
0.7572855892959586	210379.0996687253
0.7574118035608413	206167.76775532836
0.7575380388614347	202002.0428409924
0.7576642952012449	197835.62363916912
0.7577905725837782	193668.51003415155
0.7579168710125422	189500.70191019238
0.7580431904910444	185332.19915154434
0.7581695310227928	181163.00164244178
0.7582958926112967	176993.10926708247
0.7584222752600652	172787.4745513593
0.7585486789726085	168561.00552672675
0.7586751037524372	164333.8320905885
0.7588015496030628	160105.95412553597
0.7589280165279966	155877.3715141643
0.7590545045307512	151648.08413902405
0.7591810136148396	147418.09188265473
0.7593075437837755	143187.39462756977
0.7594340950410726	139058.89791289612
0.7595606673902461	134959.56980985953
0.7596872608348112	130859.55848546833
0.7598138753782836	126758.86382586093
0.75994051102418	122657.48571713975
0.7600671677760173	118555.42404540365
0.7601938456373134	114452.67869671911
0.7603205446115863	110349.24955714546
0.7604472647023548	106430.47520168824
0.7605740059131385	102529.47036071432
0.7607007682474575	98627.81535226309
0.7608275517088319	94725.51006798577
0.7609543563007835	90822.55439948576
0.7610811820268336	86918.94823837669
0.7612080288905045	83014.69147624825
0.7613348968953197	79122.26654428573
0.7614617860448022	75485.30702616723
0.7615886963424764	71847.7413481241
0.7617156277918667	68209.56940913813
0.7618425803964988	64570.79110815935
0.7619695541598982	60931.40634413136
0.7620965490855914	57291.41501597874
0.7622235651771058	53650.81702260053
0.7623506024379685	50156.792325998525
0.7624776608717082	47307.29157453069
0.7626047404818536	44457.315906270815
0.7627318412719337	41606.86524207112
0.762858963245479	38755.93950275894
0.7629861064060198	35904.53860915662
0.7631132707570876	33052.66248206906
0.7632404563022137	30200.31104229623
0.7633676630449308	27604.864729762812
0.7634948909887717	25556.863512769323
0.7636221401372697	23508.520962242335
0.7637494104939593	21459.837021288327
0.7638767020623748	19410.811633013785
0.7640040148460518	17361.444740505525
0.7641313488485262	15311.736286848596
0.7642587040733344	13261.68621511373
0.7643860805240132	11615.995702699121
0.7645134782041005	10452.960798656553
0.7646408971171346	9289.732055462826
0.764768337266654	8126.309440812327
0.7648957986561985	6962.6929223923435
0.7650232812893079	5798.882467886111
0.7651507851695227	4634.878044970783
0.7652783103003843	3470.679621318446
