#wavelength	surface flux
0.8	3346316.1634113863
0.8002000000000001	3357636.6803689324
0.8004000500000003	3369145.366864022
0.8006001500125003	3380658.802641239
0.8008003000500035	3392175.116777402
0.8010005001250161	3403694.309992104
0.8012007502500472	3415216.383005093
0.8014010504376099	3425314.3257078356
0.8016014007002193	3434936.7878654753
0.8018018010503944	3444561.655638654
0.8020022515006572	3454188.9296287806
0.8022027520635323	3463818.610437396
0.8024033027515483	3473373.279146383
0.8026039035772362	3482854.468410374
0.8028045545531306	3492338.027971682
0.8030052556917691	3501823.958422885
0.803206007005692	3511312.2603566917
0.8034068085074435	3521007.031149841
0.8036076602095705	3531276.338858683
0.8038085621246229	3541548.213894445
0.8040095142651542	3551822.656898972
0.8042105166437206	3562099.6685142466
0.8044115692728815	3572325.7119688634
0.8046126721651998	3580251.5734510114
0.8048138253332411	3588179.4163985234
0.8050150287895745	3596109.24130678
0.805216282546772	3604041.0486712614
0.8054175866174087	3611974.8389875796
0.8056189410140631	3620428.3651178726
0.8058203457493168	3629030.562130034
0.8060218008357541	3637634.9096914376
0.8062233062859632	3646241.4083397356
0.8064248621125346	3654850.05861269
0.806626468328063	3664302.112556335
0.8068281249451449	3674479.062789194
0.8070298319763813	3684658.5572596234
0.8072315894343755	3694840.596603663
0.8074333973317341	3705025.1814575423
0.8076352556810671	3713636.9044219456
0.8078371644949874	3718458.510111149
0.8080391237861113	3723281.321201776
0.8082411335670578	3728105.337995173
0.8084431938504498	3732930.560792773
0.8086453046489125	3737716.151986843
0.8088474659750746	3741742.610873543
0.8090496778415686	3745770.0763749704
0.809251940261029	3749798.54874277
0.8094542532460944	3753828.0282286657
0.8096566168094059	3757858.515084428
0.8098590309636085	3763209.1215458093
0.8100614957213493	3768869.8145895554
0.8102640110952797	3774531.9228065633
0.8104665770980536	3780195.4465506277
0.8106691937423283	3785860.3861756306
0.8108718610407639	3792392.5017529572
0.8110745790060241	3799588.2513745236
0.8112773476507757	3806785.799933502
0.8114801669876885	3813985.147879618
0.8116830370294355	3821186.295662717
0.8118859577886929	3827923.934362631
0.8120889292781401	3833696.7895634756
0.8122919515104597	3839471.087978121
0.8124950244983374	3845246.82996737
0.8126981482544621	3851024.015892115
0.8129013227915257	3856915.897432388
0.8131045481222237	3864105.9968605204
0.8133078242592543	3871297.893813511
0.8135111512153191	3878491.588740738
0.813714529003123	3885687.0820916975
0.8139179576353739	3892884.374315996
0.8141214371247829	3911693.9188719797
0.8143249674840641	3932759.627938194
0.814528548725935	3953830.603431663
0.8147321808631167	3974906.846669033
0.8149358639083326	3995988.3589672064
0.8151395978743097	4010350.2611433086
0.8153433827737784	4020172.142377426
0.8155472186194719	4029996.479081848
0.8157511054241268	4039823.2718704445
0.815955043200483	4049652.521357245
0.8161590319612831	4058249.6700718203
0.8163630717192736	4064586.7908699913
0.8165671624872033	4070925.495948355
0.8167713042778252	4077265.7857029946
0.8169754971038948	4083607.6605300764
0.8171797409781707	4088898.066137195
0.8173840359134155	4085782.9326252937
0.8175883819223938	4082667.020330018
0.8177927790178745	4079550.3290566667
0.8179972272126291	4076432.8586104964
0.8182017265194322	4073314.6087967176
0.8184062769510622	4080026.974818082
0.8186108785203001	4088253.925170691
0.8188155312399301	4096482.9322608775
0.8190202351227402	4104713.9966028454
0.819224990181521	4112947.1187108937
0.8194297964290664	4129153.169244975
0.8196346538781738	4150167.6991331074
0.8198395625416434	4171187.482653704
0.8200445224322789	4192212.521120189
0.820249533562887	4213242.815846285
0.8204545959462778	4230025.305853171
0.8206597095952644	4239966.802539743
0.8208648745226633	4249910.784600493
0.8210700907412941	4259857.252656757
0.8212753582639793	4269806.207330025
0.8214806771035456	4277672.461640606
0.8216860472728215	4272693.3864118615
0.8218914687846397	4267713.066414311
0.822096941651836	4262731.501336757
0.822302465887249	4257748.690867938
0.8225080415037209	4252764.6346964985
0.8227136685140968	4264131.236121448
0.8229193469312254	4277356.962009665
0.8231250767679583	4290585.9943293575
0.8233308580371503	4303818.333907124
0.8235366907516598	4317053.981569793
0.8237425749243477	4330792.630958341
0.8239485105680789	4344799.560984968
0.824154497695721	4358809.992744093
0.824360536320145	4372823.92711116
0.8245666264542252	4386841.364961819
0.8247727681108388	4399658.320734822
0.8249789613028664	4410754.1455632085
0.8251852060431922	4421852.744347812
0.825391502344703	4432954.117782106
0.8255978502202894	4444058.2665597685
0.8258042496828445	4454582.573658721
0.8260107007452654	4462279.987866988
0.8262172034204517	4469979.326428801
0.8264237577213068	4477680.589825256
0.8266303636607373	4485383.778537562
0.8268370212516525	4493088.893047044
0.8270437305069654	4495805.797453321
0.8272504914395923	4498133.434359089
0.8274573040624523	4500461.653174083
0.8276641683884679	4502790.454043779
0.8278710844305652	4505119.837113695
0.8280780522016729	4512146.890307822
0.8282850717147234	4521322.730390542
0.8284921429826521	4530500.864433274
0.8286992660183978	4539681.293009523
0.8289064408349024	4548864.016692909
0.8291136674451112	4556154.446226592
0.8293209458619727	4561057.715527908
0.8295282760984382	4565962.210646542
0.829735658167463	4570867.931888961
0.8299430920820048	4575774.879561685
0.8301505778550254	4580963.671502778
0.8303581154994891	4587273.787385274
0.8305657050283641	4593585.480796747
0.8307733464546212	4599898.752131567
0.8309810397912352	4606213.601784232
0.8311887850511829	4612530.030149297
0.8313965822474458	4627991.533655844
0.8316044313930077	4643881.300556011
0.8318123325008561	4659775.039897918
0.8320202855839813	4675672.752674653
0.8322282906553774	4691574.439879583
0.8324363477280413	4700549.745316359
0.8326444568149735	4706737.157224177
0.8328526179291771	4712926.115984966
0.8330608310836596	4719116.621985454
0.8332690962914304	4725308.675612435
0.8334774135655034	4730859.989898686
0.833685782918895	4735695.235946688
0.8338942043646247	4740531.690806198
0.834102677915716	4745369.354779427
0.834311203585195	4750208.228168645
0.8345197813860912	4757339.3841127455
0.8347284113314379	4772184.288265687
0.8349370934342709	4787032.90364466
0.8351458277076294	4801885.231177458
0.8353546141645565	4816741.271792164
0.8355634528180977	4831601.026417018
0.8357723436813022	4824963.790705233
0.8359812867672226	4818059.416758431
0.8361902820889144	4811153.316718147
0.8363993296594368	4804245.49015285
0.8366084294918518	4797335.93663091
0.8368175815992247	4806347.412296823
0.8370267859946247	4820845.101741577
0.8372360426911234	4835346.415608686
0.8374453517017962	4849851.354804261
0.8376547130397217	4864359.920234634
0.8378641267179816	4875040.4997679535
0.8380735927496613	4881921.793280967
0.8382831111478488	4888804.807117354
0.8384926819256358	4895689.541707197
0.8387023050961173	4902575.997480693
0.8389119806723914	4909473.847295682
0.8391217086675596	4916400.642944829
0.8393314890947265	4923329.170292881
0.8395413219670003	4930259.429772773
0.8397512072974922	4937191.421817538
0.8399611450993165	4944322.722730682
0.8401711353855914	4961267.353582129
0.8403811781694378	4978216.220591283
0.8405912734639802	4995169.324817194
0.8408014212823464	5012126.667319169
0.8410116216376671	5029088.249156768
0.8412218745430766	5044139.879439179
0.8414321800117124	5058638.316637631
0.8416425380567154	5073140.378445389
0.8418529486912297	5087646.065768603
0.8420634119284025	5102155.379513635
0.8422739277813847	5112365.902667948
0.8424844962633302	5118788.3813164085
0.842695117387396	5125212.465584522
0.8429057911667428	5131638.155873704
0.8431165176145345	5138065.452585461
0.8433272967439382	5144556.714046895
0.8435381285681244	5151201.706595848
0.8437490131002665	5157848.360392937
0.8439599503535415	5164496.675853472
0.84417094034113	5171146.653392877
0.8443819830762154	5177986.328737329
0.8445930785719846	5188615.7014086
0.8448042268416277	5199247.731423033
0.8450154278983382	5209882.41944497
0.8452266817553128	5220519.76613891
0.8454379884257517	5231159.772169525
0.8456493479228583	5241757.569326601
0.845860760259839	5252347.210968594
0.846072225449904	5262939.500020997
0.8462837435062666	5273534.437145665
0.8464953144421433	5284132.02300462
0.8467069382707537	5293000.260680291
0.8469186150053215	5300520.676494719
0.847130344659073	5308042.972413105
0.8473421272452377	5315567.148905462
0.8475539627770492	5323093.20644195
0.8477658512677435	5331223.12275257
0.8479777927305605	5340633.290983726
0.8481897871787432	5350045.811756939
0.848401834625538	5359460.685660349
0.8486139350841944	5368877.91328223
0.8488260885679657	5378083.219166983
0.8490382950901076	5384678.877469625
0.8492505546638802	5391276.184686847
0.8494628673025462	5397875.14123087
0.8496752330193721	5404475.747514039
0.8498876518276269	5411078.0039487695
0.8501001237405839	5406344.291544119
0.8503126487715191	5399346.207757652
0.850525226933712	5392346.374450241
0.8507378582404455	5385344.7911845045
0.8509505427050057	5378341.457522947
0.8511632803406821	5375373.399388096
0.8513760711607672	5375169.223048137
0.8515889151785576	5374964.995664092
0.8518018124073523	5374760.717223201
0.8520147628604541	5374556.387712699
0.8522277665511693	5382709.900080489
0.8524408234928071	5406322.363580072
0.8526539336986805	5429940.730195537
0.8528670971821053	5453565.0014026575
0.8530803139564007	5477195.178677551
0.8532935840348901	5500510.805833433
0.8535069074308987	5521125.833174714
0.8537202841577566	5541746.014272848
0.8539337142287962	5562371.350416259
0.8541471976573534	5583001.842893693
0.8543607344567677	5603637.492994249
0.8545743246403821	5616772.682287937
0.8547879682215422	5628719.177182556
0.8550016652135977	5640668.658700896
0.8552154156299011	5652621.127589618
0.8554292194838088	5664576.58459557
0.8556430767886797	5674855.748166366
0.855856987557877	5684117.8656683415
0.8560709518047664	5693382.298699687
0.8562849695427177	5702649.047839293
0.8564990407851035	5711918.113666188
0.8567131655452999	5721143.01640643
0.8569273438366862	5730294.065762608
0.8571415756726455	5739447.402881129
0.8573558610665638	5748603.028333931
0.8575702000318304	5757760.942693087
0.8577845925818384	5767094.998623377
0.857999038729984	5777517.332285304
0.8582135384896665	5787942.271530643
0.858428091874289	5798369.817010796
0.8586426988972576	5808799.969377315
0.8588573595719821	5819232.729281928
0.8590720739118751	5827745.566115719
0.8592868419303532	5836033.858978569
0.8595016636408359	5844324.2239146335
0.8597165390567462	5852616.661441931
0.8599314681915105	5860911.17207861
0.8601464510585584	5866503.47771237
0.860361487671323	5870661.769203078
0.8605765780432408	5874821.100266657
0.8607917221877518	5878981.471163005
0.8610069201182988	5883142.882152075
0.8612221718483286	5860431.88246149
0.8614374773912907	5798973.488570776
0.8616528367606385	5737499.730081607
0.8618682499698288	5676010.603152775
0.8620837170323213	5614506.103942222
0.8622992379615795	5562325.632458647
0.8625148127710699	5556349.247420525
0.8627304414742627	5550371.368286144
0.8629461240846313	5544391.994681979
0.8631618606156526	5538411.126234411
0.8633776510808066	5532428.762569734
0.8635934954935769	5611822.557471191
0.8638093938674504	5698234.761549709
0.8640253462159173	5784668.568679246
0.8642413525524714	5871123.984260563
0.8644574128906095	5957601.013695757
0.8646735272438323	5965933.260588802
0.8648896956256433	5937918.047818625
0.8651059180495498	5909895.831245255
0.8653221945290621	5881866.609117767
0.8655385250776946	5853830.379684708
0.8657549097089641	5852398.395218269
0.8659713484363913	5885034.307735156
0.8661878412735006	5917678.379230188
0.866404388233819	5950330.61174309
0.8666209893308775	5982991.007314105
0.8668376445782103	6010667.95005022
0.8670543539893549	6017978.4852869185
0.8672711175778525	6025290.848157432
0.8674879353572469	6032605.039118654
0.8677048073410862	6039921.058627619
0.8679217335429217	6047238.907141467
0.8681387139763074	6063662.965759103
0.8683557486548015	6080543.4128262205
0.8685728375919655	6097428.080005125
0.8687899808013633	6114316.968350788
0.8690071782965637	6131210.078918559
0.869224430091138	6137449.121101194
0.8694417361986609	6139352.877640407
0.8696590966327107	6141257.110118753
0.869876511406869	6143161.818655219
0.8700939805347206	6145067.003368818
0.8703115040298544	6148821.961261686
0.870529081905862	6154692.139213067
0.8707467141763385	6160563.784708932
0.8709644008548827	6166436.898116171
0.8711821419550964	6172311.47980176
0.8713999374905854	6180078.401917623
0.871617787474958	6194373.320352408
0.8718356919218269	6208671.812516815
0.8720536508448075	6222973.879304264
0.8722716642575187	6237279.521608401
0.8724897321735832	6251588.740323121
0.8727078546066265	6264276.181591507
0.8729260315702784	6276942.067742671
0.873144263078171	6289611.12036536
0.8733625491439405	6302283.340251205
0.8735808897812266	6314958.728192027
0.8737992850036719	6320913.703927462
0.874017734824923	6324488.786552393
0.8742362392586293	6328064.76294798
0.874454798318444	6331641.633337665
0.8746734120180236	6335219.397944948
0.8748920803710283	6341409.105636855
0.875110803391121	6350224.215844085
0.8753295810919689	6359041.5298288725
0.875548413487242	6367861.048142157
0.8757673005906139	6376682.771335019
0.8759862424157616	6389530.774489091
0.8762052389763657	6414025.839204706
0.8764242902861098	6438527.027686483
0.8766433963586814	6463034.3414653875
0.8768625572077712	6487547.782072744
0.8770817728470732	6511866.356223754
0.8773010432902849	6520497.841903473
0.8775203685511077	6529131.4854546245
0.8777397486432454	6537767.287416654
0.8779591835804065	6546405.248329183
0.8781786733763015	6555045.368731929
0.8783982180446457	6543299.209123648
0.878617817599157	6525484.933152366
0.8788374720535569	6507666.203612101
0.8790571814215703	6489843.019389455
0.8792769457169257	6472015.379370754
0.879496764953355	6462884.105765015
0.8797166391445934	6461573.160988577
0.8799365683043796	6460261.888475944
0.8801565524464557	6458950.2881451845
0.8803765915845676	6457638.35991434
0.8805966857324639	6465282.763105061
0.880816834903897	6495425.520721958
0.881037039112623	6525575.8140282715
0.8812572983724012	6555733.6449079085
0.8814776126969944	6585899.015245278
0.8816979821001687	6615682.038729371
0.8819184065956938	6636294.474213518
0.8821388861973429	6656912.062806558
0.8823594209188923	6677534.805796726
0.882580010774122	6698162.704472632
0.8828006557768155	6718795.760123218
0.8830213559407598	6738877.942624162
0.8832421112797452	6758825.2981261145
0.8834629218075651	6778777.640466929
0.8836837875380171	6798734.970893336
0.8839047084849018	6818697.290652352
0.884125684662023	6814903.940075714
0.8843467160831886	6792068.506023202
0.8845678027622095	6769227.363112177
0.8847889447129001	6746380.509915419
0.8850101419490785	6723527.945005367
0.8852313944845657	6721615.885992958
0.885452702333187	6765552.053374118
0.8856740655087704	6809499.204797117
0.8858954840251476	6853457.343007959
0.8861169578961539	6897426.470753334
0.886338487135628	6936958.651818243
0.886560071757412	6917310.182618001
0.8867817117753515	6897656.801300459
0.8870034072032955	6877998.506637579
0.8872251580550963	6858335.297401056
0.8874469643446101	6838667.172362211
0.8876688260856963	6855553.820978445
0.8878907432922178	6880011.18778417
0.8881127159780409	6904474.668931581
0.8883347441570356	6928944.265949308
0.8885568278430749	6953419.9803662645
0.8887789670500358	6964266.456790467
0.8890011617917983	6965443.081998767
0.8892234120822464	6966620.001363371
0.8894457179352669	6967797.214957815
0.8896680793647509	6968974.722855657
0.8898904963845921	6968756.951203201
0.8901129690086883	6965876.3333190475
0.8903354972509405	6962994.995280424
0.8905580811252535	6960112.936907288
0.8907807206455347	6957230.158019563
0.8910034158256963	6952777.004668902
0.8912261666796527	6934294.799019218
0.8914489732213227	6915807.9728181185
0.8916718354646282	6897316.52491045
0.8918947534234944	6878820.4541408215
0.8921177271118502	6860319.759353513
0.8923407565436284	6851586.914577403
0.8925638417327644	6844446.043018882
0.8927869826931977	6837303.38624247
0.8930101794388711	6830158.943801863
0.8932334319837308	6823012.715250647
0.8934567403417267	6826624.69866151
0.8936801045268123	6836923.657534258
0.8939035245529441	6847225.191146719
0.8941270004340824	6857529.300142586
0.894350532184191	6867835.9851657
0.8945741198172371	6897476.630711945
0.8947977633471915	6959183.480618531
0.8950214627880284	7020905.757237592
0.8952452181537254	7082643.464425771
0.8954690294582639	7144396.606040783
0.8956928967156286	7199056.693302076
0.8959168199398075	7207598.860603928
0.8961407991447926	7216143.163447606
0.8963648343445789	7224689.602366996
0.896588925553165	7233238.17789611
0.8968130727845534	7241788.890569108
0.8970372760527496	7244072.3553218
0.8972615353717629	7245571.964548469
0.8974858507556059	7247071.948677443
0.8977102222182949	7248572.307802449
0.8979346497738496	7250073.042017237
0.8981591334362931	7274699.301954563
0.8983836732196523	7311978.319532375
0.8986082691379572	7349266.656864557
0.8988329212052417	7386564.316281072
0.8990576294355432	7423871.300112474
0.8992823938429022	7447132.338651156
0.8995072144413631	7449500.789079453
0.8997320912449734	7451869.831620355
0.8999570242677847	7454239.466421893
0.9001820135238516	7456609.6936321305
0.9004070590272328	7460920.576674048
0.9006321607919896	7475403.0110017955
0.9008573188321878	7489889.065938139
0.9010825331618959	7504378.742388211
0.9013078037951865	7518872.041257397
0.9015331307461353	7533368.963451292
0.9017585140288219	7553329.900421751
0.9019839536573292	7573766.145217496
0.9022094496457435	7594207.499074425
0.9024350020081551	7614653.963269842
0.9026606107586572	7635105.539081301
0.902886275911347	7655952.60925456
0.9031119974803249	7676993.082235935
0.9033377754796951	7698038.815335555
0.903563609923565	7719089.80986844
0.903789500826046	7740146.067149973
0.9040154482012526	7752801.2944703605
0.904241452063303	7754570.0656806575
0.9044675124263188	7756339.279083758
0.9046936293044254	7758108.934790208
0.9049198027117517	7759879.032910585
0.9051460326624297	7765025.732373607
0.9053723191705955	7784550.1881749965
0.9055986622503881	7804079.525090318
0.9058250619159507	7823613.744339869
0.9060515181814298	7843152.847144245
0.9062780310609752	7862696.834724309
0.9065046005687405	7859442.821669294
0.906731226718883	7854915.889482953
0.9069579095255627	7850387.82556357
0.907184649002944	7845858.629628208
0.907411445165195	7841328.301393856
0.9076382980264862	7856804.002750453
0.907865207600993	7880592.510427838
0.9080921739028933	7904386.965232137
0.9083191969463691	7928187.368650133
0.9085462767456058	7951993.722168994
0.9087734133147922	7970232.86188117
0.9090006066681211	7982039.486266312
0.909227856819788	7993849.062307535
0.9094551637839932	8005661.590742784
0.9096825275749393	8017477.072310138
0.9099099482068329	8029684.656296653
0.9101374256938848	8043278.332869235
0.9103649600503083	8056875.407860955
0.9105925512903209	8070475.88212142
0.9108201994281437	8084079.756500464
0.9110479044780008	8097687.031848088
0.9112756664541204	8112315.638323185
0.911503485370734	8126971.202172316
0.9117313612420768	8141630.42991241
0.9119592940823873	8156293.322459434
0.912187283905908	8170959.880729599
0.9124153307268845	8165829.561308027
0.9126434345595664	8153511.519087222
0.9128715954182063	8141190.397355874
0.9130998133170609	8128866.195344087
0.9133280882703902	8116538.912281797
0.913556420292458	8117121.4202740425
0.9137848093975312	8131021.310353283
0.9140132555998806	8144924.67540504
0.9142417589137806	8158831.516298062
0.9144703193535092	8172741.833901317
0.9146989369333476	8184047.794904252
0.9149276116675811	8187491.273181654
0.9151563435704979	8190935.612328622
0.9153851326563907	8194380.8125603795
0.9156139789395548	8197826.874092194
