#wavelength	surface flux
0.676892	267977.9995625574
0.678297	275068.5768699019
0.679702	281591.7126442612
0.681109	288071.62579169567
0.682517	295211.8718028427
0.683926	302217.5524314451
0.685337	308875.02237345045
0.686749	315580.33606677176
0.688164	322148.68464622484
0.689581	328115.73226867436
0.691	331015.91232601553
0.692422	330838.17069091275
0.693847	341065.6914904513
0.695274	353501.1583162313
0.696705	362158.9809999198
0.698139	368238.35427065566
0.699576	374801.7613295996
0.701017	380667.58920397994
0.702461	384811.65013219265
0.70391	394363.91720794805
0.705362	403605.73635001894
0.706819	409377.133933301
0.70828	415443.49063137436
0.709745	421209.690444065
0.711216	429442.99610238464
0.71269	435675.47924314055
0.71417	440566.3080707518
0.715655	439876.56827097706
0.717145	434114.53240312205
0.71864	446349.04084272793
0.72014	453190.3899447984
0.721647	456250.75983911665
0.723158	457047.9561727816
0.724676	455491.3340364528
0.726199	455574.1073739334
0.727728	460475.2248815288
0.729264	455030.8014416428
0.730805	458022.0376806252
0.732353	467030.96109702997
0.733907	465346.5650288966
0.735468	464282.2219189722
0.737035	460115.36757526686
0.738609	458016.7737890033
0.74019	451734.4940997225
0.741777	436706.5199399881
0.743372	422906.16337823984
0.744973	407764.7421511382
0.746582	385671.78863132116
0.748197	359398.3941922229
0.74982	328230.7591556748
0.751451	291445.01501865266
0.753088	249466.68688322487
0.754734	203823.40295540955
0.756386	156050.3546127673
0.758047	108997.4899735665
0.759715	67428.25836214665
0.76139	34060.26212774482
0.763074	12945.977995837686
0.764765	3273.242829181052
0.766464	588.4033506583509
0.768172	760.3796191462769
0.769887	865.8881635131199
0.77161	6638.314400145162
0.773341	25440.45510473154
0.775081	62438.36510421449
0.776829	113040.06291244739
0.778585	150274.71675693014
0.780349	184372.13607612703
0.782121	301193.8827184434
0.783902	396015.15236392064
0.785691	472785.7585961081
0.787489	544174.5733141527
0.789295	608086.2903717634
0.79111	657610.2889927499
0.792933	536336.2647221499
0.794764	274091.0958201635
0.796604	702006.2086119679
0.798453	879433.054457062
0.80031	936938.1947918658
0.802176	984068.9876349001
0.804051	1027203.364045732
0.805934	1068657.7296383572
0.807826	1102874.5351184746
0.809727	1111942.9074962537
0.811636	1120463.3557413456
0.813554	1145659.802562938
0.81548	1230853.382955857
0.817416	1270303.3532993086
0.81936	1305144.797789897
0.821313	1342938.1141164917
0.823274	1348986.695353111
0.825244	1418743.4209487604
0.827223	1451800.725285399
0.829211	1461065.9076194162
0.831208	1479740.9548847352
0.833213	1533836.3116100926
0.835227	1560220.0618890836
0.837249	1562760.9642490156
0.83928	1603959.9706256879
0.841321	1685287.6833988724
0.843369	1747585.0390942632
0.845427	1786040.703920783
0.847493	1830346.5750860902
0.849567	1853248.5293550733
0.851651	1834730.5614644517
0.853742	1911276.8239578686
0.855843	1993531.5191145814
0.857952	2036864.950369788
0.86007	2068896.3328983963
0.862196	2026880.880045457
0.864331	2077469.3586886376
0.866474	2138092.6060711215
0.868626	2188704.5152670196
0.870786	2235361.661764438
0.872955	2280405.519957633
0.875132	2305795.6510109343
0.877317	2349338.703010845
0.879511	2336935.261326548
0.881713	2357566.730180525
0.883923	2389571.964947577
0.886142	2404283.373053666
0.888369	2412204.9155392796
0.890604	2413184.936002101
0.892847	2274856.2064182204
0.895099	2296312.791601886
0.897358	2449436.2698890837
0.899626	2627514.7916211346
0.901901	2720193.6510380004
0.904185	2831379.850016864
0.906476	2848405.053701772
0.908776	2897949.8007254535
0.911083	3002977.4730155147
0.913398	2968266.5164118567
0.915721	2938453.4255505167
0.918051	2866778.8834622316
0.92039	3120538.4225019016
0.922736	3137624.886651187
0.925089	2834782.3551963926
0.927451	2195265.846255956
0.929819	1554700.2251618423
0.932195	1972504.862264862
0.934579	1847368.578387004
0.93697	2091439.3912868588
0.939369	2578813.483690796
0.941774	2614348.597931107
0.944187	2040176.0799702932
0.946607	1840146.2610627327
0.949035	2370448.928016309
0.951469	2276673.7322075753
0.953911	2390502.48343605
0.956359	3065740.2265622094
0.958814	2355225.4193586125
0.961277	2055626.4527004873
0.963746	2166192.8410525834
0.966222	2270088.802009815
0.968705	2258806.355419277
0.971194	3160617.0999127086
0.97369	3543660.6038052896
0.976193	3338698.531368612
0.978702	3653302.0835691052
0.981217	3719206.5401679915
0.983739	3879090.836703392
0.986268	3957133.1101350714
0.988802	4207392.979183478
0.991343	4443011.293467182
0.99389	4505716.333727724
0.996444	4690619.652046245
0.999003	4779237.10708326
1.00157	4815282.771323703
1.00414	4911499.191886365
1.00672	5067564.567116377
1.0093	5183642.708353171
1.01189	5307802.829016386
1.01448	5476208.3663073685
1.01708	5570901.691373838
1.01969	5655893.3884342965
1.0223	5691525.920738165
1.02492	5602136.258837372
1.02754	5733226.495363372
1.03017	5598706.120010319
1.0328	6008283.483296706
1.03544	6142537.949531266
1.03808	6232140.327840456
1.04073	6319578.886179568
1.04339	6400410.722129714
1.04604	6476352.660629088
1.04871	6494022.888752995
1.05138	6542696.024169866
1.05405	6677056.086166065
1.05673	6790403.861898235
1.05941	6874031.370506026
1.0621	6942590.796767612
1.06479	7016661.106134661
1.06749	7085031.228557405
1.07019	7083935.714830464
1.07289	7186037.510528464
1.0756	7304201.6461022105
1.07832	7346720.923985448
1.08104	7444197.166284232
1.08376	7540305.525607088
1.08649	7545727.207227025
1.08922	7410324.356877585
1.09195	7254197.834120981
1.09469	7123193.404018968
1.09743	7161808.90165017
1.10018	5357777.080510304
1.10293	3814497.8556483192
1.10568	2960802.8308090013
1.10844	4847186.42715199
1.1112	4084929.4139731475
1.11396	2976558.06874655
1.11673	2976159.2897124067
1.1195	2851709.84478276
1.12228	1940709.0787854826
1.12505	3157432.580877341
1.12783	3138957.298195649
1.13062	3365810.0342222634
1.13341	1612258.0418029123
1.1362	3111294.319720083
1.13899	4567810.423796224
1.14178	3918741.4209975773
1.14458	4796147.643691555
1.14738	5597600.516536196
1.15019	3259595.10567668
1.153	1057053.9976271396
1.1558	1481716.6269263455
1.15862	1670219.0073038498
1.16143	1860218.0086890322
1.16425	3103092.4232389578
1.16707	4538330.871942146
1.16989	3675558.0524921874
1.17271	4321318.498388027
1.17554	5833956.891880113
1.17837	6959040.163513198
1.1812	7398535.028504021
1.18403	8476902.064491332
1.18686	8394636.01544519
1.1897	8398220.347175466
1.19253	9423410.614202412
1.19537	9908784.693211522
1.19822	10157570.88044163
1.20106	10471805.808236934
1.2039	10272852.652479738
1.20675	10625579.070044313
1.2096	10773158.612680199
1.21245	10747818.861528002
1.2153	11185387.56895675
1.21815	11416285.022105262
1.221	11577524.917107224
1.22385	11806453.652903343
1.22671	12043948.504426887
1.22957	12159601.468188237
1.23242	12162563.700794378
1.23528	12333693.20449597
1.23814	12542584.946131615
1.241	12662143.159447193
1.24387	12776773.98070277
1.24673	12873965.198702572
1.24959	12876943.923474733
1.25245	12713915.570003081
1.25532	13145599.038414963
1.25818	13353378.463711027
1.26105	13288398.133452555
1.26392	13306588.771695487
1.26678	13406208.394874997
1.26965	13399207.971430685
1.27252	13327716.451273337
1.27538	13612382.233510932
1.27825	13609984.855552318
1.28112	13339479.747346839
1.28399	13605906.988929788
1.28686	13370269.424583348
1.28973	12799606.140604392
1.2926	12491297.156459738
1.29546	12920424.715543248
1.29833	13192807.10410126
1.3012	12331737.589139305
1.30407	12219359.027600909
1.30694	11999640.888225378
1.30981	12400151.95749942
1.31267	11690110.112155115
1.31554	12689426.593364652
1.31841	13728739.044965075
1.32128	12238195.044777274
1.32414	10201891.911028903
1.32701	9719279.324287245
1.32987	7399462.412193009
1.33274	3555167.060123746
1.3356	2010124.6832482473
1.33847	524050.3709611348
1.34133	113088.90990481366
1.34419	348424.75328256877
1.34705	498076.8520049753
1.34991	182047.85465797732
1.35277	61767.19343733207
1.35563	128352.64311884699
1.35849	127671.17734148778
1.36135	35723.76682896577
1.3642	111086.9678451392
1.36706	120433.27209481088
1.36991	82032.87088310864
1.37277	384523.67044442456
1.37562	984677.6961043137
1.37847	1207318.678943327
1.38132	387904.9937527413
1.38417	24040.296898628
1.38701	53166.09867417332
1.38986	39435.05162232628
1.39271	58017.29370171385
1.39555	100804.08559332104
1.39839	82411.80217422509
1.40123	215510.69249219657
1.40407	447130.5573386106
1.40691	643480.5257518437
1.40974	265519.9690123845
1.41258	56822.639335746164
1.41541	195471.6195829181
1.41824	243899.25739520352
1.42107	98795.88172794846
1.4239	63924.223775696824
1.42673	188957.44241360005
1.42955	361164.8999274285
1.43237	273846.10020792537
1.43519	621838.1795505682
1.43801	365597.9769565583
1.44083	451265.7529523978
1.44365	800409.4483951535
1.44646	950327.342569048
1.44927	2293850.587379954
1.45208	3139497.960387991
1.45489	2226103.459644757
1.45769	2974561.751914615
1.4605	3532512.00454765
1.4633	3784370.0751868146
1.4661	4059566.6998245483
1.4689	2499774.8956603697
1.47169	2688984.931831379
1.47449	2414601.2440120545
1.47728	2246728.8634768026
1.48007	2381902.7559330617
1.48286	4158784.802030111
1.48564	5627838.278271533
1.48842	5698772.659659142
1.4912	5860711.264125661
1.49398	5443255.929634125
1.49676	4429781.692288252
1.49953	5747050.822761033
1.5023	7503713.048895746
1.50507	7533983.156105581
1.50784	6854517.342510453
1.51061	7303319.546283238
1.51337	8144800.721934966
1.51613	9362677.626128685
1.51888	10605141.39215892
1.52164	12518956.76830639
1.52439	13785180.097959781
1.52714	13000350.98421416
1.52989	12650461.10177898
1.53263	13613282.596198667
1.53538	14652265.914836412
1.53812	15018767.071543803
1.54086	15122758.977373958
1.54359	15285962.544902569
1.54632	16266521.178646006
1.54905	16240306.900332937
1.55178	17106675.171653666
1.5545	17082619.264433496
1.55723	16407147.055923622
1.55995	16742950.57878321
1.56266	17473437.15276692
1.56538	18748860.799759913
1.56809	19391281.992095683
1.5708	19201300.54213627
1.57351	18267498.079916313
1.57621	17454271.55838891
1.57891	15688844.451639507
1.58161	16993837.07165847
1.5843	19813240.60520744
1.587	20394208.50510975
1.58969	20203706.502198268
1.59238	19824301.750016324
1.59506	19075561.290430203
1.59774	18279395.292687245
1.60042	17711899.43121989
1.6031	17651498.77950303
1.60577	17928862.656298056
1.60844	17939707.499392413
1.61111	17386886.737087015
1.61378	16444506.226429185
1.61644	15791573.199060317
1.6191	14833516.720101163
1.62176	13535975.450991858
1.62441	12510115.869282207
1.62707	11606983.304788826
1.62971	9882659.210188638
1.63236	9067849.086439688
1.635	12246913.267086457
1.63764	16815031.078089513
1.64028	18263992.078214273
1.64292	17777109.153978683
1.64555	15480518.75916643
1.64818	11677059.768945929
1.65081	11433859.975217847
1.65343	14392902.937898256
1.65605	15425757.454231273
1.65867	15790833.937294533
1.66128	15102220.704923304
1.6639	12174184.51720474
1.66651	6764891.7298397105
1.66911	5294063.67851113
1.67172	9686882.350732429
1.67432	13179193.982934142
1.67692	12700911.139983322
1.67951	10773865.478309505
1.68211	10943848.42382627
1.6847	11184993.814580059
1.68728	9831798.421851054
1.68987	9256784.03675791
1.69245	8334126.955217061
1.69503	5910445.932007787
1.6976	4575556.502528783
1.70018	5755478.1823793845
1.70275	5750590.397624383
1.70531	6343835.452057083
1.70788	7935024.627040828
1.71044	7880582.783959063
1.713	8946865.45379653
1.71556	9876062.832364226
1.71811	10612487.363080895
1.72066	11890232.002231166
1.72321	11515931.309919538
1.72575	10785586.898784725
1.7283	10330552.611724393
1.73084	9574666.508741355
1.73337	8638713.973030599
1.73591	8054150.485779714
1.73844	8074707.111957838
1.74097	8362783.990691272
1.74349	7768399.489387325
1.74602	6832291.408935288
1.74854	6408512.997890537
1.75105	5638649.520359333
1.75357	4509246.8140656985
1.75608	5618309.096152968
1.75859	8020081.969631921
1.7611	8749226.613170637
1.7636	8189033.982655045
1.7661	6024320.10987904
1.7686	4415808.413610384
1.7711	3057074.6260480336
1.77359	1892512.8455025991
1.77608	1009611.0531668785
1.77857	647707.6312978517
1.78105	825128.0203562556
1.78354	1035408.7492488279
1.78602	788330.9146795408
1.78849	528622.1250205769
1.79097	741637.1794047933
1.79344	1204877.9454343412
1.79591	2086813.088274492
1.79837	3105504.496296823
1.80084	1851223.9586220584
1.8033	521793.85413483856
1.80576	186109.45387538866
1.80821	130868.32180861357
1.81067	463858.346966949
1.81312	732064.9781548554
1.81557	373973.12352628657
1.81801	185370.9247081518
1.82046	504740.35689614405
1.8229	758678.9831038188
1.82533	470857.97762775474
1.82777	131424.19722960444
1.8302	64697.493568533886
1.83263	141660.86371430138
1.83506	296465.64413886645
1.83749	562554.0423045142
1.83991	674938.488764826
1.84233	483042.119389777
1.84475	419286.34158739273
1.84716	570213.3767218597
1.84957	902881.9057562472
1.85198	964288.9930152908
1.85439	472905.18216178333
1.8568	264687.92656917736
1.8592	336481.211147955
1.8616	246804.06458634167
1.864	105781.56614796046
1.86639	67762.98073542949
1.86878	112849.12022641566
1.87118	246156.52241564688
1.87356	432237.217490552
1.87595	641686.3748811295
1.87833	1387317.9314219854
1.88071	2496608.8783714334
1.88309	2390129.942667864
1.88547	1664235.683667708
1.88784	1414732.3616958302
1.89021	1288118.1492113844
1.89258	2446100.9813461974
1.89494	3496390.833720385
1.89731	2179908.4496158
1.89967	668388.7222006712
1.90203	117930.22307040406
1.90439	73814.1930811158
1.90674	136270.69892547833
1.90909	148898.02551148177
1.91144	91552.06253246416
1.91379	38984.16455713763
1.91613	38609.118037648215
1.91848	81449.65114752922
1.92082	133650.2447994277
1.92315	133186.561167601
1.92549	93206.29210017856
1.92782	108348.0273167128
1.93015	174678.65921546676
1.93248	240485.48629222251
1.93481	259864.29284494655
1.93713	230013.17534005086
1.93945	250519.26854403628
1.94177	353493.8607056001
1.94409	439954.47327546985
1.94641	511120.027745157
1.94872	732111.1356802222
1.95103	950944.4266872696
1.95334	601960.8001917929
1.95564	360029.27840200113
1.95795	411767.0659048368
1.96025	428186.10532090085
1.96255	447094.83992265776
1.96484	588001.5603461356
1.96714	966304.0664551368
1.96943	1502384.3507750444
1.97172	1830194.414994372
1.97401	1619521.7520044819
1.97629	1716805.2644267238
1.97858	2271673.55344814
1.98086	2677719.9801386395
1.98314	3178059.7699058633
1.98541	3499745.104943471
1.98769	3182962.577803228
1.98996	2362135.747131143
1.99223	2275798.6246999484
1.9945	2925803.4642731748
1.99677	2734536.0484161456
1.99903	2652100.096321941
2.00129	3425707.342979147
2.00355	4586001.073230028
2.00581	5364008.264420204
2.00806	5828234.303752603
2.01031	7365734.874706642
2.01256	7953352.498033293
2.01481	6881187.412480391
2.01706	5680444.671209045
2.0193	5585914.9647259535
2.02154	6708686.034967901
2.02378	7826954.944148311
2.02602	8165743.307743815
2.02825	9016612.863363959
2.03049	9966497.239061067
2.03272	10703354.80035223
2.03494	11186635.293177994
2.03717	11677043.505744973
2.03939	12656367.38137803
2.04162	14121603.740188794
2.04384	15365578.757734826
2.04605	16610949.62433615
2.04827	17654355.105115492
2.05048	17510070.844513368
2.05269	15765166.580420356
2.0549	15206122.088740215
2.05711	15861428.519837722
2.05931	17029842.982043974
2.06151	17985679.006003372
2.06371	18704546.829794783
2.06591	19174988.003902625
2.06811	19505694.730230484
2.0703	19650020.91737053
2.07249	19533616.264728945
2.07468	19049533.83247198
2.07686	18921858.177875992
2.07905	19161133.383213434
2.08123	19410124.827342976
2.08341	19504945.771681227
2.08559	19500388.280660007
2.08776	19611081.175956234
2.08994	19506701.74866306
2.09211	19182123.632690527
2.09428	18793514.35955484
2.09645	18778906.80101816
2.09861	18688025.19649858
2.10077	18479811.114635263
2.10293	18173219.29999706
2.10509	17798579.11611411
2.10725	17410161.345555447
2.1094	17571796.485867098
2.11155	17711336.452552818
2.1137	17540115.62338575
2.11585	16786941.08807883
2.11799	16222545.029743602
2.12013	15928795.0746336
2.12227	15878209.700469257
2.12441	16017148.65393171
2.12655	16127679.18626944
2.12868	16074015.33821518
2.13081	16047690.939913815
2.13294	16027859.476460451
2.13507	15572653.329787077
2.13719	14747263.98112869
2.13931	14057221.163080152
2.14143	13469750.673272435
2.14355	12522543.949016754
2.14567	11998471.893355135
2.14778	11615914.986191915
2.14989	11203207.877337836
2.152	10440379.777164813
2.1541	10678562.070870275
2.15621	11033129.486486664
2.15831	11112465.841819024
2.16041	10125897.287813539
2.16251	9597069.284914032
2.1646	9273579.045998605
2.1667	9130502.651012225
2.16879	9361199.547930673
2.17087	9637346.527608471
2.17296	9833031.815007295
2.17504	9878369.918045742
2.17713	9643670.629909022
2.1792	9195275.806141863
2.18128	8612968.10766022
2.18336	7966436.781959033
2.18543	7330214.017478729
2.1875	6700142.830239934
2.18957	6017816.7006518245
2.19163	5039716.052230096
2.1937	3772860.3125599935
2.19576	2569022.547283813
2.19782	1603452.2660701752
2.19987	1199900.029175196
2.20193	1011517.3211134453
2.20398	997296.1971491739
2.20603	1092315.2398189933
2.20808	1252867.9096139702
2.21012	1433039.2900943705
2.21217	1613936.1712907758
2.21421	1676553.1167309019
2.21625	1622389.7540636803
2.21828	1468218.7164809143
2.22032	1374802.0525857757
2.22235	1321027.510001564
2.22438	1258350.730395132
2.22641	1087342.2454213218
2.22843	893627.8205099448
2.23046	725019.8654785047
2.23248	622134.9604302322
2.2345	587349.6710700165
2.23651	562100.4838825469
2.23853	538121.7398705278
2.24054	463654.2685640474
2.24255	376435.4139476435
2.24456	284357.3699527113
2.24657	288325.39095671737
2.24857	349836.6096597294
2.25057	443544.96264127153
2.25257	486034.6603573077
2.25457	523085.55187379004
2.25656	556809.5822714939
2.25856	589878.4014387709
2.26055	550994.251373414
2.26254	477892.39383872226
2.26453	400839.16881648934
2.26651	358065.0294377948
2.2685	343666.7431610311
2.27048	383532.6628077997
2.27246	442403.0173932545
2.27443	497925.003430039
2.27641	508625.24873543537
2.27838	482942.23311190127
2.28036	443359.94570331986
2.28233	417879.92777078855
2.28429	398241.16816369037
2.28626	379466.9224019724
2.28823	347992.546130848
2.29019	331410.14162334986
2.29215	326464.95638356556
2.29411	347471.53899296373
2.29607	363704.3284420023
2.29802	375894.4497140859
2.29998	386317.7454311846
2.30193	442707.51300891186
2.30388	551691.1685189772
2.30583	804000.6921662776
2.30778	1064854.1291790886
2.30972	1317117.2062966784
2.31167	1318264.4064378825
2.31361	1175483.6332479655
2.31555	780831.6581702904
2.31749	489643.4441826822
2.31943	274506.16630873614
2.32137	269913.0307081721
2.32331	276362.27459374274
2.32524	291525.95606861525
2.32718	284409.16680494417
2.32911	278999.6912475233
2.33104	276505.1640403264
2.33297	269698.0586806375
2.3349	261080.07586825607
2.33683	249701.47867907814
2.33876	238624.36253814952
2.34068	227123.80844610347
2.34261	205963.1777231178
2.34453	186666.97155068858
2.34646	169269.37757807493
2.34838	181075.13108530143
2.3503	208455.64359801888
2.35223	266873.4964138938
2.35415	323372.63480944803
2.35607	378050.9766521808
2.35799	417255.7386262413
2.35991	456443.66543159477
2.36183	495611.273929879
2.36375	473773.55775908544
2.36566	422552.05574889283
2.36758	307888.13469192316
2.3695	218447.63804728608
2.37142	145176.00320544225
2.37334	157148.12253547698
2.37526	176683.95665288635
2.37718	208082.1447861443
2.3791	242586.90672899326
2.38101	279742.5824044775
2.38293	330313.0863157598
2.38485	374503.4131830853
2.38677	412179.2434897295
2.3887	396976.6132127083
2.39062	375352.3746298194
2.39254	357913.756601006
2.39446	363436.02963321196
2.39639	383782.24337290414
2.39831	409999.0020875233
2.40024	423466.62633077096
2.40216	412518.14248696656
2.40409	428229.3220867395
2.40602	461483.4135015583
2.40795	573321.2097973637
2.40989	672055.3311109045
2.41182	753538.5634082139
2.41376	790824.8677025756
2.4157	830618.4162161895
2.41764	926035.1019417591
2.41958	993236.2641861098
2.42152	1037495.8325719092
2.42347	928738.339974047
