#wavelength	surface flux
0.8	12047196.050370762
0.8002000000000001	12066654.995382119
0.8004000500000003	12080071.5762034
0.8006001500125003	12093430.428203631
0.8008003000500035	12106792.619916862
0.8010005001250161	12120158.152178029
0.8012007502500472	12133527.025822239
0.8014010504376099	12149702.977875566
0.8016014007002193	12166822.13988349
0.8018018010503944	12183945.581681918
0.8020022515006572	12201073.304340804
0.8022027520635323	12218205.308930337
0.8024033027515483	12234975.05028354
0.8026039035772362	12251389.783044728
0.8028045545531306	12267808.619489105
0.8030052556917691	12284231.560642602
0.803206007005692	12300658.607531372
0.8034068085074435	12317176.97814159
0.8036076602095705	12333943.960275939
0.8038085621246229	12350715.134155806
0.8040095142651542	12367490.500829155
0.8042105166437206	12384270.061344167
0.8044115692728815	12400935.99972051
0.8046126721651998	12412538.586594386
0.8048138253332411	12424144.074114969
0.8050150287895745	12435752.463007443
0.805216282546772	12447363.753997138
0.8054175866174087	12458977.947809573
0.8056189410140631	12471501.978070213
0.8058203457493168	12484285.860171359
0.8060218008357541	12497072.938243013
0.8062233062859632	12509863.213084191
0.8064248621125346	12522656.685494073
0.806626468328063	12537227.701915732
0.8068281249451449	12553326.309349338
0.8070298319763813	12569428.941434823
0.8072315894343755	12585535.599178316
0.8074333973317341	12601646.283586252
0.8076352556810671	12616764.484389635
0.8078371644949874	12629487.69570376
0.8080391237861113	12642214.087820716
0.8082411335670578	12654943.661535693
0.8084431938504498	12667676.417644113
0.8086453046489125	12680350.804329589
0.8088474659750746	12691882.360253846
0.8090496778415686	12703416.799067099
0.809251940261029	12714954.121490045
0.8094542532460944	12726494.328243608
0.8096566168094059	12738037.420048846
0.8098590309636085	12749996.751029028
0.8100614957213493	12762055.820580821
0.8102640110952797	12774117.904900007
0.8104665770980536	12786183.004740275
0.8106691937423283	12798251.12085551
0.8108718610407639	12811798.650242899
0.8110745790060241	12826478.489229107
0.8112773476507757	12841161.998175075
0.8114801669876885	12855849.177998276
0.8116830370294355	12870540.029616425
0.8118859577886929	12886154.1167684
0.8120889292781401	12903682.079631701
0.8122919515104597	12921214.424485717
0.8124950244983374	12938751.152425949
0.8126981482544621	12956292.26454816
0.8129013227915257	12973874.088408964
0.8131045481222237	12991876.25125292
0.8133078242592543	13009882.914637588
0.8135111512153191	13027894.079688098
0.813714529003123	13045909.747529872
0.8139179576353739	13063929.919288611
0.8141214371247829	13088524.57900332
0.8143249674840641	13114399.417575706
0.814528548725935	13140280.72485772
0.8147321808631167	13166168.50246659
0.8149358639083326	13192062.752019854
0.8151395978743097	13211556.028627537
0.8153433827737784	13226725.038860349
0.8155472186194719	13241897.841345713
0.8157511054241268	13257074.437031694
0.815955043200483	13272254.826866606
0.8161590319612831	13287286.448773414
0.8163630717192736	13302042.27543803
0.8165671624872033	13316801.791059297
0.8167713042778252	13331564.996559482
0.8169754971038948	13346331.89286105
0.8171797409781707	13358623.519815737
0.8173840359134155	13351127.905690556
0.8175883819223938	13343630.417661851
0.8177927790178745	13336131.055261135
0.8179972272126291	13328629.818019817
0.8182017265194322	13321126.705469197
0.8184062769510622	13329939.053439764
0.8186108785203001	13341264.601045098
0.8188155312399301	13352592.980037319
0.8190202351227402	13363924.1911243
0.819224990181521	13375258.235014046
0.8194297964290664	13407269.667618712
0.8196346538781738	13451750.654558042
0.8198395625416434	13496242.761744088
0.8200445224322789	13540745.99195695
0.820249533562887	13585260.34797735
0.8204545959462778	13620415.362662563
0.8206597095952644	13640497.6477279
0.8208648745226633	13660584.953364518
0.8210700907412941	13680677.28082754
0.8212753582639793	13700774.631372409
0.8214806771035456	13719115.169523241
0.8216860472728215	13726605.232015857
0.8218914687846397	13734097.167024096
0.822096941651836	13741590.975016091
0.822302465887249	13749086.656460078
0.8225080415037209	13756584.211824432
0.8227136685140968	13778337.849421943
0.8229193469312254	13801715.07593069
0.8231250767679583	13825098.146746073
0.8233308580371503	13848487.063329145
0.8235366907516598	13871881.827141382
0.8237425749243477	13892766.969151309
0.8239485105680789	13912324.088864857
0.824154497695721	13931886.09785832
0.824360536320145	13951452.997354036
0.8245666264542252	13971024.788574625
0.8247727681108388	13991221.700558253
0.8249789613028664	14012311.944736075
0.8251852060431922	14033407.461474959
0.825391502344703	14054508.252093019
0.8255978502202894	14075614.317908755
0.8258042496828445	14095847.975399412
0.8260107007452654	14111824.15306165
0.8262172034204517	14127804.324768288
0.8264237577213068	14143788.491517859
0.8266303636607373	14159776.654309122
0.8268370212516525	14175768.814141076
0.8270437305069654	14187838.023326773
0.8272504914395923	14199603.38429676
0.8274573040624523	14211371.68660699
0.8276641683884679	14223142.93099279
0.8278710844305652	14234917.118189698
0.8280780522016729	14251544.764239985
0.8282850717147234	14270393.728766082
0.8284921429826521	14289247.40553329
0.8286992660183978	14308105.795719704
0.8289064408349024	14326968.900503652
0.8291136674451112	14345059.053031402
0.8293209458619727	14362173.127676882
0.8295282760984382	14379291.480841
0.829735658167463	14396414.11359343
0.8299430920820048	14413541.027004024
0.8301505778550254	14430490.494436067
0.8303581154994891	14446718.870739875
0.8305657050283641	14462951.304137776
0.8307733464546212	14479187.795644013
0.8309810397912352	14495428.346273154
0.8311887850511829	14511672.957039919
0.8313965822474458	14535322.860418485
0.8316044313930077	14559322.206575548
0.8318123325008561	14583327.552569175
0.8320202855839813	14607338.899899287
0.8322282906553774	14631356.250066234
0.8324363477280413	14651011.51127979
0.8326444568149735	14668913.107359765
0.8328526179291771	14686819.17883874
0.8330608310836596	14704729.726835608
0.8332690962914304	14722644.752469456
0.8334774135655034	14738967.466443934
0.833685782918895	14753510.593765033
0.8338942043646247	14768057.356867954
0.834102677915716	14782607.756661663
0.834311203585195	14797161.794055307
0.8345197813860912	14813804.397171382
0.8347284113314379	14837469.22091165
0.8349370934342709	14861139.96085784
0.8351458277076294	14884816.618488988
0.8353546141645565	14908499.195284583
0.8355634528180977	14932187.692724366
0.8357723436813022	14933688.024346545
0.8359812867672226	14934914.690616366
0.8361902820889144	14936141.663552754
0.8363993296594368	14937368.943232376
0.8366084294918518	14938596.52973192
0.8368175815992247	14954257.915187709
0.8370267859946247	14974894.25890381
0.8372360426911234	14995535.761705834
0.8374453517017962	15016182.424883557
0.8376547130397217	15036834.249727072
0.8378641267179816	15055695.854655799
0.8380735927496613	15072780.688466437
0.8382831111478488	15089869.793485519
0.8384926819256358	15106963.170780845
0.8387023050961173	15124060.821420511
0.8389119806723914	15140624.29158203
0.8391217086675596	15155676.51460273
0.8393314890947265	15170732.500679176
0.8395413219670003	15185792.250752144
0.8397512072974922	15200855.765762638
0.8399611450993165	15216101.493489185
0.8401711353855914	15240212.6388154
0.8403811781694378	15264329.811927937
0.8405912734639802	15288453.014333759
0.8408014212823464	15312582.247540193
0.8410116216376671	15336717.513054926
0.8412218745430766	15359224.58102717
0.8414321800117124	15381261.777503777
0.8416425380567154	15403304.483279513
0.8418529486912297	15425352.699731698
0.8420634119284025	15447406.428237977
0.8422739277813847	15469409.414625222
0.8424844962633302	15491368.338435577
0.842695117387396	15513332.751976857
0.8429057911667428	15535302.656621521
0.8431165176145345	15557278.053742358
0.8433272967439382	15576909.82325466
0.8435381285681244	15590816.342061993
0.8437490131002665	15604726.337499026
0.8439599503535415	15618639.81043491
0.84417094034113	15632556.761739036
0.8443819830762154	15646496.044586634
0.8445930785719846	15660818.593563942
0.8448042268416277	15675144.723178485
0.8450154278983382	15689474.43432543
0.8452266817553128	15703807.727900162
0.8454379884257517	15718144.604798289
0.8456493479228583	15738209.100397486
0.845860760259839	15759657.028417803
0.846072225449904	15781110.318420127
0.8462837435062666	15802568.971744955
0.8464953144421433	15824032.989733126
0.8467069382707537	15843779.235113299
0.8469186150053215	15862187.283427082
0.847130344659073	15880599.933752947
0.8473421272452377	15899017.187241377
0.8475539627770492	15917439.045043197
0.8477658512677435	15935984.815563446
0.8479777927305605	15954788.555769544
0.8481897871787432	15973596.99691069
0.848401834625538	15992410.14016213
0.8486139350841944	16011227.986699374
0.8488260885679657	16029664.495525198
0.8490382950901076	16043399.896433989
0.8492505546638802	16057138.731193012
0.8494628673025462	16070881.000660721
0.8496752330193721	16084626.705695817
0.8498876518276269	16098375.847157152
0.8501001237405839	16116190.305083506
0.8503126487715191	16134820.039046736
0.850525226933712	16153454.430443447
0.8507378582404455	16172093.480438005
0.8509505427050057	16190737.190195074
0.8511632803406821	16212932.082460491
0.8513760711607672	16237561.241304256
0.8515889151785576	16262196.55743777
0.8518018124073523	16286838.032400299
0.8520147628604541	16311485.667731551
0.8522277665511693	16335089.32103531
0.8524408234928071	16356756.760980377
0.8526539336986805	16378429.617785435
0.8528670971821053	16400107.892804695
0.8530803139564007	16421791.587392686
0.8532935840348901	16443191.443467757
0.8535069074308987	16462153.705752846
0.8537202841577566	16481120.708603524
0.8539337142287962	16500092.453204917
0.8541471976573534	16519068.940742446
0.8543607344567677	16538050.172401866
0.8545743246403821	16557521.943246376
0.8547879682215422	16577075.73165363
0.8550016652135977	16596634.408507984
0.8552154156299011	16616197.975031553
0.8554292194838088	16635766.432446767
0.8556430767886797	16653564.403873939
0.855856987557877	16670288.862100735
0.8560709518047664	16687017.501442077
0.8562849695427177	16703750.32294326
0.8564990407851035	16720487.327649824
0.8567131655452999	16737800.428170858
0.8569273438366862	16756054.953149814
0.8571415756726455	16774314.041760018
0.8573558610665638	16792577.69514238
0.8575702000318304	16810845.91443807
0.8577845925818384	16830531.32681468
0.857999038729984	16859045.443119198
0.8582135384896665	16887566.687952783
0.858428091874289	16916095.063097578
0.8586426988972576	16944630.570336152
0.8588573595719821	16973173.211451545
0.8590720739118751	16988047.413700443
0.8592868419303532	17001312.943400726
0.8595016636408359	17014581.78948343
0.8597165390567462	17027853.952777658
0.8599314681915105	17041129.43411271
0.8601464510585584	17052960.840325873
0.860361487671323	17064026.93776329
0.8605765780432408	17075095.80172506
0.8607917221877518	17086167.43290283
0.8610069201182988	17097241.831988394
0.8612221718483286	17066343.403115906
0.8614374773912907	16974923.74663613
0.8616528367606385	16883481.23524226
0.8618682499698288	16792015.86322048
0.8620837170323213	16700527.62485571
0.8622992379615795	16623409.123166967
0.8625148127710699	16617494.848409558
0.8627304414742627	16611579.095083456
0.8629461240846313	16605661.862819025
0.8631618606156526	16599743.151246525
0.8633776510808066	16593822.959996134
0.8635934954935769	16728207.491068369
0.8638093938674504	16874126.7714445
0.8640253462159173	17020082.531640716
0.8642413525524714	17166074.78077698
0.8644574128906095	17312103.5279755
0.8646735272438323	17332617.045772992
0.8648896956256433	17294750.655563116
0.8651059180495498	17256874.798755687
0.8653221945290621	17218989.472984094
0.8655385250776946	17181094.675881002
0.8657549097089641	17182711.87879536
0.8659713484363913	17234925.66019042
0.8661878412735006	17287152.495030854
0.866404388233819	17339392.38657999
0.8666209893308775	17391645.33810199
0.8668376445782103	17436596.861567643
0.8670543539893549	17451705.47081055
0.8672711175778525	17466817.857205786
0.8674879353572469	17481934.0216976
0.8677048073410862	17497053.965230543
0.8679217335429217	17512177.68874938
0.8681387139763074	17527509.42357462
0.8683557486548015	17542855.136978306
0.8685728375919655	17558204.686810363
0.8687899808013633	17573558.07402984
0.8690071782965637	17588915.299596146
0.869224430091138	17592395.258276254
0.8694417361986609	17591041.679855693
0.8696590966327107	17589687.763040528
0.869876511406869	17588333.50774616
0.8700939805347206	17586978.913887966
0.8703115040298544	17589063.9159003
0.870529081905862	17595082.279454343
0.8707467141763385	17601102.147599272
0.8709644008548827	17607123.520711236
0.8711821419550964	17613146.399166476
0.8713999374905854	17626580.10889247
0.871617787474958	17665589.33027037
0.8718356919218269	17704608.303953648
0.8720536508448075	17743637.032380354
0.8722716642575187	17782675.51798914
0.8724897321735832	17821723.763219345
0.8727078546066265	17850954.797050323
0.8729260315702784	17880043.638137177
0.873144263078171	17909139.751434267
0.8733625491439405	17938243.138759684
0.8735808897812266	17967353.801931947
0.8737992850036719	17981455.742261935
0.874017734824923	17990242.787601728
0.8742362392586293	17999032.029702853
0.874454798318444	18007823.469114505
0.8746734120180236	18016617.106386006
0.8748920803710283	18029544.156680208
0.875110803391121	18046625.915773492
0.8753295810919689	18063711.945306562
0.875548413487242	18080802.24634701
0.8757673005906139	18097896.819962725
0.8759862424157616	18123611.04496858
0.8762052389763657	18174260.70062395
0.8764242902861098	18224923.0186932
0.8766433963586814	18275598.002341986
0.8768625572077712	18326285.654736694
0.8770817728470732	18376717.50023435
0.8773010432902849	18406199.805632126
0.8775203685511077	18435689.481606293
0.8777397486432454	18465186.52999942
0.8779591835804065	18494690.95265468
0.8781786733763015	18524202.751415566
0.8783982180446457	18505809.189142995
0.878617817599157	18473157.88419007
0.8788374720535569	18440498.416410927
0.8790571814215703	18407830.783764843
0.8792769457169257	18375154.9842106
0.879496764953355	18360529.919717718
0.8797166391445934	18362137.33979497
0.8799365683043796	18363745.161727246
0.8801565524464557	18365353.385615
0.8803765915845676	18366962.01155873
0.8805966857324639	18386658.24836791
0.880816834903897	18451789.05519011
0.881037039112623	18516936.144714043
0.8812572983724012	18582099.521010347
0.8814776126969944	18647279.188150756
0.8816979821001687	18710740.63965378
0.8819184065956938	18733387.28612407
0.8821388861973429	18756039.594256
0.8823594209188923	18778697.565464944
0.882580010774122	18801361.201166674
0.8828006557768155	18824030.50277735
0.8830213559407598	18865788.33037611
0.8832421112797452	18912356.13009015
0.8834629218075651	18958935.571754094
0.8836837875380171	19005526.658278465
0.8839047084849018	19052129.392574474
0.884125684662023	19051265.780237272
0.8843467160831886	19012354.40078565
0.8845678027622095	18973433.293489166
0.8847889447129001	18934502.455915846
0.8850101419490785	18895561.885633145
0.8852313944845657	18896096.130792487
0.885452702333187	18983057.347936325
0.8856740655087704	19070040.30538444
0.8858954840251476	19157045.00857189
0.8861169578961539	19244071.462935098
0.886338487135628	19322623.733717438
0.886560071757412	19288136.710029405
0.8867817117753515	19253641.06458545
0.8870034072032955	19219136.795230124
0.8872251580550963	19184623.899807494
0.8874469643446101	19150102.37616099
0.8876688260856963	19175806.182621557
0.8878907432922178	19213982.605100017
0.8881127159780409	19252168.57168407
0.8883347441570356	19290364.084759813
0.8885568278430749	19328569.146713786
0.8887789670500358	19347749.92880686
0.8890011617917983	19353433.40793824
0.8892234120822464	19359118.307939395
0.8894457179352669	19364804.629165553
0.8896680793647509	19370492.37197202
0.8898904963845921	19380371.370206878
0.8901129690086883	19398247.15078391
0.8903354972509405	19416127.400306083
0.8905580811252535	19434012.11989065
0.8907807206455347	19451901.310655087
0.8910034158256963	19467863.099755045
0.8912261666796527	19466563.791505907
0.8914489732213227	19465264.15842971
0.8916718354646282	19463964.200445235
0.8918947534234944	19462663.91747127
0.8921177271118502	19461363.309426565
0.8923407565436284	19488521.71368075
0.8925638417327644	19520329.399320047
0.8927869826931977	19552145.03688076
0.8930101794388711	19583968.628350865
0.8932334319837308	19615800.175718833
0.8934567403417267	19649556.168255508
0.8936801045268123	19684511.471036665
0.8939035245529441	19719475.512643494
0.8941270004340824	19754448.29526074
0.894350532184191	19789429.82107363
0.8945741198172371	19828143.408342794
0.8947977633471915	19873041.34958789
0.8950214627880284	19917950.5153183
0.8952452181537254	19962870.90834011
0.8954690294582639	20007802.53146021
0.8956928967156286	20048458.735444274
0.8959168199398075	20061306.258754995
0.8961407991447926	20074156.993946545
0.8963648343445789	20087010.941821896
0.896588925553165	20099868.103184205
0.8968130727845534	20112728.478836857
0.8970372760527496	20136647.006746512
0.8972615353717629	20161954.709553253
0.8974858507556059	20187268.739285696
0.8977102222182949	20212589.097525567
0.8979346497738496	20237915.785855014
0.8981591334362931	20271127.269316528
0.8983836732196523	20308655.602064606
0.8986082691379572	20346193.316895843
0.8988329212052417	20383740.41615579
0.8990576294355432	20421296.902190585
0.8992823938429022	20442441.451301027
0.8995072144413631	20439174.861549444
0.8997320912449734	20435907.45515043
0.8999570242677847	20432639.231899813
0.9001820135238516	20429370.191593386
0.9004070590272328	20431027.298248693
0.9006321607919896	20458513.646530267
0.9008573188321878	20486006.86639894
0.9010825331618959	20513506.95957257
0.9013078037951865	20541013.927769493
0.9015331307461353	20568527.772708453
0.9017585140288219	20602181.901606604
0.9019839536573292	20636372.730150282
0.9022094496457435	20670572.106401075
0.9024350020081551	20704780.032495968
0.9026606107586572	20738996.510572374
0.902886275911347	20772225.584773526
0.9031119974803249	20804982.845164664
0.9033377754796951	20837748.2948709
0.903563609923565	20870521.93593955
0.903789500826046	20903303.770418487
0.9040154482012526	20926466.921794273
0.904241452063303	20937165.083349183
0.9044675124263188	20947865.91944448
0.9046936293044254	20958569.430748794
0.9049198027117517	20969275.617930945
0.9051460326624297	20983070.77504843
0.9053723191705955	21010011.536186468
0.9055986622503881	21036959.032514766
0.9058250619159507	21063913.26571715
0.9060515181814298	21090874.237477846
0.9062780310609752	21117841.949481465
0.9065046005687405	21137121.39112914
0.906731226718883	21155976.37065236
0.9069579095255627	21174836.063920435
0.907184649002944	21193700.47211183
0.907411445165195	21212569.59640529
0.9076382980264862	21221237.89103911
0.907865207600993	21225670.008003697
0.9080921739028933	21230103.23299752
0.9083191969463691	21234537.5662976
0.9085462767456058	21238973.008181
0.9087734133147922	21265346.223000936
0.9090006066681211	21317063.150042597
0.909227856819788	21368793.006315947
0.9094551637839932	21420535.795053437
0.9096825275749393	21472291.519488096
0.9099099482068329	21515137.86298129
0.9101374256938848	21526284.83852381
0.9103649600503083	21537434.60081021
0.9105925512903209	21548587.15053718
0.9108201994281437	21559742.488401596
0.9110479044780008	21570900.615100462
0.9112756664541204	21596068.01019817
0.911503485370734	21621562.302976638
0.9117313612420768	21647062.9693283
0.9119592940823873	21672570.010846544
0.912187283905908	21698083.429125175
0.9124153307268845	21708309.348415706
0.9126434345595664	21712987.040661808
0.9128715954182063	21717665.90233097
0.9130998133170609	21722345.93371555
0.9133280882703902	21727027.135107975
0.913556420292458	21741322.028858885
