#wavelength	surface flux
0.428837	3467.306526364001
0.43312537	6677.610529699812
0.43745662370000005	7700.479035277819
0.4418311899370001	8897.365830007579
0.44624950183637	10249.478143794317
0.4507119968547338	11708.025053428102
0.45521911682328114	13467.738799508725
0.4597713079915139	15488.04834506274
0.4643690210714291	17711.532443072498
0.4690127112821433	20191.26441304625
0.47370283839496474	22984.66848902189
0.47843986677891437	25819.236006509997
0.48322426544670355	29354.761486495932
0.48805650810117057	33583.617406500605
0.4929370731821824	37928.90508797958
0.49786644391400414	42450.185533086216
0.5028451083531442	47402.00535749301
0.5078735594366757	51910.295145808006
0.5129522950310424	53743.42730180911
0.5180818179813528	55306.18055427564
0.5232626361611664	71606.96112377182
0.5284952625227781	79770.39025023463
0.5337802151480058	86157.06047959255
0.5391180172994858	92332.26385914283
0.5445091974724807	96767.95492966103
0.5499542894472055	98246.21089475352
0.5554538323416777	95289.41453886489
0.5610083706650945	85796.18348711114
0.5666184543717453	66948.75108407956
0.5722846389154628	40598.42083121136
0.5780074853046174	14923.889881965046
0.5837875601576636	1974.383550208085
0.5896254357592402	37.79700028477903
0.5955216901168326	3807.2021354664357
0.6014769070180009	26542.798842148764
0.607491676088181	76652.06071011165
0.6135665928490629	144961.77298400897
0.6197022587775535	220362.90901756144
0.625899281365329	296998.86602145754
0.6321582741789823	371876.4467811861
0.6384798569207721	449390.6326385338
0.6448646554899798	525095.2001382696
0.6513133020448797	602815.0575887561
0.6578264350653285	679433.3396498649
0.6644046994159818	756205.6133936492
0.6710487464101416	604224.9815521655
0.677759233874243	932175.6021198578
0.6845368262129854	1029612.7656329698
0.6913821944751153	1112334.2758263934
0.6982960164198664	1224133.544228177
0.7052789765840651	1323872.4791713853
0.7123317663499058	1421339.7943587336
0.7194550840134049	1498776.6657037362
0.7266496348535388	1566642.9778586058
0.7339161312020743	1608947.0109480494
0.741255292514095	1577444.0584353628
0.748667845439236	1367850.6904795459
0.7561545238936284	812116.2982153421
0.7637160691325647	102786.2211483377
0.7713532298238903	77247.87939038622
0.7790667621221293	839832.4301778509
0.7868574297433505	1949479.8771714037
0.7947260040407841	1590589.66419141
0.8026732640811919	3114309.235916461
0.8106999967220039	3460571.3981606173
0.8188069966892239	3815059.9365182305
0.8269950666561161	4196856.996813048
0.8352650173226772	4510036.2990528215
0.8436176674959041	4887644.052263932
0.852053844170863	5141853.077780654
0.8605743826125718	5520704.650776064
0.8691801264386976	5848237.662929956
0.8778719277030844	6218405.316364187
0.8866506469801153	6591148.089173562
0.8955171534499164	6756200.7994696945
0.9044723249844157	7467184.814586777
0.9135170482342599	7866712.5644799955
0.9226522187166025	8193560.362710086
0.9318787409037684	7057291.92187201
0.941197528312806	8240669.859225927
0.9506095035959342	8266259.080320795
0.9601155986318936	8373279.142876657
0.9697167546182125	8970207.1049766
0.9794139221643946	10389716.507007927
0.9892080613860387	11220940.488662003
0.9991001419998989	11938865.194822207
1.0090911434198981	12647719.399094488
1.019182054854097	13488795.579570293
1.0293738754026378	13839420.538989216
1.0396676141566643	14806539.016829561
1.050064290298231	15375463.933758138
1.0605649332012133	16103915.536463466
1.0711705825332256	16683795.338381143
1.0818822883585577	17372688.445742287
1.0927011112421434	17412773.21518769
1.1036281223545648	13673372.239046205
1.1146644035781104	13140140.66482311
1.1258110476138916	14338450.136408838
1.1370691580900303	14111118.92078375
1.1484398496709307	16411400.715315733
1.1599242481676402	12771272.53260521
1.1715234906493166	16347171.341518547
1.1832387255558097	21123659.60198553
1.1950711128113678	23180217.67743566
1.2070218239394814	24188108.566000886
1.2190920421788762	25504611.907197613
1.2312829626006652	26560051.12039175
1.2435957922266716	27466424.057563208
1.2560317501489384	28108408.548218403
1.2685920676504279	28822290.549962487
1.281277988326932	29339704.837373443
1.2940907682102014	29278439.193342637
1.3070316758923035	29237929.856318276
1.3201019926512265	29939714.580209166
1.3333030125777388	16805496.458392575
1.3466360427035162	6747207.847989576
1.3601024031305513	3393411.706608326
1.373703427161857	9568280.343029287
1.3874404614334754	2815746.6665466907
1.4013148660478103	5185261.395729255
1.4153280147082883	4564622.0010177605
1.4294812948553712	6337674.548622814
1.443776107803925	9078153.965839157
1.4582138688819641	16870873.841524914
1.4727960075707838	17031906.839570776
1.4875239676464918	22983467.078896016
1.5023992073229566	26370621.64640434
1.5174231993961862	29891600.94710579
1.532597431390148	34177186.280635186
1.5479234057040496	37095428.96310539
1.5634026397610903	38822501.674612395
1.579036666158701	38830298.85813922
1.594827032820288	41466982.877023704
1.610775303148491	41304134.05730211
1.6268830561799759	39549274.280989565
1.6431518867417756	42934210.879164614
1.6595834056091934	41863904.19968534
1.6761792396652853	41074396.641391836
1.6929410320619382	37330305.43650607
1.7098704423825577	37120664.177477516
1.7269691468063835	38249317.88994188
1.744238838274447	30891400.765008792
1.7616812266571917	31702766.07889796
1.7792980389237634	10678622.053623626
1.7970910193130012	12669845.598406961
1.815061929506131	5952367.036609594
1.8332125488011928	5240571.561798757
1.8515446742892046	7293828.9454998905
1.8700601210320964	5766767.178602312
1.8887607222424174	13799524.336953934
1.9076483294648416	4997470.024678709
1.92672481275949	4332362.352944039
1.9459920608870853	6948738.315397807
1.9654519814959561	7967508.506960895
1.9851065013109155	16884551.277802788
2.0049575663240247	20546064.672468174
2.025007141987265	27977298.738293763
2.0452572134071376	37851893.87256578
2.065709785541209	41853951.64889905
2.086366883396621	43194499.53713747
2.107230552230587	42498991.6884235
2.1283028577528933	42858164.30675014
2.1495858863304225	39948333.96172509
2.1710817451937263	38092589.697921306
2.1927925626456637	29624536.344156843
2.2147204882721203	22114213.78686671
2.2368676931548412	15844637.285732524
2.25923637008639	15293835.99350453
2.281828733787254	12424638.23592517
2.3046470211251266	10772389.708157511
2.327693491336378	6293006.475527279
2.3509704262497415	7237264.072311896
2.374480130512239	5713593.536494818
2.3982249318173614	8278560.7430258915
2.4222071811355352	11283557.685290603
2.4464292529468903	9315033.759352336
2.4708935454763594	6204905.477054087
2.4956024809311232	3384450.4313193546
2.5205585057404343	1793591.6943527185
2.5457640907978387	2751913.9131642026
2.5712217317058172	1209609.9064857843
2.5969339490228753	1148767.8776922645
2.622903288513104	2465247.781396373
2.6491323213982354	3371688.8863887056
2.6756236446122177	609014.980142654
2.7023798810583397	1803502.106259706
2.729403679868923	3888085.917842651
2.7566977166676123	2343902.341349588
2.7842646938342885	1843954.5878208617
2.812107340772631	2003521.649793304
2.8402284141803578	3515117.697939158
2.8686306983221614	2305786.975441574
2.897317005305383	2967010.112834121
2.926290175358437	5969395.820313616
2.9555530771120213	6325500.880802503
2.9851086078831415	6311079.162828105
3.014959693961973	8158414.538154328
3.0451092909015927	7666948.631600319
3.0755603838106085	6892052.914346361
3.1063159876487147	4663485.339363257
3.137379147525202	3233962.2833117004
3.168752939000454	2449549.8082108106
3.200440468390459	2089123.7716918672
3.232444873074363	1561138.5645272976
3.264769321805107	3983490.7793414854
3.297417015023158	4343700.385631596
3.330391185173389	881702.3558112691
3.3636950970251234	2982643.0233028373
3.397332047995375	2666299.288422666
3.4313053684753285	2099094.581630122
3.465618422160081	2205079.5642736657
3.5002746063816828	2854615.151923664
3.5352773524454997	3825561.9504506616
3.570630125969955	4872010.4273241265
3.606336427229654	6806877.116784156
3.6423997915019504	9125334.72121517
3.67882378941697	12144862.74473609
3.7156120273111397	13929571.048183894
3.7527681475842516	15527695.294679807
3.7902958290600934	15557655.964481814
3.8281987873506953	16964907.60653044
3.8664807752242023	16750224.6166894
3.905145582976444	16731468.31273246
3.9441970388062084	16950549.244339086
3.983639009194271	16915646.358353
4.023475399286213	17072730.51598777
4.063710153279075	16931573.819575813
4.1043472548118665	16915739.781666692
4.145390727359985	16098094.108535608
4.186844634633585	15303525.4437033
4.2287130809799205	14520580.579010656
4.27100021178972	13461561.564669613
4.313710213907617	12835759.370650852
4.356847316046694	10370903.87748822
4.40041578920716	7654344.628066287
4.444419947099232	6017703.498203053
4.488864146570225	5032659.989269276
4.533752788035927	4420934.600847809
4.579090315916286	4650726.126746997
4.624881219075449	4854061.90094109
4.671130031266204	5532378.372212052
4.717841331578866	4771010.171256866
4.765019744894654	4347698.195266179
4.812669942343601	4578161.87417247
4.8607966417670365	5185808.560446067
4.9094046081847065	4681642.579876268
4.958498654266554	3690106.745210274
5.008083640809219	4342118.776894961
5.058164477217312	5123827.307097592
5.108746121989485	4526910.398127533
5.15983358320938	3583788.4062349554
5.211431919041474	2709980.6812140597
5.263546238231889	3471985.4740141695
5.316181700614208	4061664.668701077
5.36934351762035	2373950.0460931817
5.423036952796553	1800024.3022372888
5.4772673223245185	2049094.582842939
5.532039995547764	2170765.3005312546
5.587360395503242	1675813.8107906631
5.643233999458275	1459858.7762369667
5.6996663394528575	1327681.0553369855
5.756663002847385	1340506.6028873723
5.814229632875859	1428519.632432613
5.872371929204618	1179073.525081772
5.931095648496664	1267839.3758870822
5.990406604981631	1663675.980643424
6.050310671031448	1304526.703836491
6.110813777741763	2001314.204681746
6.17192191551918	1435118.7438074655
6.233641134674372	2888608.9872777117
6.295977546021115	3074580.387618258
6.358937321481327	2146203.624606506
6.42252669469614	900815.0515157114
6.486751961643101	813695.101416833
6.551619481259532	937983.7509693272
6.617135676072128	773333.5671102366
6.683307032832849	1121218.9623867143
6.750140103161177	1230558.5476553468
6.81764150419279	1180403.8983419375
6.885817919234718	998302.88079982
6.954676098427065	1183669.4668715156
7.024222859411336	863090.559281979
7.094465088005449	1103575.979830788
7.165409738885503	863893.180159799
7.237063836274358	875227.9478249794
7.309434474637103	799352.7776248759
7.382528819383473	742762.5122047033
7.456354107577308	693322.9433960499
7.530917648653081	896253.74906021
7.606226825139612	854963.8403643
7.682289093391009	579793.6806599306
7.759111984324918	716536.5741053459
7.836703104168168	812209.563999257
7.91507013520985	778229.1350604995
7.994220836561947	880345.0889806064
8.074163044927568	830773.9678142609
8.154904675376844	839322.9767320293
8.23645372213061	910961.6517341109
8.318818259351918	973060.3716868924
8.402006441945437	995263.4544715703
8.486026506364892	1125625.872388373
8.57088677142854	1191863.7855131463
8.656595639142825	1287064.688570559
8.743161595534254	1336176.882073918
8.830593211489598	1447975.5427749995
8.918899143604493	1464583.4956090779
9.00808813504054	1458623.6295384082
9.098169016390944	1553644.9294944315
9.189150706554853	1587864.1245401015
9.281042213620402	1571678.2076408435
9.373852635756606	1470398.5123210538
9.467591162114172	1470237.051287519
9.562267073735315	1613916.6686263983
9.657889744472667	1452509.8127341955
9.754468641917395	1567125.7764367852
9.852013328336568	1253961.5917750937
9.950533461619933	1447078.98824283
10.050038796236134	1360981.8866584916
10.150539184198495	1380602.6072636428
10.252044576040479	1242369.941994653
10.354565021800884	1015241.9863311398
10.458110672018893	1020226.6728541376
10.562691778739081	1115329.0545793655
10.668318696526473	1109630.7493424774
10.775001883491738	1055058.525831082
10.882751902326655	926523.7705924087
10.991579421349924	712321.7201257803
11.101495215563421	957886.6175140076
11.212510167719055	884333.4975438737
11.324635269396246	830457.292080414
11.43788162209021	865225.6361755761
11.552260438311112	648217.701193963
11.667783042694223	666035.0390480767
11.784460873121166	626046.1452104744
11.902305481852377	695094.534672824
12.0213285366709	688194.1141932762
12.14154182203761	699457.5221673534
12.262957240257986	530930.9559791621
12.385586812660566	442372.23181951814
12.509442680787172	459039.7984041797
12.634537107595044	511862.0158916367
12.760882478670995	479049.69680730277
12.888491303457704	484961.00330753374
13.01737621649228	389026.23228709155
13.147549978657205	402842.12012562435
13.279025478443776	316748.4821031455
13.411815733228213	311425.12650024024
13.545933890560496	356914.65951137035
13.681393229466101	320293.61023154185
13.818207161760762	344274.8327067818
13.956389233378369	308598.07997082727
14.095953125712155	326001.7023997845
14.236912656969274	280340.9318088915
14.379281783538968	226594.74471622947
14.523074601374358	215953.16592424197
14.6683053473881	257472.3900098374
14.814988400861985	230539.45132965507
14.963138284870602	208664.53644903668
15.11276966771931	232382.31913041807
15.263897364396504	252055.0270913459
15.41653633804047	191639.15692697145
15.570701701420873	157859.14822082245
15.726408718435081	144766.85850681923
15.883672805619431	225696.81471901396
16.042509533675627	164823.55653144734
16.202934629012383	154119.1890190187
16.36496397530251	141482.9023464836
16.528613615055534	139019.49885480048
16.69389975120609	120962.09086857762
16.86083874871815	123595.42987528289
17.02944713620533	134535.94983711306
17.199741607567383	103446.11691897787
17.37173902364306	94291.85758696406
17.54545641387949	106732.7942741855
17.720910978018285	94701.00457726623
17.898120087798468	89598.60350355465
18.077101288676452	94225.004140555
18.257872301563214	92028.51708722187
18.44045102457885	85246.32811506401
18.62485553482464	74853.60221826458
18.811104090172883	111276.08057915125
18.999215131074614	68463.01514731854
19.189207282385357	71111.94209429124
19.381099355209216	57582.65469673776
19.574910348761303	59165.89088439489
19.77065945224892	64587.75050115491
19.968366046771408	76380.29748538024
20.16804970723912	63132.32925311299
20.369730204311512	53313.78466345163
20.573427506354626	48894.78721786865
20.779161781418175	55119.767298625164
20.98695339923236	43630.26007607498
21.19682293322468	44388.14747515168
21.408791162556927	56034.17629721896
21.622879074182496	39340.322532630715
21.839107864924323	37999.54922743796
22.057498943573567	38055.78732632485
22.278073933009303	40021.9927501965
22.500854672339393	32376.3370598217
22.72586321906279	52642.07937803086
22.953121851253417	30033.26906821449
23.18265306976595	48518.11147628021
23.41447960046361	38011.15054782409
23.648624396468247	26671.678378105382
23.88511064043293	24579.238468884458
24.12396174683726	40545.410200160695
24.365201364305634	36757.71958357287
24.608853377948687	34192.249669973855
24.854941911728176	28849.05337508975
25.103491330845458	19896.963165381374
25.354526244153913	19716.95270168098
25.608071506595454	27668.57663176731
25.864152221661406	26455.162982634767
26.122793743878024	23431.706030361795
26.384021681316803	24846.048186151624
26.64786189812997	15696.141562289222
26.91434051711127	20978.258946148922
27.18348392228238	22607.497827752337
27.455318761505207	27949.70188444983
27.72987194912026	21427.069520541692
28.007170668611465	14427.31991800609
28.28724237529758	12927.298541867647
28.57011479905055	12758.499827107878
28.855815947041062	17585.912152070377
29.144374106511474	13534.191274429746
29.435817847576587	14104.097440353617
29.730176026052348	13394.302025625579
30.027477786312875	14523.449632943411
30.327752564176006	10869.185939848978
30.631030089817763	11404.075655852288
30.93734039071594	10366.121387046634
31.246713794623105	11497.42112648878
31.559180932569333	13296.949713381697
31.874772741895026	10382.128538214134
32.19352046931398	12562.558406675422
32.51545567400712	12521.105490227132
32.84061023074719	7557.6173796936955
33.169016333054664	8020.589189496615
33.500706496385206	8166.928797984815
33.83571356134906	11871.936581270693
34.17407069696255	8178.6447636071825
34.51581140393218	6837.218103984646
34.8609695179715	7010.519726080446
35.209579213151216	6419.701474596677
35.56167500528272	5746.191042023468
35.917291755335555	5427.037110809609
36.27646467288891	6932.82020680814
36.639229319617804	6172.520602781746
37.005621612813975	7808.609600565023
37.37567782894212	5074.7142214958485
37.74943460723154	5686.272970037425
38.12692895330385	7109.248432688394
38.5081982428369	6491.127414175066
38.893280225265265	4515.158580150914
39.28221302751791	3867.08385511337
39.6750351577931	5302.397362284472
40.071785509371026	3729.1590601394796
40.47250336446474	3742.547596102671
40.87722839810939	3676.983155297198
41.28600068209048	4898.014220298613
41.69886068891139	4939.137652071851
42.1158492958005	4314.5676099999355
42.53700778875851	3943.24258637087
42.962377866646094	3026.880401645606
43.392001645312554	2874.72811930713
43.825921661765676	2680.657351437751
44.264180878383335	2716.3434734288458
44.70682268716717	2639.6804359199887
45.15389091403884	2748.9293680000874
45.60542982317923	3123.144970294877
46.06148412141103	2657.939080681371
46.52209896262513	2238.7681596219063
46.98731995225138	2164.4331067109565
47.4571931517739	2832.510495342566
47.93176508329164	2009.2549634528086
48.411082734124555	2472.2091096490894
48.8951935614658	1863.9151323679034
49.38414549708046	1694.1112670147056
49.877986952051266	1747.88651129241
50.37676682157178	1684.4412663545816
50.88053448978749	1623.2605422535323
51.38933983468537	1564.2491518975928
51.903233233032225	1507.3458241890164
52.422265565362544	1452.464121917569
52.946488221016175	1399.534004989369
53.47595310322633	1348.5071556308112
54.010712634258596	1299.2983355637732
54.550819760601186	1251.8499138613624
55.0963279582072	1206.1022852718745
55.647291237789275	1161.9918086670637
56.20376415016716	1119.4699013758702
56.765801791668835	1078.4700989624619
57.33345980958552	1038.945713156604
57.906794407681375	1000.8464526521516
58.48586235175819	964.1149154391665
59.070720975275776	928.7119497177723
59.661428185028534	894.5827637333995
60.25804246687882	861.6902156551068
60.860622891547614	829.9826088358104
61.46922912046309	799.4230828364238
62.083921411667724	769.9733397099673
62.7047606257844	741.5854264296653
63.331808232042235	714.2331036242109
63.965126314362664	687.8709887913137
64.60477757750628	662.4661491234435
65.25082535328136	637.9864105371213
65.90333360681416	614.3939887677136
66.56236694288232	591.6650951472127
67.22799061231113	569.7625342640047
67.90027051843424	548.6583847766212
68.57927322361859	528.3258535943712
69.26506595585477	508.73378048956
69.95771661541333	489.86072278697804
70.65729378156746	471.67610217818
71.36386671938313	454.157690549545
72.07750538657696	437.2809926425386
72.79828044044274	421.0220461059617
73.52626324484716	405.36103769498567
74.26152587729563	390.2734375397849
75.00414113606858	375.7414282188615
75.75418254742928	361.74301306243234
76.51172437290357	348.2584669281415
77.27684161663261	335.27201578528224
78.04961003279894	322.761551596194
78.83010613312693	310.7145311286564
79.6184071944582	299.11057293013005
80.41459126640278	287.93415225343983
81.2187371790668	277.1717074026136
82.03092455085748	266.8055387455358
82.85123379636605	256.82386223982115
83.6797461343297	247.21041643200843
84.51654359567301	237.95261100912438
85.36170903162974	229.03833551669783
86.21532612194603	220.45326778167865
87.0774793831655	212.18776181306248
87.94825417699715	204.22789164966406
88.82773671876713	196.56381007247109
89.71601408595481	189.18447237494834
90.61317422681435	182.07832607454918
91.5193059690825	175.23775578720563
92.43449902877332	168.65025764574978
93.35884401906105	162.30881582031176
