#wavelength	surface flux
0.6450077295303345	211095.1919499538
0.6472567915916443	219285.99228591693
0.6494921445846558	227913.65177279932
0.6517150402069092	236659.26058426438
0.6539263725280762	245255.45151713595
0.6561272740364075	254054.68236660646
0.6583186388015747	262829.3473249663
0.6605015397071838	272132.46876158233
0.6626768708229065	281282.6307103472
0.6648455858230591	290661.70792635984
0.6670085787773132	299548.4369398792
0.6691668033599854	290139.3270641843
0.6713210344314575	277620.07918036403
0.6734722256660461	327175.046682522
0.6756211519241333	340326.6393545913
0.6777685880661011	351476.8090917427
0.6799154281616211	362120.1704073158
0.6820623278617859	373159.69801851775
0.6842101216316223	384692.1112416093
0.6863595843315125	396106.16614833917
0.688511312007904	407667.2817378732
0.6906660795211792	418439.064977442
0.6928245425224304	428096.5578901459
0.6949873566627502	443279.7980580979
0.6971551775932312	456492.7846016907
0.6993286609649658	469083.98953322094
0.7015084028244019	481676.16313364485
0.7036949396133423	495156.16467753216
0.7058889269828796	509543.2088172238
0.7080909013748169	522942.41222973884
0.710301399230957	536835.5915195732
0.712520956993103	551507.5614021836
0.7147500514984131	565536.1897444245
0.7169892191886902	575786.613759272
0.7192389369010925	593200.6124056509
0.7214996814727783	607635.1859775268
0.723771870136261	621966.457319287
0.7260559797286987	635506.1383813494
0.7283523678779602	650929.9581384321
0.7306615710258484	664588.6501180101
0.7329838871955872	682417.2523023956
0.7353196740150452	697355.1856851431
0.7376693487167358	711860.1193285561
0.7400332689285278	726629.8028506147
0.7424117922782898	735941.945545755
0.7448052167892456	746010.8617875415
0.7472138404846191	750058.037654446
0.7496379613876343	747684.5900580779
0.7520779371261597	733097.4165648727
0.7545340061187744	699218.6561000163
0.7570064663887024	631082.8523893842
0.7594954967498779	508536.05099413363
0.7620013952255249	303283.8582488885
0.7645244002342224	78328.94673209914
0.7670646905899048	9810.213678830856
0.7696225643157959	12713.439654235051
0.7721980810165405	178531.543737822
0.7747915983200073	484149.7992984351
0.7774031162261963	710547.53857876
0.7800329327583313	784280.8322113539
0.7826811671257019	971704.0668128594
0.7853479981422424	1066184.871459996
0.7880334854125977	1135926.7130747733
0.7907378077507019	1192181.3582777525
0.7934610247612	942673.1247781108
0.7962033748626709	1054518.704464792
0.7989648580551147	1340833.8648353587
0.801745593547821	1388336.3235744445
0.8045456409454346	1432621.8522678271
0.8073651194572449	1475408.4767903802
0.8102040886878967	1506483.6906422537
0.8130625486373901	1541075.884957477
0.8159406185150146	1602358.1880343042
0.8188382983207703	1645545.0712856443
0.8217556476593018	1688415.4504858202
0.8246926665306091	1736958.0001257097
0.8276493549346924	1784317.397832727
0.8306257724761963	1824661.3927671884
0.8336219191551208	1877807.092555
0.8366377949714661	1917823.6510241998
0.8396733403205872	1969330.9300940426
0.8427285552024841	2037169.1836643047
0.8458034992218018	2091323.413723616
0.8488980531692505	2146514.939830547
0.8520121574401855	2189777.9383154525
0.8551458716392517	2261069.946464519
0.8582990765571594	2321540.0119681237
0.8614717125892639	2357925.4123178935
0.8646637797355652	2411171.717089369
0.8678751587867737	2481635.8185683754
0.8711057901382446	2545617.7610126655
0.8743556141853333	2607464.1411803355
0.87762451171875	2671748.626018312
0.8809124231338501	2717502.3954248666
0.8842192888259888	2795386.2789878417
0.8875449895858765	2852365.235490234
0.8908893465995789	2899136.1022796044
0.894252359867096	2917180.6290592635
0.8976338505744934	3031563.7660191264
0.9010337591171265	3136414.3144244435
0.9044519662857056	3230313.588192235
0.9078882932662964	3296470.6489574476
0.9113426208496094	3387863.254646756
0.914814829826355	3438665.856911837
0.9183048605918884	3480040.882382476
0.9218124747276306	3614323.097942585
0.925337553024292	3566990.5397359086
0.9288799166679382	3201235.776624974
0.9324395060539246	3408577.789783741
0.9360161423683167	3525372.480995278
0.9396095871925354	3786458.620627964
0.943219780921936	3765278.1898830216
0.9468464851379395	3685183.840610135
0.9504896402359009	3932532.7368176966
0.9541489481925964	4014940.848699381
0.9578243494033813	4134479.0792160067
0.9615156054496765	3965407.754564033
0.9652225375175476	4130062.4032377694
0.9689450263977051	4171628.0227582874
0.9726828336715698	4682603.765769666
0.9764357805252075	4706998.221719074
0.9802037477493286	4886084.851585261
0.983986496925354	5015521.928075249
0.9877838492393494	5151800.301111505
0.9915955662727356	5333779.307029408
0.9954215884208679	5462505.051194215
0.9992615580558777	5589550.409308303
1.0031154155731201	5686165.114492333
1.0069829225540161	5841332.420451375
1.0108637809753418	5983474.613972793
1.0147579908370972	6141811.094544294
1.018665075302124	6269396.088211752
1.022585153579712	6376651.444789314
1.0265177488327026	6463577.748449568
1.0304628610610962	6509762.335350775
1.0344202518463135	6781119.320706935
1.0383895635604858	6909692.635580399
1.0423706769943237	7044657.269202689
1.0463634729385376	7174715.382468863
1.0503677129745483	7276058.282435841
1.0543830394744873	7434853.330777622
1.058409333229065	7575739.369508952
1.0624464750289917	7705722.7133074375
1.0664942264556885	7840228.249531656
1.0705522298812866	7951149.587064778
1.0746204853057861	8115632.76882583
1.0786986351013184	8244181.767870227
1.0827864408493042	8393867.579398518
1.086883783340454	8513698.713803228
1.0909905433654785	8546541.25129091
1.0951062440872192	8616519.326533273
1.0992310047149658	8402960.660118792
1.10336434841156	7498996.793604699
1.1075061559677124	7747809.936662737
1.1116561889648438	7695439.641790602
1.115814208984375	7187468.677461201
1.1199802160263062	7329136.420616086
1.124153733253479	7800694.810854575
1.1283347606658936	8173525.4028403405
1.1325229406356812	7115478.121102171
1.1367181539535522	8143200.066323115
1.1409201622009277	8768853.309677497
1.145128846168518	9307961.834771357
1.1493438482284546	8989717.957917958
1.1535650491714478	6711032.980595383
1.1577922105789185	7796181.33140521
1.1620250940322876	8037929.819585975
1.1662636995315552	9507522.876831597
1.170507550239563	9194337.7950554
1.174756646156311	10128227.45677218
1.1790107488632202	10901008.873016668
1.1832695007324219	11368737.037836768
1.1875330209732056	11523929.539729256
1.191800832748413	11880511.025716553
1.1960728168487549	12232625.851803409
1.2003488540649414	12504559.146784319
1.2046287059783936	12553106.524028994
1.2089121341705322	12826813.281647623
1.2131990194320679	12983531.42604523
1.2174891233444214	13275731.926242055
1.2217823266983032	13468711.679284709
1.2260783910751343	13684677.47129449
1.230377197265625	13857958.563365504
1.2346785068511963	14022927.201899271
1.238982081413269	14225958.619625155
1.2432878017425537	14401150.616858117
1.2475954294204712	14571109.79517609
1.2519049644470215	14638634.105526423
1.256216049194336	14937727.937676763
1.2605286836624146	15073706.088744825
1.2648425102233887	15200493.355182458
1.2691574096679688	15353849.994857438
1.2734732627868652	15478343.73570138
1.2777899503707886	15675078.286574127
1.2821072340011597	15742054.465219883
1.2864248752593994	15895812.460268358
1.2907428741455078	15817134.829742532
1.2950609922409058	15993676.425619084
1.2993791103363037	16155363.352199601
1.303696870803833	16082501.916603152
1.3080145120620728	16225229.958938446
1.3123314380645752	16314196.630930664
1.3166478872299194	16784019.749556668
1.3209635019302368	16694371.113999674
1.3252781629562378	16007052.258867173
1.3295916318893433	15057477.289991088
1.3339040279388428	11216054.67171962
1.3382149934768677	5799509.657908174
1.3425244092941284	3590571.9579957426
1.3468321561813354	6925479.989638075
1.3511382341384888	4445993.15419695
1.3554422855377197	2908433.1561144046
1.3597444295883179	3316876.2671953505
1.3640443086624146	4060292.811164546
1.3683418035507202	4027924.435097207
1.3726370334625244	6963294.951116659
1.3769296407699585	10402120.001900401
1.381219506263733	5746414.291170631
1.3855066299438477	2297883.67632095
1.3897908926010132	2792473.847294573
1.3940720558166504	3523709.4892674224
1.3983501195907593	2840129.8316677217
1.4026249647140503	5596882.540987367
1.4068963527679443	8458124.629356096
1.4111642837524414	3516437.851679846
1.4154287576675415	4532469.901676214
1.419689416885376	5171872.603026152
1.4239463806152344	3145127.6012930125
1.4281994104385376	6945927.011985018
1.4324485063552856	4690162.217892553
1.436693549156189	6018622.764206792
1.440934419631958	6330511.381766354
1.4451709985733032	8355676.310644162
1.449403166770935	12030217.19388375
1.453631043434143	12515446.411690824
1.4578542709350586	13334785.237262676
1.4620729684829712	13509395.23769544
1.4662868976593018	14529517.42192329
1.4704961776733398	12891614.833223477
1.4747005701065063	13340409.938432196
1.4788999557495117	13498807.824670503
1.4830944538116455	15675555.336025828
1.4872838258743286	16949343.618715953
1.491468071937561	17071455.61435247
1.4956470727920532	16295354.237781499
1.4998208284378052	17731851.07737141
1.5039892196655273	18961367.75620679
1.5081522464752197	18372551.897601936
1.5123097896575928	18879092.78002325
1.5164618492126465	19840834.053297196
1.5206083059310913	21231808.123133577
1.5247491598129272	22171373.01320249
1.5288842916488647	21567788.9425976
1.5330137014389038	22243366.84261408
1.5371372699737549	22814141.110670567
1.541254997253418	22751352.08178494
1.545366883277893	23196033.601432994
1.5494728088378906	23526186.752997648
1.5535727739334106	23943008.591489382
1.5576666593551636	23544974.246585645
1.561754584312439	23804362.111493867
1.5658363103866577	24625646.26906827
1.5699119567871094	24914678.094053343
1.5739814043045044	24588702.936443098
1.5780447721481323	23981682.66034617
1.582101821899414	24598378.57217018
1.5861525535583496	25686576.31589397
1.5901970863342285	25694736.240554664
1.5942351818084717	25648904.6431871
1.5982669591903687	25411086.952287354
1.6022924184799194	25499073.980451405
1.606311559677124	25797164.536812704
1.6103241443634033	25802379.972303115
1.6143304109573364	25631694.434229784
1.6183301210403442	25592413.817752965
1.6223233938217163	25332271.885108016
1.6263102293014526	25338408.585013874
1.6302905082702637	24728775.061868865
1.634264349937439	25202533.6300475
1.638231635093689	26806778.41165598
1.6421923637390137	27011185.87553126
1.646146535873413	26484040.477177847
1.6500942707061768	25712547.483144473
1.6540353298187256	26727465.847775143
1.6579699516296387	26970222.803607296
1.661897897720337	26657874.091634918
1.6658192873001099	23819060.435425248
1.6697341203689575	23634208.637866896
1.6736423969268799	26668528.57907574
1.677544116973877	26736167.23956814
1.6814392805099487	26491188.90449391
1.6853278875350952	26603827.020811092
1.6892099380493164	26179469.279731285
1.6930854320526123	25298024.1385785
1.696954369544983	23660889.574854814
1.7008168697357178	24544604.876554243
1.7046726942062378	24379847.688050028
1.708522081375122	25463190.48765642
1.712364912033081	25440718.603088286
1.7162011861801147	26100027.405170735
1.7200311422348022	26799963.792159226
1.723854422569275	26618795.02296041
1.7276713848114014	26300737.532243825
1.731481909751892	25512737.958101828
1.7352858781814575	24653025.579192027
1.7390835285186768	24351690.382450346
1.7428747415542603	23887208.251166347
1.7466596364974976	22496463.7591798
1.7504380941390991	21497253.51540461
1.7542102336883545	18929409.059375532
1.7579760551452637	22810232.96153845
1.7617355585098267	24766362.042583335
1.7654887437820435	22545524.61933423
1.7692357301712036	19098699.050893836
1.7729763984680176	15495547.844109131
1.776710867881775	10089262.136262756
1.7804391384124756	9649037.932904636
1.7841613292694092	11448630.98742664
1.7878772020339966	8331875.454745645
1.7915871143341064	10146374.213983692
1.7952908277511597	11945217.530244188
1.7989884614944458	12226078.186858166
1.8026801347732544	7283447.4107997455
1.806365728378296	3587180.9269745997
1.8100452423095703	4877219.204668743
1.8137187957763672	7809754.489372463
1.817386507987976	3251633.746271775
1.8210482597351074	7443732.144156499
1.8247040510177612	8328094.757725313
1.828354001045227	3064915.7769231056
1.8319982290267944	4290024.697335769
1.8356364965438843	6851092.300770397
1.8392690420150757	9919842.440277424
1.8428958654403687	8642061.023712814
1.8465168476104736	8709161.01628522
1.8501322269439697	9415664.632647974
1.8537418842315674	5269724.995664831
1.8573459386825562	4648681.751311306
1.860944390296936	5010102.043591401
1.864537239074707	3006529.2035887768
1.8681244850158691	4380393.993647133
1.871706247329712	7430284.066545475
1.8752825260162354	9544101.972016918
1.8788533210754395	12286477.56186992
1.8824186325073242	14638813.694950888
1.8859784603118896	12186315.028929738
1.8895330429077148	11369858.047326552
1.8930821418762207	15141841.069873426
1.8966259956359863	14131219.663900066
1.9001644849777222	6217572.275997666
1.9036977291107178	3695877.7704284857
1.9072256088256836	6277475.686244168
1.9107483625411987	5389945.2140548965
1.9142658710479736	2401776.7410475113
1.9177782535552979	3048067.104663703
1.9212853908538818	4976641.022629246
1.9247875213623047	3999369.2126520113
1.9282845258712769	4425300.700373394
1.9317764043807983	6342540.698731141
1.9352631568908691	6672212.697694082
1.9387450218200684	5514054.699784483
1.942221760749817	6652928.07220589
1.9456936120986938	6888441.43918086
1.9491604566574097	7778967.813749183
1.952622413635254	6991896.971376887
1.956079363822937	5120436.894078321
1.959531545639038	6433169.418859607
1.962978720664978	6570445.567619466
1.966421127319336	8246836.954668636
1.9698586463928223	11709290.473098135
1.9732913970947266	11992648.60357153
1.9767193794250488	12485333.908111576
1.9801424741744995	15133772.87490139
1.9835609197616577	16807392.07005235
1.9869745969772339	17124006.081411023
1.990383505821228	13821429.24719479
1.9937876462936401	14429332.466784948
1.9971871376037598	14289949.990478858
2.000581979751587	15067861.48968057
2.003972291946411	18966348.482557446
2.007357597351074	19888815.027261652
2.0107386112213135	22248427.330276784
2.0141148567199707	22560953.505736023
2.017486572265625	20338632.57483279
2.0208535194396973	21709792.137852337
2.0242159366607666	24429504.097599123
2.027573823928833	25166885.717124116
2.0309269428253174	25967630.63398432
2.034275770187378	27109003.09235385
2.0376198291778564	27746552.027105935
2.040959596633911	28334288.82436849
2.044294595718384	29260713.563478623
2.0476250648498535	30323065.072276436
2.0509510040283203	30274430.39198114
2.054272413253784	29548692.42929135
2.057589530944824	30028478.623969726
2.0609018802642822	30753083.833606135
2.0642096996307373	31267374.90369231
2.0675129890441895	31586866.218136456
2.0708119869232178	31730274.01122892
2.074106216430664	31551397.729329668
2.0773961544036865	31477675.22577735
2.080681324005127	31747988.37437787
2.0839622020721436	31939789.85591057
2.087238311767578	32086563.830157757
2.090510129928589	32047655.586321514
2.0937774181365967	31825300.389935255
2.0970399379730225	31929418.15736205
2.1002981662750244	31931298.790697575
2.1035518646240234	31755142.61714928
2.1068007946014404	31498543.555034366
2.1100454330444336	31791653.567987185
2.1132853031158447	32124767.558600508
2.116520881652832	31863461.667320676
2.1197516918182373	31749613.532637827
2.1229779720306396	31895804.48129737
2.12619948387146	32032885.285156213
2.1294167041778564	32043769.513868205
2.132629156112671	32112536.245575033
2.1358368396759033	31902959.677778345
2.139039993286133	31512263.26144064
2.1422386169433594	31217618.69980202
2.145432472229004	30955985.10477926
2.1486217975616455	30796011.334920656
2.151806354522705	30441175.114316646
2.1549863815307617	30534510.670152895
2.1581614017486572	30642075.672330603
2.16133189201355	30223762.857969515
2.1644976139068604	30080560.663862206
2.167658567428589	30043453.087820653
2.1708147525787354	30082421.246261217
2.173966407775879	29977848.504486836
2.1771130561828613	29809481.35202238
2.1802549362182617	29595257.03417838
2.183391809463501	29213392.989691645
2.1865241527557373	28674705.3046617
2.1896514892578125	27932171.34280339
2.1927738189697266	26190104.79249014
2.1958916187286377	23392852.48960918
2.1990041732788086	20977395.44275806
2.2021119594573975	19785907.421685174
2.2052149772644043	19424056.768073227
2.208312749862671	19855830.117043145
2.2114057540893555	20969379.76261569
2.214493751525879	21770000.472343426
2.217576742172241	21496585.30853733
2.2206547260284424	21237523.41825378
2.2237277030944824	20981129.841853432
2.2267956733703613	19593329.646919753
2.2298583984375	17899467.848257776
2.2329163551330566	17062293.343092065
2.235969066619873	16918146.2608107
2.2390167713165283	16514702.604962794
2.2420592308044434	15169576.53999138
2.2450966835021973	13900701.85465995
2.248128890991211	14407201.892040286
2.2511560916900635	15757272.694096794
2.254178285598755	16358428.97961788
2.257194995880127	16756289.528140455
2.260206699371338	16594887.236401683
2.2632133960723877	15195598.77000088
2.266214609146118	13718905.136157582
2.2692108154296875	13413220.183971092
2.2722020149230957	14318803.750757085
2.2751877307891846	15148884.02634819
2.278168201446533	14897315.339823963
2.2811436653137207	14086746.191012269
2.284113883972168	13462870.270996718
2.287078857421875	12880408.408234447
2.290038824081421	12208618.81200389
2.2929933071136475	11623254.739966348
2.295942783355713	11059038.964891138
2.298887014389038	10499478.618428424
2.301826238632202	10219205.86373066
2.304760217666626	10443000.661203755
2.3076889514923096	11125978.094152717
2.310612440109253	11866201.052387346
2.3135311603546143	11509795.35775968
2.3164443969726562	9238354.843869004
2.319352865219116	7195647.011039533
2.322256088256836	6837319.769528023
2.3251543045043945	6791792.235083674
2.328047275543213	6706642.903626599
2.330935478210449	6913755.380888041
2.3338186740875244	7138338.692467869
2.3366971015930176	7319201.855408727
2.3395702838897705	7446248.540241074
2.3424389362335205	7410065.297699558
2.3453025817871094	7310979.001052734
2.348161458969116	7419694.198686761
2.351015567779541	8010200.2685087705
2.353865146636963	8945637.863994017
2.3567099571228027	9741420.425050594
2.3595502376556396	10402868.155332029
2.3623859882354736	11195461.023729246
2.3652172088623047	10799626.287739856
2.368043899536133	8172566.302686112
2.370866537094116	6282525.18930964
2.3736846446990967	6334886.623211732
2.3764986991882324	6515518.120347701
2.3793084621429443	6466209.722848652
2.3821144104003906	6900411.962617242
2.384916305541992	8143545.185351554
2.387714147567749	9511131.549546445
2.3905084133148193	10029790.843628509
2.393299102783203	9856506.962409329
2.3960859775543213	9326138.275848676
2.398869514465332	8952870.926538102
2.4016497135162354	8592840.815882891
2.4044265747070312	8601910.065401733
2.407200336456299	9276298.138497023
2.409970998764038	10289264.742902424
2.4127390384674072	10974858.419565938
2.415503978729248	11377298.556450617
2.418266534805298	12257381.234425481
2.4210267066955566	12594052.134665478
2.4237842559814453	11851698.471091354
2.426539897918701	11166986.082600638
2.429293394088745	11285050.331953213
2.4320452213287354	11998608.97251041
2.4347951412200928	12443822.452852482
2.4375438690185547	12341730.674086357
2.440291166305542	11874747.958147876
2.443037271499634	10991167.486688565
2.445782423019409	9845308.22970599
2.4485268592834473	8898861.057662811
2.451270818710327	8836320.096385427
2.454014539718628	10039233.635342943
2.4567582607269287	11312702.785766667
2.4595019817352295	10850101.126656324
2.4622461795806885	11068391.96869443
2.4649908542633057	10486035.724337427
2.4677364826202393	8736409.053765327
2.4704833030700684	6463613.928041839
2.473231554031372	4754731.085825442
2.4759814739227295	3738495.753818036
2.4787333011627197	3623512.7041721605
