#wavelength	surface flux
0.8	44884437.88762945
0.8002000000000001	45071279.006037764
0.8004000500000003	44993430.13706483
0.8006001500125003	44912887.70456882
0.8008003000500035	44832325.13646468
0.8010005001250161	44751742.427718475
0.8012007502500472	44671139.5732952
0.8014010504376099	44749413.90545543
0.8016014007002193	44880933.559701525
0.8018018010503944	45012486.09386118
0.8020022515006572	45144071.51615442
0.8022027520635323	45275689.834803134
0.8024033027515483	45386264.141796045
0.8026039035772362	45476211.53588417
0.8028045545531306	45566181.416820824
0.8030052556917691	45656173.790227756
0.803206007005692	45746188.66172796
0.8034068085074435	45825875.66529355
0.8036076602095705	45876568.9806284
0.8038085621246229	45927274.96929204
0.8040095142651542	45977993.63445287
0.8042105166437206	46028724.97927998
0.8044115692728815	46076810.1412646
0.8046126721651998	46010544.82711247
0.8048138253332411	45944262.946631856
0.8050150287895745	45877964.49568106
0.805216282546772	45811649.47011755
0.8054175866174087	45745317.86579767
0.8056189410140631	45698156.63223791
0.8058203457493168	45656414.76069267
0.8060218008357541	45614662.45367959
0.8062233062859632	45572899.70858974
0.8064248621125346	45531126.52281365
0.806626468328063	45512117.14453899
0.8068281249451449	45512663.34025848
0.8070298319763813	45513209.6725269
0.8072315894343755	45513756.141378395
0.8074333973317341	45514302.7468471
0.8076352556810671	45538794.994339354
0.8078371644949874	45620934.194781475
0.8080391237861113	45703093.93002372
0.8082411335670578	45785274.20519973
0.8084431938504498	45867475.02544462
0.8086453046489125	45949503.99429885
0.8088474659750746	46027971.29738809
0.8090496778415686	46106458.21730322
0.809251940261029	46184964.75894826
0.8094542532460944	46263490.927228786
0.8096566168094059	46342036.72705129
0.8098590309636085	46344474.13380925
0.8100614957213493	46329093.76300414
0.8102640110952797	46313709.547106326
0.8104665770980536	46298321.485154524
0.8106691937423283	46282929.57618724
0.8108718610407639	46282725.953160554
0.8110745790060241	46294138.90665551
0.8112773476507757	46305554.71338886
0.8114801669876885	46316973.374073885
0.8116830370294355	46328394.88942407
0.8118859577886929	46370718.17449123
0.8120889292781401	46477230.436602905
0.8122919515104597	46583769.3267801
0.8124950244983374	46690334.851679854
0.8126981482544621	46796927.01796081
0.8129013227915257	46905242.29229661
0.8131045481222237	47033009.37196584
0.8133078242592543	47160808.39340499
0.8135111512153191	47288639.364599474
0.813714529003123	47416502.29353677
0.8139179576353739	47544397.18820632
0.8141214371247829	47598194.29932806
0.8143249674840641	47637629.85294339
0.814528548725935	47677075.265447095
0.8147321808631167	47716530.53930399
0.8149358639083326	47755995.676979326
0.8151395978743097	47728443.39566722
0.8153433827737784	47655597.78013276
0.8155472186194719	47582733.953194454
0.8157511054241268	47509851.91029943
0.815955043200483	47436951.64689362
0.8161590319612831	47363542.95880207
0.8163630717192736	47289217.68748781
0.8165671624872033	47214873.83485582
0.8167713042778252	47140511.39626059
0.8169754971038948	47066130.36705568
0.8171797409781707	46972924.40288352
0.8173840359134155	46729558.302816086
0.8175883819223938	46486131.36122391
0.8177927790178745	46242643.56289619
0.8179972272126291	45999094.892618835
0.8182017265194322	45755485.33517415
0.8184062769510622	45728543.2857838
0.8186108785203001	45734945.79550691
0.8188155312399301	45741349.90585745
0.8190202351227402	45747755.617235586
0.819224990181521	45754162.93004157
0.8194297964290664	45966095.50006044
0.8196346538781738	46301960.07194568
0.8198395625416434	46637908.609973766
0.8200445224322789	46973941.13513649
0.820249533562887	47310057.66843042
0.8204545959462778	47587708.880087584
0.8206597095952644	47771195.905107915
0.8208648745226633	47954728.801884644
0.8210700907412941	48138307.58188553
0.8212753582639793	48321932.25658124
0.8214806771035456	48496817.553654484
0.8216860472728215	48617618.52038787
0.8218914687846397	48738449.68736295
0.822096941651836	48859311.062129825
0.822302465887249	48980202.65224033
0.8225080415037209	49101124.46524843
0.8227136685140968	49265602.03571293
0.8229193469312254	49435061.78256412
0.8231250767679583	49604563.89435207
0.8233308580371503	49774108.38166788
0.8235366907516598	49943695.25510565
0.8237425749243477	49984407.63310549
0.8239485105680789	49956801.9700739
0.824154497695721	49929189.40562657
0.824360536320145	49901569.93803813
0.8245666264542252	49873943.5655828
0.8247727681108388	49911545.23802464
0.8249789613028664	50042585.03946886
0.8251852060431922	50173657.60086357
0.825391502344703	50304762.93039855
0.8255978502202894	50435901.03626605
0.8258042496828445	50562408.724519804
0.8260107007452654	50666300.87010141
0.8262172034204517	50770218.98871929
0.8264237577213068	50874163.08686686
0.8266303636607373	50978133.171039015
0.8268370212516525	51082129.24773216
0.8270437305069654	51114238.082108065
0.8272504914395923	51140735.39125684
0.8274573040624523	51167239.324732915
0.8276641683884679	51193749.884192325
0.8278710844305652	51220267.07129164
0.8280780522016729	51312572.23346209
0.8282850717147234	51434969.00326033
0.8284921429826521	51557396.37225089
0.8286992660183978	51679854.3480838
0.8289064408349024	51802342.93841058
0.8291136674451112	51938620.912456684
0.8293209458619727	52092282.06489573
0.8295282760984382	52245981.632622674
0.829735658167463	52399719.625241734
0.8299430920820048	52553496.052358754
0.8301505778550254	52684778.99904165
0.8303581154994891	52726163.2574183
0.8305657050283641	52767557.86185959
0.8307733464546212	52808962.81495196
0.8309810397912352	52850378.11928267
0.8311887850511829	52891803.777439386
0.8313965822474458	53050479.821154386
0.8316044313930077	53214637.26380311
0.8318123325008561	53378835.745812654
0.8320202855839813	53543075.27744262
0.8322282906553774	53707355.8689555
0.8324363477280413	53862703.96479034
0.8326444568149735	54014478.17170518
0.8328526179291771	54166290.32217157
0.8330608310836596	54318140.4256758
0.8332690962914304	54470028.491705716
0.8334774135655034	54547208.96701769
0.833685782918895	54540915.48928443
0.8338942043646247	54534620.43818175
0.834102677915716	54528323.813316286
0.834311203585195	54522025.61429461
0.8345197813860912	54571125.937184386
0.8347284113314379	54806720.44064106
0.8349370934342709	55042373.84272346
0.8351458277076294	55278086.1581561
0.8353546141645565	55513857.40166798
0.8355634528180977	55749687.58799065
0.8357723436813022	55526135.252643704
0.8359812867672226	55296854.097607054
0.8361902820889144	55067515.62228176
0.8363993296594368	54838119.81233757
0.8366084294918518	54608666.65344082
0.8368175815992247	54476297.70454894
0.8370267859946247	54377352.21901824
0.8372360426911234	54278381.997116186
0.8374453517017962	54179387.032658674
0.8376547130397217	54080367.31946006
0.8378641267179816	54117546.87063657
0.8380735927496613	54289905.35540091
0.8382831111478488	54462306.92978634
0.8384926819256358	54634751.60456528
0.8387023050961173	54807239.390513055
0.8389119806723914	54921378.72593693
0.8391217086675596	54871213.63121742
0.8393314890947265	54821035.99522427
0.8395413219670003	54770845.814822115
0.8397512072974922	54720643.08687482
0.8399611450993165	54671883.1863686
0.8401711353855914	54695384.65335154
0.8403811781694378	54718891.995701216
0.8405912734639802	54742405.21488649
0.8408014212823464	54765924.312376566
0.8410116216376671	54789449.289641015
0.8412218745430766	54784701.77637501
0.8414321800117124	54771725.161268964
0.8416425380567154	54758745.302009135
0.8418529486912297	54745762.19778448
0.8420634119284025	54732775.8477838
0.8422739277813847	54944719.48332662
0.8424844962633302	55354891.01053458
0.842695117387396	55765165.08062382
0.8429057911667428	56175541.71923059
0.8431165176145345	56586020.95199722
0.8433272967439382	56844414.03092777
0.8435381285681244	56731641.0872398
0.8437490131002665	56618839.95031594
0.8439599503535415	56506010.61310792
0.84417094034113	56393153.06856551
0.8443819830762154	56273235.37061413
0.8445930785719846	56011628.68048041
0.8448042268416277	55749956.58867431
0.8450154278983382	55488219.07884529
0.8452266817553128	55226416.13463883
0.8454379884257517	54964547.739696294
0.8456493479228583	55037663.79100312
0.845860760259839	55191482.16723675
0.846072225449904	55345338.998064436
0.8462837435062666	55499234.29309986
0.8464953144421433	55653168.061959125
0.8467069382707537	55781038.10363894
0.8469186150053215	55888594.24129532
0.847130344659073	55996177.267986156
0.8473421272452377	56103787.19043355
0.8475539627770492	56211424.01536167
0.8477658512677435	56290956.6336093
0.8479777927305605	56310776.4147904
0.8481897871787432	56330601.1509168
0.848401834625538	56350430.84322724
0.8486139350841944	56370265.492960736
0.8488260885679657	56373268.492658444
0.8490382950901076	56171039.96009842
0.8492505546638802	55968760.87040516
0.8494628673025462	55766431.21093954
0.8496752330193721	55564050.96905876
0.8498876518276269	55361620.13211778
0.8501001237405839	55452189.47416736
0.8503126487715191	55601279.542381376
0.850525226933712	55750406.88311236
0.8507378582404455	55899571.50567853
0.8509505427050057	56048773.419400424
0.8511632803406821	56382157.46977113
0.8513760711607672	56841730.358921446
0.8515889151785576	57301418.14129477
0.8518018124073523	57761220.84561329
0.8520147628604541	58221138.500607625
0.8522277665511693	58611736.24591076
0.8524408234928071	58874020.20633126
0.8526539336986805	59136369.73774194
0.8528670971821053	59398784.856535494
0.8530803139564007	59661265.57910843
0.8532935840348901	59896144.555982135
0.8535069074308987	59897417.20969012
0.8537202841577566	59898690.18156153
0.8539337142287962	59899963.47167591
0.8541471976573534	59901237.080112815
0.8543607344567677	59902511.00695183
0.8545743246403821	59874016.94029233
0.8547879682215422	59840788.201938905
0.8550016652135977	59807551.156400904
0.8552154156299011	59774305.80160151
0.8554292194838088	59741052.135463394
0.8556430767886797	59644985.256406836
0.855856987557877	59510760.884428404
0.8560709518047664	59376502.95635706
0.8562849695427177	59242211.46380365
0.8564990407851035	59107886.39837706
0.8567131655452999	59031225.41443678
0.8569273438366862	59049084.81120659
0.8571415756726455	59066948.67282559
0.8573558610665638	59084817.00041
0.8575702000318304	59102689.79507629
0.8577845925818384	59211910.950536236
0.857999038729984	59891727.015808865
0.8582135384896665	60571713.03509766
0.858428091874289	61251869.05089132
0.8586426988972576	61932195.105688736
0.8588573595719821	62612691.24200009
0.8590720739118751	62387391.90860309
0.8592868419303532	62055220.199854724
0.8595016636408359	61722965.44817916
0.8597165390567462	61390627.6328158
0.8599314681915105	61058206.73299851
0.8601464510585584	60797282.5438149
0.860361487671323	60574287.19016737
0.8605765780432408	60351236.08768149
0.8607917221877518	60128129.2224198
0.8610069201182988	59904966.580441855
0.8612221718483286	59416641.415767685
0.8614374773912907	58546006.93865092
0.8616528367606385	57675154.80291511
0.8618682499698288	56804084.95414481
0.8620837170323213	55932797.33791247
0.8622992379615795	55200180.89003199
0.8625148127710699	55154689.68986352
0.8627304414742627	55109187.116895005
0.8629461240846313	55063673.16828324
0.8631618606156526	55018147.84118431
0.8633776510808066	54972611.13275362
0.8635934954935769	55834951.19212797
0.8638093938674504	56771928.07037417
0.8640253462159173	57709139.1928399
0.8642413525524714	58646584.61808623
0.8644574128906095	59584264.404688664
0.8646735272438323	59515253.221371755
0.8648896956256433	58977976.57839333
0.8651059180495498	58440565.61625413
0.8653221945290621	57903020.301374905
0.8655385250776946	57365340.60016622
0.8657549097089641	57180403.887123786
0.8659713484363913	57447181.593666896
0.8661878412735006	57714025.994636774
0.866404388233819	57980937.10670686
0.8666209893308775	58247914.94655483
0.8668376445782103	58463285.18754832
0.8670543539893549	58467800.04404778
0.8672711175778525	58472316.02926138
0.8674879353572469	58476833.14347127
0.8677048073410862	58481351.38695972
0.8679217335429217	58485870.760009035
0.8681387139763074	58387974.6078336
0.8683557486548015	58284966.18312577
0.8685728375919655	58181932.00631163
0.8687899808013633	58078872.07095352
0.8690071782965637	57975786.37061143
0.869224430091138	57879062.51042892
0.8694417361986609	57784913.58036035
0.8696590966327107	57690741.11305929
0.869876511406869	57596545.102641396
0.8700939805347206	57502325.54322094
0.8703115040298544	57438711.884084664
0.870529081905862	57410100.649568915
0.8707467141763385	57381482.26224455
0.8709644008548827	57352856.720323354
0.8711821419550964	57324224.02201669
0.8713999374905854	57339937.70453537
0.871617787474958	57508734.76751502
0.8718356919218269	57677574.02976056
0.8720536508448075	57846455.50182168
0.8722716642575187	58015379.19425071
0.8724897321735832	58184345.11760293
0.8727078546066265	58300325.216616504
0.8729260315702784	58415527.57982124
0.873144263078171	58530758.74361663
0.8733625491439405	58646018.715203
0.8735808897812266	58761307.501782306
0.8737992850036719	58770971.80452865
0.874017734824923	58743217.85958817
0.8742362392586293	58715456.976161465
0.874454798318444	58687689.15251391
0.8746734120180236	58659914.38691044
0.8748920803710283	58655323.23747906
0.875110803391121	58674035.24317057
0.8753295810919689	58692751.92686351
0.875548413487242	58711473.289727375
0.8757673005906139	58730199.33293195
0.8759862424157616	58808208.34644565
0.8762052389763657	59057761.38835398
0.8764242902861098	59307376.81852262
0.8766433963586814	59557054.652548864
0.8768625572077712	59806794.906033695
0.8770817728470732	60056020.83195452
0.8773010432902849	60260276.893720195
0.8775203685511077	60464584.01950161
0.8777397486432454	60668942.22206421
0.8779591835804065	60873351.51417771
0.8781786733763015	61077811.90861396
0.8783982180446457	60877601.774806455
0.878617817599157	60556944.46439819
0.8788374720535569	60236206.989662476
0.8790571814215703	59915389.33055815
0.8792769457169257	59594491.46703905
0.879496764953355	59412606.48930638
0.8797166391445934	59355729.88224593
0.8799365683043796	59298839.0560337
0.8801565524464557	59241934.007114924
0.8803765915845676	59185014.73193386
0.8805966857324639	59245341.13446602
0.880816834903897	59600204.35323859
0.881037039112623	59955156.287815996
0.8812572983724012	60310196.96037701
0.8814776126969944	60665326.39310632
0.8816979821001687	61004358.72895661
0.8819184065956938	60962457.501259334
0.8821388861973429	60920545.79825509
0.8823594209188923	60878623.61732515
0.882580010774122	60836690.95584998
0.8828006557768155	60794747.811209425
0.8830213559407598	61013406.79980753
0.8832421112797452	61297667.172242455
0.8834629218075651	61581998.60977032
0.8836837875380171	61866401.13015766
0.8839047084849018	62150874.75117513
0.884125684662023	62100980.8429953
0.8843467160831886	61783064.59801565
0.8845678027622095	61465068.873974755
0.8847889447129001	61146993.651002795
0.8850101419490785	60828838.90922514
0.8852313944845657	60805126.50998164
0.885452702333187	61426080.45732235
0.8856740655087704	62047189.64314981
0.8858954840251476	62668454.106273554
0.8861169578961539	63289873.8855128
0.886338487135628	63835218.816345915
0.886560071757412	63366273.75498472
0.8867817117753515	62897211.457358204
0.8870034072032955	62428031.89415706
0.8872251580550963	61958735.036065675
0.8874469643446101	61489320.85375947
0.8876688260856963	61514679.21987406
0.8878907432922178	61642467.73317655
0.8881127159780409	61770288.193607286
0.8883347441570356	61898140.60915328
0.8885568278430749	62026024.98780302
0.8887789670500358	62064419.56733628
0.8890011617917983	62039319.36110688
0.8892234120822464	62014212.87982591
0.8894457179352669	61989100.12192464
0.8896680793647509	61963981.08583387
0.8898904963845921	61984106.18245616
0.8901129690086883	62090575.288471185
0.8903354972509405	62197071.01176269
0.8905580811252535	62303593.35898511
0.8907807206455347	62410142.33679418
0.8910034158256963	62505905.98253385
0.8912261666796527	62505067.39009107
0.8914489732213227	62504228.588000186
0.8916718354646282	62503389.57620877
0.8918947534234944	62502550.354664415
0.8921177271118502	62501710.92331467
0.8923407565436284	62621262.17936333
0.8925638417327644	62760482.35215103
0.8927869826931977	62899737.329981975
0.8930101794388711	63039027.12155737
0.8932334319837308	63178351.73558063
0.8934567403417267	63350346.480484314
0.8936801045268123	63542663.2211891
0.8939035245529441	63735028.041078925
0.8941270004340824	63927440.9521738
0.894350532184191	64119901.9664964
0.8945741198172371	64257234.59900818
0.8947977633471915	64303097.925954714
0.8950214627880284	64348972.71873298
0.8952452181537254	64394858.98020942
0.8954690294582639	64440756.713251255
0.8956928967156286	64475996.003213815
0.8959168199398075	64442000.13926972
0.8961407991447926	64407995.776359625
0.8963648343445789	64373982.912358806
0.896588925553165	64339961.54514201
0.8968130727845534	64305931.6725834
0.8970372760527496	64551306.276237205
0.8972615353717629	64831702.41466157
0.8974858507556059	65112168.65212058
0.8977102222182949	65392705.006138876
0.8979346497738496	65673311.494245835
0.8981591334362931	65876758.13864537
0.8983836732196523	66038020.37621168
0.8986082691379572	66199322.92933727
0.8988329212052417	66360665.80810115
0.8990576294355432	66522049.022584856
0.8992823938429022	66488307.914436445
0.8995072144413631	66164373.310677186
0.8997320912449734	65840357.7232671
0.8999570242677847	65516261.13196024
0.9001820135238516	65192083.51650554
0.9004070590272328	64932277.247972414
0.9006321607919896	65010287.451985806
0.9008573188321878	65088317.158550285
0.9010825331618959	65166366.37254136
0.9013078037951865	65244435.09883595
0.9015331307461353	65322523.342312075
0.9017585140288219	65447851.724341296
0.9019839536573292	65577278.67256019
0.9022094496457435	65706737.97751605
0.9024350020081551	65836229.64729829
0.9026606107586572	65965753.68999794
0.902886275911347	66130743.3448607
0.9031119974803249	66312855.53093374
0.9033377754796951	66495013.245053284
0.903563609923565	66677216.49860129
0.903789500826046	66859465.302962795
0.9040154482012526	66993146.196330264
0.904241452063303	67063886.00006784
0.9044675124263188	67134643.48875633
0.9046936293044254	67205418.666817
0.9049198027117517	67276211.5386722
0.9051460326624297	67321467.6189442
0.9053723191705955	67257918.05076955
0.9055986622503881	67194352.59520292
0.9058250619159507	67130771.2482724
0.9060515181814298	67067174.00600511
0.9062780310609752	67003560.86442729
0.9065046005687405	67089747.305209376
0.906731226718883	67184313.05561374
0.9069579095255627	67278902.44745557
0.907184649002944	67373515.48664539
0.907411445165195	67468152.17909509
0.9076382980264862	67358330.82152611
0.907865207600993	67163561.13350832
0.9080921739028933	66968742.7530686
0.9083191969463691	66773875.66803379
0.9085462767456058	66578959.86622763
0.9087734133147922	66733358.42843791
0.9090006066681211	67291314.29310347
0.909227856819788	67849409.64673446
0.9094551637839932	68407644.52420464
0.9096825275749393	68966018.960394
0.9099099482068329	69345861.591258
0.9101374256938848	69090797.93287472
0.9103649600503083	68835670.50857697
0.9105925512903209	68580479.30242321
0.9108201994281437	68325224.29846762
0.9110479044780008	68069905.48076135
0.9112756664541204	68164788.93934296
0.911503485370734	68267713.64820504
0.9117313612420768	68370664.08824433
0.9119592940823873	68473640.26589361
0.912187283905908	68576642.18758734
0.9124153307268845	68586704.74109843
0.9126434345595664	68563028.9061303
0.9128715954182063	68539347.15220344
0.9130998133170609	68515659.4778381
0.9133280882703902	68491965.88155416
0.913556420292458	68521730.85467151
0.9137848093975312	68606641.9898816
0.9140132555998806	68691574.3528755
0.9142417589137806	68776527.94896014
0.9144703193535092	68861502.78344387
0.9146989369333476	68942284.37724736
0.9149276116675811	69010375.15009686
0.9151563435704979	69078482.94563952
