#wavelength	surface flux
0.8	87803497.41151206
0.8002000000000001	88591945.7661718
0.8004000500000003	88034186.90023994
0.8006001500125003	87462688.5851634
0.8008003000500035	86891047.39550805
0.8010005001250161	86319263.29555501
0.8012007502500472	85747336.24957782
0.8014010504376099	85983515.58995377
0.8016014007002193	86490492.82055944
0.8018018010503944	86997596.79547277
0.8020022515006572	87504827.54638006
0.8022027520635323	88012185.10497463
0.8024033027515483	88409140.4795729
0.8026039035772362	88697880.95773685
0.8028045545531306	88986693.62102035
0.8030052556917691	89275578.48746979
0.803206007005692	89564535.5751356
0.8034068085074435	89799241.1886625
0.8036076602095705	89881728.14145212
0.8038085621246229	89964235.71597986
0.8040095142651542	90046763.9174013
0.8042105166437206	90129312.75087306
0.8044115692728815	90199594.46969064
0.8046126721651998	89741375.90185511
0.8048138253332411	89283042.77937798
0.8050150287895745	88824595.07361983
0.805216282546772	88366032.75593534
0.8054175866174087	87907355.79767169
0.8056189410140631	87543668.36220476
0.8058203457493168	87206810.6595391
0.8060218008357541	86869868.7424482
0.8062233062859632	86532842.58987787
0.8064248621125346	86195732.18076962
0.806626468328063	85955102.77039535
0.8068281249451449	85797351.09313515
0.8070298319763813	85639559.97795545
0.8072315894343755	85481729.41499706
0.8074333973317341	85323859.39439787
0.8076352556810671	85297518.47925271
0.8078371644949874	85587878.50351313
0.8080391237861113	85878311.11777967
0.8082411335670578	86168816.3401996
0.8084431938504498	86459394.18892545
0.8086453046489125	86749579.84918207
0.8088474659750746	87031183.69946346
0.8090496778415686	87312857.95070776
0.809251940261029	87594602.6205147
0.8094542532460944	87876417.72648932
0.8096566168094059	88158303.28624012
0.8098590309636085	88053150.72556892
0.8100614957213493	87857365.94999291
0.8102640110952797	87661532.22822298
0.8104665770980536	87465649.54802252
0.8106691937423283	87269717.89715196
0.8108718610407639	87134315.54656814
0.8110745790060241	87045200.37902668
0.8112773476507757	86956062.93269324
0.8114801669876885	86866903.20199826
0.8116830370294355	86777721.18137065
0.8118859577886929	86829206.37439783
0.8120889292781401	87172922.70129776
0.8122919515104597	87516724.95727938
0.8124950244983374	87860613.16382504
0.8126981482544621	88204587.34242226
0.8129013227915257	88556772.24067022
0.8131045481222237	89002074.54120386
0.8133078242592543	89447488.16731268
0.8135111512153191	89893013.14682789
0.813714529003123	90338649.50758806
0.8139179576353739	90784397.27743848
0.8141214371247829	90821670.62415662
0.8143249674840641	90779721.61860214
0.814528548725935	90737762.1257963
0.8147321808631167	90695792.14311722
0.8149358639083326	90653811.66794246
0.8151395978743097	90345751.96180846
0.8153433827737784	89857848.03953254
0.8155472186194719	89369822.14127623
0.8157511054241268	88881674.23654543
0.815955043200483	88393404.29483812
0.8161590319612831	87905724.926802
0.8163630717192736	87419229.46697545
0.8165671624872033	86932612.38328448
0.8167713042778252	86445873.64532211
0.8169754971038948	85959013.22267503
0.8171797409781707	85409105.18971685
0.8173840359134155	84356702.76958247
0.8175883819223938	83304037.24884425
0.8177927790178745	82251108.56172526
0.8179972272126291	81197916.64243421
0.8182017265194322	80144461.4251644
0.8184062769510622	79956989.21948582
0.8186108785203001	79902772.64183933
0.8188155312399301	79848542.51004848
0.8190202351227402	79794298.82072464
0.819224990181521	79740041.5704785
0.8194297964290664	80442815.87294737
0.8196346538781738	81602073.47042847
0.8198395625416434	82761620.88230847
0.8200445224322789	83921458.18104193
0.820249533562887	85081585.43909973
0.8204545959462778	86062300.88679844
0.8206597095952644	86754036.2496926
0.8208648745226633	87445944.54642802
0.8210700907412941	88138025.82023752
0.8212753582639793	88830280.11436476
0.8214806771035456	89495788.44136564
0.8216860472728215	89995609.11965635
0.8218914687846397	90495554.75311668
0.822096941651836	90995625.37298562
0.822302465887249	91495821.01050922
0.8225080415037209	91996141.6969425
0.8227136685140968	92590241.03835738
0.8229193469312254	93195120.54269922
0.8231250767679583	93800151.26691736
0.8233308580371503	94405333.2488162
0.8235366907516598	95010666.52621098
0.8237425749243477	95012315.82835197
0.8239485105680789	94693922.2142051
0.824154497695721	94375449.0016549
0.824360536320145	94056896.17080149
0.8245666264542252	93738263.70174038
0.8247727681108388	93742319.55291755
0.8249789613028664	94208640.91211428
0.8251852060431922	94675078.8516512
0.825391502344703	95141633.40067282
0.8255978502202894	95608304.5883321
0.8258042496828445	96058107.78662652
0.8260107007452654	96425536.25209059
0.8262172034204517	96793056.57467064
0.8264237577213068	97160668.77733144
0.8266303636607373	97528372.88304307
0.8268370212516525	97896168.91478093
0.8270437305069654	97951150.64750911
0.8272504914395923	97981694.53601155
0.8274573040624523	98012246.06048612
0.8276641683884679	98042805.22284177
0.8278710844305652	98073372.02498806
0.8280780522016729	98369008.42906354
0.8282850717147234	98785878.0734094
0.8284921429826521	99202851.93516591
0.8286992660183978	99619930.04038818
0.8289064408349024	100037112.41513647
0.8291136674451112	100519551.67086577
0.8293209458619727	101084265.68182893
0.8295282760984382	101649120.87129408
0.829735658167463	102214117.27455726
0.8299430920820048	102779254.92692052
0.8301505778550254	103243190.96826345
0.8303581154994891	103302753.82090773
0.8305657050283641	103362331.56426522
0.8307733464546212	103421924.20205852
0.8309810397912352	103481531.73801136
0.8311887850511829	103541154.17584807
0.8313965822474458	104095311.21256925
0.8316044313930077	104672560.06339927
0.8318123325008561	105249953.22644255
0.8320202855839813	105827490.7377763
0.8322282906553774	106405172.63348794
0.8324363477280413	106961212.44590478
0.8326444568149735	107508620.09871744
0.8328526179291771	108056164.60344265
0.8330608310836596	108603845.99429488
0.8332690962914304	109151664.3054941
0.8334774135655034	109368509.04315817
0.833685782918895	109215546.65867682
0.8338942043646247	109062546.03359944
0.834102677915716	108909507.15836568
0.834311203585195	108756430.02341323
0.8345197813860912	108844899.24395864
0.8347284113314379	109746587.02086167
0.8349370934342709	110648500.21970841
0.8351458277076294	111550638.89685376
0.8353546141645565	112453003.10866992
0.8355634528180977	113355592.91153863
0.8357723436813022	112303067.55512471
0.8359812867672226	111226135.59064047
0.8361902820889144	110148934.39316563
0.8363993296594368	109071463.89539112
0.8366084294918518	107993724.0299918
0.8368175815992247	107243859.62727961
0.8370267859946247	106606824.23164397
0.8372360426911234	105969629.57715963
0.8374453517017962	105332275.62401171
0.8376547130397217	104694762.3323756
0.8378641267179816	104707982.94253264
0.8380735927496613	105367062.19198532
0.8382831111478488	106026306.21124998
0.8384926819256358	106685715.04151909
0.8387023050961173	107345288.72399634
0.8389119806723914	107737813.75337937
0.8391217086675596	107378410.67935805
0.8393314890947265	107018917.75456849
0.8395413219670003	106659334.95654769
0.8397512072974922	106299662.26282714
0.8399611450993165	105945286.16319206
0.8401711353855914	105858313.74325499
0.8403811781694378	105771319.58021297
0.8405912734639802	105684303.66863017
0.8408014212823464	105597266.00306942
0.8410116216376671	105510206.57809229
0.8412218745430766	105298019.14191413
0.8414321800117124	105049377.56887424
0.8416425380567154	104800673.83544096
0.8418529486912297	104551907.92607427
0.8420634119284025	104303079.82523045
0.8422739277813847	105094977.25822593
0.8424844962633302	106804047.05172957
0.842695117387396	108513544.11267944
0.8429057911667428	110223468.54789458
0.8431165176145345	111933820.46421936
0.8433272967439382	112964266.01741217
0.8435381285681244	112335446.01852614
0.8437490131002665	111706468.81464052
0.8439599503535415	111077334.36645433
0.84417094034113	110448042.63465562
0.8443819830762154	109786103.2499953
0.8445930785719846	108469477.90655886
0.8448042268416277	107152523.40678728
0.8450154278983382	105835239.66839091
0.8452266817553128	104517626.60906005
0.8454379884257517	103199684.14646421
0.8456493479228583	103373131.10528606
0.845860760259839	103905845.26680651
0.846072225449904	104438692.60686733
0.8462837435062666	104971673.15876327
0.8464953144421433	105504786.95579751
0.8467069382707537	105930230.04196088
0.8469186150053215	106271749.59007454
0.847130344659073	106613354.51807532
0.8473421272452377	106955044.84730777
0.8475539627770492	107296820.59912287
0.8477658512677435	107510117.84948424
0.8479777927305605	107450479.81568874
0.8481897871787432	107390826.87238483
0.848401834625538	107331159.01584506
0.8486139350841944	107271476.24234118
0.8488260885679657	107133482.7070134
0.8490382950901076	106041056.16507542
0.8492505546638802	104948356.51650141
0.8494628673025462	103855383.69301565
0.8496752330193721	102762137.6263224
0.8498876518276269	101668618.24811396
0.8501001237405839	101950484.60732102
0.8503126487715191	102507027.15340184
0.850525226933712	103063708.83511886
0.8507378582404455	103620529.6872563
0.8509505427050057	104177489.7446071
0.8511632803406821	105595326.43845412
0.8513760711607672	107602965.09260327
0.8515889151785576	109611105.65641907
0.8518018124073523	111619748.25537416
0.8520147628604541	113628893.01497778
0.8522277665511693	115284211.39443363
0.8524408234928071	116284655.5652773
0.8526539336986805	117285349.84716395
0.8528670971821053	118286294.30262114
0.8530803139564007	119287488.994191
0.8532935840348901	120161440.60944216
0.8535069074308987	119958864.01154187
0.8537202841577566	119756236.76949196
0.8539337142287962	119553558.87063149
0.8541471976573534	119350830.30229644
0.8543607344567677	119148051.05181926
0.8545743246403821	118847901.00981499
0.8547879682215422	118532220.38662897
0.8550016652135977	118216460.84328717
0.8552154156299011	117900622.36005953
0.8554292194838088	117584704.91721086
0.8556430767886797	117005421.39373164
0.855856987557877	116266132.07530361
0.8560709518047664	115526657.93454644
0.8562849695427177	114786998.9252538
0.8564990407851035	114047155.00120862
0.8567131655452999	113569449.07439195
0.8569273438366862	113521448.64258632
0.8571415756726455	113473436.21067272
0.8573558610665638	113425411.77565114
0.8575702000318304	113377375.33452085
0.8577845925818384	113724227.66102894
0.857999038729984	116537862.43487132
0.8582135384896665	119352200.61740652
0.858428091874289	122167242.38448752
0.8586426988972576	124982987.91200954
0.8588573595719821	127799437.3759144
0.8590720739118751	126682194.07614347
0.8592868419303532	125100794.31792521
0.8595016636408359	123518999.2097674
0.8597165390567462	121936808.65283307
0.8599314681915105	120354222.54825912
0.8601464510585584	119104339.05308104
0.860361487671323	118030949.31602673
0.8605765780432408	116957291.23153847
0.8607917221877518	115883364.73252821
0.8610069201182988	114809169.75189349
0.8612221718483286	112789435.85564888
0.8614374773912907	109406461.86855704
0.8616528367606385	106022642.13796934
0.8618682499698288	102637976.45244686
0.8620837170323213	99252464.60050356
0.8622992379615795	96403466.10282013
0.8625148127710699	96212942.79778615
0.8627304414742627	96022371.86192589
0.8629461240846313	95831753.28333163
0.8631618606156526	95641087.05009271
0.8633776510808066	95450373.15029551
0.8635934954935769	98512396.61468367
0.8638093938674504	101841822.25798832
0.8640253462159173	105172080.25770369
0.8642413525524714	108503170.82191892
0.8644574128906095	111835094.15877451
0.8646735272438323	111353538.49792276
0.8648896956256433	109098101.68856668
0.8651059180495498	106842101.02000812
0.8653221945290621	104585536.35128458
0.8655385250776946	102328407.5413907
0.8657549097089641	101442624.41779733
0.8659713484363913	102312966.18872248
0.8661878412735006	103183525.54509075
0.866404388233819	104054302.54129799
0.8666209893308775	104925297.23175389
0.8668376445782103	105604276.12826744
0.8670543539893549	105498822.09656757
0.8672711175778525	105393341.70135969
0.8674879353572469	105287834.93605313
0.8677048073410862	105182301.79405521
0.8679217335429217	105076742.26877172
0.8681387139763074	104516228.44787543
0.8683557486548015	103932974.83919811
0.8685728375919655	103349575.41711791
0.8687899808013633	102766030.14518346
0.8690071782965637	102182338.98693027
0.869224430091138	101704675.92386726
0.8694417361986609	101270095.51873538
0.8696590966327107	100835406.46850233
0.869876511406869	100400608.74600668
0.8700939805347206	99965702.32408063
0.8703115040298544	99650502.36697747
0.870529081905862	99472207.03493163
0.8707467141763385	99293867.12905283
0.8709644008548827	99115482.63819759
0.8711821419550964	98937053.55121973
0.8713999374905854	98902092.76804577
0.871617787474958	99362436.0941927
0.8718356919218269	99822894.50617158
0.8720536508448075	100283468.03275348
0.8722716642575187	100744156.70271677
0.8724897321735832	101204960.54484776
0.8727078546066265	101513174.73097219
0.8729260315702784	101819142.82883786
0.873144263078171	102125187.41872767
0.8733625491439405	102431308.51976497
0.8735808897812266	102737506.15107766
0.8737992850036719	102676415.3714153
0.874017734824923	102485194.69058841
0.8742362392586293	102293926.20459141
0.874454798318444	102102609.9014729
0.8746734120180236	101911245.76927863
0.8748920803710283	101795424.01379164
0.875110803391121	101755534.26895043
0.8753295810919689	101715634.551673
0.875548413487242	101675724.85946624
0.8757673005906139	101635805.18983644
0.8759862424157616	101801161.48978372
0.8762052389763657	102560563.71166934
0.8764242902861098	103320155.78410992
0.8766433963586814	104079937.7545688
0.8768625572077712	104839909.67052053
0.8770817728470732	105599439.46959884
0.8773010432902849	106309805.60881586
0.8775203685511077	107020349.3395687
0.8777397486432454	107731070.70625335
0.8779591835804065	108441969.75328054
0.8781786733763015	109153046.52506854
0.8783982180446457	108353562.95057179
0.878617817599157	107104463.1536854
0.8788374720535569	105855051.0818504
0.8790571814215703	104605326.65699774
0.8792769457169257	103355289.80103885
0.879496764953355	102629292.41974324
0.8797166391445934	102374540.41266575
0.8799365683043796	102119724.71758649
0.8801565524464557	101864845.31858346
0.8803765915845676	101609902.19973044
0.8805966857324639	101743587.76376972
0.880816834903897	102853585.57968901
0.881037039112623	103963860.89506271
0.8812572983724012	105074413.77926517
0.8814776126969944	106185244.30168916
0.8816979821001687	107237009.25863965
0.8819184065956938	106892086.51936786
0.8821388861973429	106547077.5494109
0.8823594209188923	106201982.32721177
0.882580010774122	105856800.83120726
0.8828006557768155	105511533.03982855
0.8830213559407598	106205319.010533
0.8832421112797452	107160632.70562318
0.8834629218075651	108116185.22913654
0.8836837875380171	109071976.64078107
0.8839047084849018	110028007.00027867
0.884125684662023	109796924.25972836
0.8843467160831886	108614272.67653629
0.8845678027622095	107431325.43044844
0.8847889447129001	106248082.44754885
0.8850101419490785	105064543.65390374
0.8852313944845657	104948674.39175019
0.885452702333187	107170421.4716485
0.8856740655087704	109392723.98831645
0.8858954840251476	111615582.08061297
0.8861169578961539	113838995.88743155
0.886338487135628	115773873.99821344
0.886560071757412	113862176.96949518
0.8867817117753515	111950002.01651978
0.8870034072032955	110037349.0198053
0.8872251580550963	108124217.85984387
0.8874469643446101	106210608.41709127
0.8876688260856963	106136089.86759052
0.8878907432922178	106442275.12963642
0.8881127159780409	106748536.93799764
0.8883347441570356	107054875.31181133
0.8885568278430749	107361290.27021815
0.8887789670500358	107388881.43744613
0.8890011617917983	107218634.91283666
0.8892234120822464	107048345.82659593
0.8894457179352669	106878014.1680838
0.8896680793647509	106707639.9266569
0.8898904963845921	106712019.5739565
0.8901129690086883	107049916.60552053
0.8903354972509405	107387898.11134237
0.8905580811252535	107725964.11254092
0.8907807206455347	108064114.63023932
0.8910034158256963	108366411.15313333
0.8912261666796527	108347601.88434842
0.8914489732213227	108328787.9132463
0.8916718354646282	108309969.23865138
0.8918947534234944	108291145.85938784
0.8921177271118502	108272317.77427949
0.8923407565436284	108615322.90390219
0.8925638417327644	109017439.38868117
0.8927869826931977	109419656.40258148
0.8930101794388711	109821973.97073525
0.8932334319837308	110224392.11828098
0.8934567403417267	110762705.11929308
0.8936801045268123	111385532.83924028
0.8939035245529441	112008516.26611705
0.8941270004340824	112631655.43885079
0.894350532184191	113254950.39637753
0.8945741198172371	113607709.6707764
0.8947977633471915	113511647.55994476
0.8950214627880284	113415561.4335854
0.8952452181537254	113319451.28569452
0.8954690294582639	113223317.11026663
0.8956928967156286	113105897.52810359
0.8959168199398075	112850469.85293798
0.8961407991447926	112594978.32085352
0.8963648343445789	112339422.91588603
0.896588925553165	112083803.62206744
0.8968130727845534	111828120.42342538
0.8970372760527496	112755798.98245761
0.8972615353717629	113831779.8455133
0.8974858507556059	114908029.70378487
0.8977102222182949	115984548.6245207
0.8979346497738496	117061336.67498733
0.8981591334362931	117745088.56495334
0.8983836732196523	118213921.94087254
0.8986082691379572	118682872.5251354
0.8988329212052417	119151940.34704433
0.8990576294355432	119621125.43590915
0.8992823938429022	119311855.52817892
0.8995072144413631	117844870.24486007
0.8997320912449734	116377518.21522093
0.8999570242677847	114909799.34757473
0.9001820135238516	113441713.55021149
0.9004070590272328	112233204.09018567
0.9006321607919896	112387104.27267058
0.9008573188321878	112541042.93020126
0.9010825331618959	112695020.07239626
0.9013078037951865	112849035.70887682
0.9015331307461353	113003089.84926642
0.9017585140288219	113329243.40519886
0.9019839536573292	113670298.55099155
0.9022094496457435	114011438.96057045
0.9024350020081551	114352664.65525213
0.9026606107586572	114693975.65635736
0.902886275911347	115208719.7500045
0.9031119974803249	115807158.21842533
0.9033377754796951	116405746.29646328
0.903563609923565	117004484.02152047
0.903789500826046	117603371.43100932
0.9040154482012526	118051848.98839188
0.904241452063303	118305401.88316514
0.9044675124263188	118559018.16616201
0.9046936293044254	118812697.85322961
0.9049198027117517	119066440.9602191
0.9051460326624297	119175416.74928409
0.9053723191705955	118667696.74019447
0.9055986622503881	118159849.80110306
0.9058250619159507	117651875.90027684
0.9060515181814298	117143775.0059751
0.9062780310609752	116635547.08645014
0.9065046005687405	116874372.37239148
0.906731226718883	117154940.3424447
0.9069579095255627	117435578.45449008
0.907184649002944	117716286.72606349
0.907411445165195	117997065.17470507
0.9076382980264862	117454768.26725873
0.907865207600993	116570484.96291684
0.9080921739028933	115685980.58774911
0.9083191969463691	114801255.08648773
0.9085462767456058	113916308.4038506
0.9087734133147922	114432795.94903523
0.9090006066681211	116568342.05144487
0.909227856819788	118704422.04037729
0.9094551637839932	120841036.0493099
0.9096825275749393	122978184.21174406
0.9099099482068329	124373848.73771475
0.9101374256938848	123132717.61338224
0.9103649600503083	121891276.20626922
0.9105925512903209	120649524.43880467
0.9108201994281437	119407462.23339695
0.9110479044780008	118165089.5124393
0.9112756664541204	118416330.81491221
0.911503485370734	118701830.59881282
0.9117313612420768	118987401.75765939
0.9119592940823873	119273044.3092956
0.912187283905908	119558758.27156979
0.9124153307268845	119524578.27690452
0.9126434345595664	119374261.00480835
0.9128715954182063	119223906.15339431
0.9130998133170609	119073513.71326734
0.9133280882703902	118923083.67503035
0.913556420292458	118945016.28032401
0.9137848093975312	119144753.29322499
