#wavelength	surface flux
0.428837	130.67312167265715
0.43312537	256.61327470965017
0.43745662370000005	303.20530412367845
0.4418311899370001	357.1615416690469
0.44624950183637	419.29993660890625
0.4507119968547338	490.2609418093245
0.45521911682328114	563.6757196088632
0.4597713079915139	662.5607773098748
0.4643690210714291	768.553691713476
0.4690127112821433	885.0904104122344
0.47370283839496474	1014.9662653321203
0.47843986677891437	1156.678740552976
0.48322426544670355	1311.317296065419
0.48805650810117057	1478.575287633061
0.4929370731821824	1652.851508144576
0.49786644391400414	1828.8934265374817
0.5028451083531442	2002.7213442086102
0.5078735594366757	2163.9299691000724
0.5129522950310424	2295.746491518003
0.5180818179813528	2390.575305089671
0.5232626361611664	2458.5138366359347
0.5284952625227781	2435.1145738435894
0.5337802151480058	2318.7525477625845
0.5391180172994858	2102.389070496287
0.5445091974724807	1790.613128578346
0.5499542894472055	1408.9659528522443
0.5554538323416777	1000.2794617666207
0.5610083706650945	624.5931626834501
0.5666184543717453	335.1067021553638
0.5722846389154628	153.9583732581256
0.5780074853046174	62.82814359482103
0.5837875601576636	21.222027839080592
0.5896254357592402	2.4887868543412797
0.5955216901168326	38.39048965533834
0.6014769070180009	136.26242718477704
0.607491676088181	384.021242227029
0.6135665928490629	933.6532965473718
0.6197022587775535	1962.3679899724552
0.625899281365329	3643.3731557642204
0.6321582741789823	6090.357720221544
0.6384798569207721	9374.984856028754
0.6448646554899798	13436.406452399779
0.6513133020448797	18439.09122827123
0.6578264350653285	24052.805888911353
0.6644046994159818	30586.667439061683
0.6710487464101416	29180.58467129529
0.677759233874243	45598.66747589894
0.6845368262129854	53876.90830758094
0.6913821944751153	60359.65041512215
0.6982960164198664	69442.61572700446
0.7052789765840651	76596.2078317772
0.7123317663499058	82065.91274078532
0.7194550840134049	81198.02007004623
0.7266496348535388	76624.6443285955
0.7339161312020743	70153.23103262986
0.741255292514095	55444.71498187235
0.748667845439236	33225.754962933366
0.7561545238936284	12004.963638407648
0.7637160691325647	1743.6261945525976
0.7713532298238903	1468.2898864949962
0.7790667621221293	13318.082574081993
0.7868574297433505	54325.53585438434
0.7947260040407841	59527.2971354992
0.8026732640811919	180626.47877569307
0.8106999967220039	235174.00078901634
0.8188069966892239	313503.4229145485
0.8269950666561161	380257.8478688029
0.8352650173226772	435898.6817463462
0.8436176674959041	529696.7998598842
0.852053844170863	565321.0983299105
0.8605743826125718	694247.7669633371
0.8691801264386976	774956.3638447241
0.8778719277030844	849805.5354161018
0.8866506469801153	864284.4379265523
0.8955171534499164	796029.951233624
0.9044723249844157	1066394.4798768756
0.9135170482342599	1136545.37128064
0.9226522187166025	1179333.529751286
0.9318787409037684	554322.8116440903
0.941197528312806	846839.7037660759
0.9506095035959342	727510.534535012
0.9601155986318936	708737.9541666303
0.9697167546182125	888744.2987641873
0.9794139221643946	1369979.7133285983
0.9892080613860387	1710220.030546008
0.9991001419998989	2019777.1214546293
1.0090911434198981	2245884.292970683
1.019182054854097	2505904.8302772194
1.0293738754026378	2577670.6604961026
1.0396676141566643	2860231.0582236717
1.050064290298231	2982954.187952196
1.0605649332012133	3176217.0494096554
1.0711705825332256	3270516.210600834
1.0818822883585577	3454679.857581992
1.0927011112421434	3218869.1030885093
1.1036281223545648	1262323.730597537
1.1146644035781104	950698.072479914
1.1258110476138916	864209.9105044983
1.1370691580900303	1229267.13767411
1.1484398496709307	1541167.3030194337
1.1599242481676402	455765.0692910467
1.1715234906493166	1369324.3658245832
1.1832387255558097	3404875.3341407394
1.1950711128113678	4548194.772901087
1.2070218239394814	5105139.681638832
1.2190920421788762	5622247.014280861
1.2312829626006652	6105361.4033177765
1.2435957922266716	6489215.430317389
1.2560317501489384	6793296.156275894
1.2685920676504279	6878380.3566310145
1.281277988326932	6847190.404890169
1.2940907682102014	6281823.040951226
1.3070316758923035	5740434.605670946
1.3201019926512265	6156240.850040274
1.3333030125777388	1434627.1885602179
1.3466360427035162	135822.03054379325
1.3601024031305513	27173.640209979985
1.373703427161857	183413.29382029272
1.3874404614334754	15660.303405916125
1.4013148660478103	88862.71397020602
1.4153280147082883	61477.89769231801
1.4294812948553712	98055.41707890057
1.443776107803925	291692.28218020656
1.4582138688819641	1173484.857857417
1.4727960075707838	905550.8126848196
1.4875239676464918	1967127.9482624833
1.5023992073229566	2292139.672407438
1.5174231993961862	3871700.5920857624
1.532597431390148	5820040.6710653445
1.5479234057040496	7872588.235291409
1.5634026397610903	9436454.232044183
1.579036666158701	9265874.863418357
1.594827032820288	10014811.568451343
1.610775303148491	8682919.427627705
1.6268830561799759	4843549.393891488
1.6431518867417756	7949882.494218312
1.6595834056091934	6647377.175184458
1.6761792396652853	4873105.451912221
1.6929410320619382	2698004.723824412
1.7098704423825577	2960449.542242824
1.7269691468063835	4195398.6302895155
1.744238838274447	3090746.7284625806
1.7616812266571917	3235791.0462920777
1.7792980389237634	452132.6481176727
1.7970910193130012	879257.1947237884
1.815061929506131	171096.9950094935
1.8332125488011928	103235.2557569271
1.8515446742892046	321477.0015890971
1.8700601210320964	104573.95674812188
1.8887607222424174	867090.4581567711
1.9076483294648416	45029.94226568389
1.92672481275949	58523.45019477222
1.9459920608870853	238709.79122444338
1.9654519814959561	431945.0367712855
1.9851065013109155	1281724.8815960824
2.0049575663240247	2274651.8381849565
2.025007141987265	2564254.277297574
2.0452572134071376	6379534.885475604
2.065709785541209	7678361.945543009
2.086366883396621	7721128.819826715
2.107230552230587	6792934.17337162
2.1283028577528933	5972934.309867957
2.1495858863304225	4170973.7043220447
2.1710817451937263	3617319.2690830943
2.1927925626456637	1699915.790698286
2.2147204882721203	693875.9219082216
2.2368676931548412	261888.8787159203
2.25923637008639	231457.5248065287
2.281828733787254	205738.2104237278
2.3046470211251266	316076.1400906174
2.327693491336378	141342.3787208837
2.3509704262497415	122643.33031688511
2.374480130512239	98350.04391796266
2.3982249318173614	212793.88298019083
2.4222071811355352	529494.480318026
2.4464292529468903	656116.4960616071
2.4708935454763594	503278.0794267154
2.4956024809311232	220907.06504628208
2.5205585057404343	63291.93936273946
2.5457640907978387	160153.81721082082
2.5712217317058172	38621.73504037162
2.5969339490228753	17762.974815349276
2.622903288513104	115176.05863914602
2.6491323213982354	229868.78632652175
2.6756236446122177	7109.6061224748555
2.7023798810583397	80232.7423166036
2.729403679868923	363478.1453974047
2.7566977166676123	65454.81721574265
2.7842646938342885	48844.443486586766
2.812107340772631	69233.06568328389
2.8402284141803578	254145.01622032974
2.8686306983221614	122815.16736011741
2.897317005305383	179356.52607825704
2.926290175358437	605931.2759877872
2.9555530771120213	810600.9900645657
2.9851086078831415	879664.6811439617
3.014959693961973	1001777.3687762263
3.0451092909015927	525067.3577377669
3.0755603838106085	1031922.6120475007
3.1063159876487147	583974.3534768684
3.137379147525202	382792.0500378809
3.168752939000454	244508.0555502539
3.200440468390459	164239.14557422462
3.232444873074363	96844.67145199214
3.264769321805107	342486.5485272322
3.297417015023158	335352.8112907215
3.330391185173389	47122.73374618351
3.3636950970251234	253520.41785714615
3.397332047995375	193911.64349951787
3.4313053684753285	128266.28638690263
3.465618422160081	173421.42456261837
3.5002746063816828	308802.35600875487
3.5352773524454997	380476.5925473654
3.570630125969955	608808.3334321441
3.606336427229654	833343.1770651374
3.6423997915019504	1292795.5764402573
3.67882378941697	1819781.9713551856
3.7156120273111397	1888114.6538513254
3.7527681475842516	2559473.2524792645
3.7902958290600934	2452447.075047371
3.8281987873506953	3755254.1506719263
3.8664807752242023	3578867.7802398414
3.905145582976444	3788974.52137346
3.9441970388062084	4732035.433504442
3.983639009194271	4955713.218252016
4.023475399286213	5546853.27126219
4.063710153279075	5881735.248661183
4.1043472548118665	5831610.992477483
4.145390727359985	5646213.010090668
4.186844634633585	5429125.732457382
4.2287130809799205	4804102.458086672
4.27100021178972	4537815.37240013
4.313710213907617	4601739.8746448485
4.356847316046694	3983747.5303153065
4.40041578920716	3963413.426250251
4.444419947099232	3678973.4248880106
4.488864146570225	3740961.8667542827
4.533752788035927	3514435.9183849464
4.579090315916286	3655105.9186138352
4.624881219075449	3126318.1839263844
4.671130031266204	2821020.5487291957
4.717841331578866	2678092.1141453595
4.765019744894654	3165510.7771616606
4.812669942343601	2671773.7518182467
4.8607966417670365	2764051.3889113003
4.9094046081847065	2458241.664033273
4.958498654266554	1147214.0719386165
5.008083640809219	1515103.5999742635
5.058164477217312	2200743.9349778187
5.108746121989485	1600990.4126452517
5.15983358320938	948423.3550036905
5.211431919041474	630401.7140114991
5.263546238231889	896056.8368346901
5.316181700614208	1182994.6117760297
5.36934351762035	495530.07044495194
5.423036952796553	304106.59883060853
5.4772673223245185	318456.61113602185
5.532039995547764	400363.2591971257
5.587360395503242	248224.89868319486
5.643233999458275	171749.99027961236
5.6996663394528575	166968.997844558
5.756663002847385	146362.6343246156
5.814229632875859	216310.52363019274
5.872371929204618	114263.93431883947
5.931095648496664	164351.07492495028
5.990406604981631	198037.3892023349
6.050310671031448	206002.64301521063
6.110813777741763	147656.34599009383
6.17192191551918	172345.95988992706
6.233641134674372	774283.9760715795
6.295977546021115	886983.251581387
6.358937321481327	454634.1033240495
6.42252669469614	99995.56984955608
6.486751961643101	77209.55808396042
6.551619481259532	113165.1112612548
6.617135676072128	103745.35859712283
6.683307032832849	218738.54165062576
6.750140103161177	295054.21019285003
6.81764150419279	297952.3164883486
6.885817919234718	176980.10264696917
6.954676098427065	323913.41023840354
7.024222859411336	148187.55317498508
7.094465088005449	291874.8434606335
7.165409738885503	167238.77616524216
7.237063836274358	201675.17229114243
7.309434474637103	145205.78659153474
7.382528819383473	110123.263917944
7.456354107577308	109019.1767064781
7.530917648653081	163832.24908172947
7.606226825139612	202273.72056986435
7.682289093391009	76926.1261583278
7.759111984324918	149942.78619344695
7.836703104168168	149619.91764150062
7.91507013520985	139685.30642654805
7.994220836561947	178604.27666598698
8.074163044927568	193572.4053057435
8.154904675376844	228782.8036537892
8.23645372213061	247354.42416589498
8.318818259351918	327504.326644922
8.402006441945437	344965.43502978963
8.486026506364892	338318.1764409335
8.57088677142854	506940.94267966284
8.656595639142825	503111.55546791747
8.743161595534254	593448.5003566435
8.830593211489598	583300.2404058767
8.918899143604493	517774.338427352
9.00808813504054	631678.4333702192
9.098169016390944	647687.3772606503
9.189150706554853	701556.2018005562
9.281042213620402	514707.6288125523
9.373852635756606	297161.22922823095
9.467591162114172	602835.4503843043
9.562267073735315	710290.739272666
9.657889744472667	480651.7089176039
9.754468641917395	557458.032070385
9.852013328336568	601770.2581365075
9.950533461619933	755862.0284170883
10.050038796236134	688504.4923035823
10.150539184198495	787588.4090372521
10.252044576040479	650022.059540667
10.354565021800884	167671.81928455067
10.458110672018893	312212.1020510264
10.562691778739081	434716.10125648876
10.668318696526473	282451.25827840215
10.775001883491738	208208.9452525865
10.882751902326655	445903.41893377947
10.991579421349924	342096.74213881703
11.101495215563421	427099.647590379
11.212510167719055	309375.8465706325
11.324635269396246	383033.99448581494
11.43788162209021	501975.24864303455
11.552260438311112	288504.70531625865
11.667783042694223	352613.58376011916
11.784460873121166	243454.33536433315
11.902305481852377	362831.57541248767
12.0213285366709	332714.50433095533
12.14154182203761	385895.51587502396
12.262957240257986	268872.15378171473
12.385586812660566	233491.06134573338
12.509442680787172	220593.8074139157
12.634537107595044	262156.9089601399
12.760882478670995	258522.91016322223
12.888491303457704	208417.4395018806
13.01737621649228	203739.79511489338
13.147549978657205	224295.1085224727
13.279025478443776	170161.69248027453
13.411815733228213	153467.33371292875
13.545933890560496	224460.8412207812
13.681393229466101	178468.3408701754
13.818207161760762	119811.33164279342
13.956389233378369	176589.1022809785
14.095953125712155	162843.93214718552
14.236912656969274	157872.75025653339
14.379281783538968	118867.62681640834
14.523074601374358	110756.88099506013
14.6683053473881	162362.7082471432
14.814988400861985	149651.84049257598
14.963138284870602	129617.4219957167
15.11276966771931	142851.09840377368
15.263897364396504	153220.89249173965
15.41653633804047	127179.63818449448
15.570701701420873	71863.77896533936
15.726408718435081	63670.31601626915
15.883672805619431	121086.65894336753
16.042509533675627	73475.32395759359
16.202934629012383	85880.86677372434
16.36496397530251	92780.18308092088
16.528613615055534	83938.18817580388
16.69389975120609	68910.88114820413
16.86083874871815	59901.88453108182
17.02944713620533	86455.81832781016
17.199741607567383	56549.80877485585
17.37173902364306	51161.69685044861
17.54545641387949	53822.7832904154
17.720910978018285	58173.92460635784
17.898120087798468	54958.89137337537
18.077101288676452	57442.150699313184
18.257872301563214	45654.69557781847
18.44045102457885	52930.37564233466
18.62485553482464	44467.59428807822
18.811104090172883	71460.31622539257
18.999215131074614	36560.51171093069
19.189207282385357	38783.5438761986
19.381099355209216	30547.638752934472
19.574910348761303	33294.55795808168
19.77065945224892	33868.27983250168
19.968366046771408	45907.371549592375
20.16804970723912	40620.78957829493
20.369730204311512	30885.095878590622
20.573427506354626	25659.23726220733
20.779161781418175	32507.21634075149
20.98695339923236	24279.714577329123
21.19682293322468	22074.490286117853
21.408791162556927	31949.902336385574
21.622879074182496	22433.95056428792
21.839107864924323	17766.588624843993
22.057498943573567	19889.364998192574
22.278073933009303	24153.214827897795
22.500854672339393	16503.13671377914
22.72586321906279	33746.83530837469
22.953121851253417	15936.684699092591
23.18265306976595	26700.178381058722
23.41447960046361	22845.17099406821
23.648624396468247	13027.821707803023
23.88511064043293	11436.042358283084
24.12396174683726	26671.367147250974
24.365201364305634	24682.948300707507
24.608853377948687	23042.5370836946
24.854941911728176	18192.359927833815
25.103491330845458	9196.617861168697
25.354526244153913	9682.060531975076
25.608071506595454	18728.786077828816
25.864152221661406	12592.881884108163
26.122793743878024	13487.914944001897
26.384021681316803	15062.71072680094
26.64786189812997	7162.834490793347
26.91434051711127	11188.648291510117
27.18348392228238	14074.193539060832
27.455318761505207	16784.80753310555
27.72987194912026	13175.276939625983
28.007170668611465	6861.856618131752
28.28724237529758	5853.296042085718
28.57011479905055	5899.990618281886
28.855815947041062	9549.103789948027
29.144374106511474	6422.6378242464425
29.435817847576587	8415.22469655022
29.730176026052348	6379.97618635535
30.027477786312875	9050.317133413233
30.327752564176006	5402.810622136285
30.631030089817763	6067.038037374873
30.93734039071594	5374.87462879998
31.246713794623105	7322.723552582679
31.559180932569333	8213.132781765109
31.874772741895026	5863.797243318961
32.19352046931398	7276.4739832044825
32.51545567400712	5855.207207700682
32.84061023074719	3366.5863941045
33.169016333054664	3797.2661422566484
33.500706496385206	4381.585422881634
33.83571356134906	7134.927648349785
34.17407069696255	4439.905289174684
34.51581140393218	3131.469826617961
34.8609695179715	4179.102282233165
35.209579213151216	3396.770601630968
35.56167500528272	2551.362531642072
35.917291755335555	2311.009426226192
36.27646467288891	3413.0643821188282
36.639229319617804	3480.8219088043998
37.005621612813975	4595.475509141661
37.37567782894212	2664.684468588328
37.74943460723154	3230.1246474982386
38.12692895330385	4780.8026317080785
38.5081982428369	4256.030403670614
38.893280225265265	2501.8582961509924
39.28221302751791	1610.7838860766205
39.6750351577931	2964.2375911534446
40.071785509371026	1746.0903577660893
40.47250336446474	1720.1210396713009
40.87722839810939	1832.123916124895
41.28600068209048	3233.9843878049537
41.69886068891139	3022.275289384691
42.1158492958005	2069.654099104251
42.53700778875851	2292.961790979172
42.962377866646094	1632.4601385606693
43.392001645312554	1525.7308810036207
43.825921661765676	1164.3503811100231
44.264180878383335	1263.65134655009
44.70682268716717	1277.236615528863
45.15389091403884	1369.0878659115465
45.60542982317923	2037.7631991930148
46.06148412141103	1582.8429081449308
46.52209896262513	1145.4613974933095
46.98731995225138	1143.5537299542873
47.4571931517739	1706.9183854135406
47.93176508329164	904.3583983231823
48.411082734124555	1539.0051472489613
48.8951935614658	880.973113976212
49.38414549708046	735.4277319421619
49.877986952051266	832.3319017152749
50.37676682157178	803.9303281578211
50.88053448978749	776.4578133277512
51.38933983468537	749.8787274779398
51.903233233032225	724.1728336048332
52.422265565362544	699.3080625658607
52.946488221016175	675.2591579648928
53.47595310322633	652.0076864834551
54.010712634258596	629.5203155178732
54.550819760601186	607.7779275815071
55.0963279582072	586.7568099928279
55.647291237789275	566.4326504056593
56.20376415016716	546.787397529515
56.765801791668835	527.7948292627533
57.33345980958552	509.4389194070886
57.906794407681375	491.6978956016948
58.48586235175819	474.5502955695642
59.070720975275776	457.9815053855706
59.661428185028534	441.9678346453457
60.25804246687882	426.496978919878
60.860622891547614	411.547418016545
61.46922912046309	397.10417029836475
62.083921411667724	383.15179188222555
62.7047606257844	369.67118196249055
63.331808232042235	356.6522651836349
63.965126314362664	344.0756214686906
64.60477757750628	331.9284567518724
65.25082535328136	320.19698952506013
65.90333360681416	308.8659904787753
66.56236694288232	297.92574760540657
67.22799061231113	287.3605522939259
67.90027051843424	277.1586370107988
68.57927322361859	267.3090662991086
69.26506595585477	257.7982862910675
69.95771661541333	248.6177853131804
70.65729378156746	239.7540573041294
71.36386671938313	231.1976996964681
72.07750538657696	222.93881643966913
72.79828044044274	214.9661635869988
73.52626324484716	207.27202031418014
74.26152587729563	199.84525232350373
75.00414113606858	192.67853688965138
75.75418254742928	185.76193129868082
76.51172437290357	179.0870130194874
77.27684161663261	172.646716914566
78.04961003279894	166.43148170900923
78.83010613312693	160.43541870069984
79.6184071944582	154.6497847043085
80.41459126640278	149.06777407239758
81.2187371790668	143.683069542494
82.03092455085748	138.48782302909265
82.85123379636605	133.4767370582488
83.6797461343297	128.64260642082454
84.51654359567301	123.97964009185347
85.36170903162974	119.48232772252706
86.21532612194603	115.14415324183464
87.0774793831655	110.9607059874231
87.94825417699715	106.92579103897305
88.82773671876713	103.03473147454336
89.71601408595481	99.28229486905502
90.61317422681435	95.66350004747434
91.5193059690825	92.17452506318044
92.43449902877332	88.80971889533286
93.35884401906105	85.5658962286336
