#wavelength	surface flux
0.676892	1059477.9037876495
0.678297	1082088.8666778572
0.679702	1099079.3444529746
0.681109	1116583.9787785918
0.682517	1143964.1761165424
0.683926	1169614.44351945
0.685337	1191310.2952325714
0.686749	1213054.641741799
0.688164	1233665.0921188225
0.689581	1252799.6490362627
0.691	1262509.4860347065
0.692422	1278527.3676593476
0.693847	1311257.0876969635
0.695274	1343838.8901875326
0.696705	1369554.875765164
0.698139	1391998.1705688315
0.699576	1414930.730077512
0.701017	1437466.553340996
0.702461	1457674.6100940483
0.70391	1483211.7276244692
0.705362	1509342.3774397592
0.706819	1531598.8159896522
0.70828	1554123.060289217
0.709745	1576649.316369515
0.711216	1601733.0216232017
0.71269	1624852.7118774157
0.71417	1646603.0151098045
0.715655	1661873.1467306507
0.717145	1672217.6171935792
0.71864	1702440.8568243955
0.72014	1725584.1656299909
0.721647	1744669.0881259397
0.723158	1764021.2660517914
0.724676	1780261.8025347122
0.726199	1796651.9730915916
0.727728	1817573.8685267866
0.729264	1825706.7742163665
0.730805	1841411.6125476
0.732353	1862179.630995862
0.733907	1871963.691995832
0.735468	1880476.2557017992
0.737035	1884179.5402528744
0.738609	1890236.6419938486
0.74019	1887344.833711652
0.741777	1870578.1869011656
0.743372	1851091.0250097928
0.744973	1824245.268053337
0.746582	1782213.79774365
0.748197	1725334.9197013185
0.74982	1649997.0328665257
0.751451	1552466.928209118
0.753088	1426514.1742115596
0.754734	1270793.143790228
0.756386	1084000.0460049002
0.758047	864824.9577236888
0.759715	630965.5068018385
0.76139	395776.16471565317
0.763074	191621.32602556612
0.764765	58395.54048106921
0.766464	8712.248106459707
0.768172	12263.543493396395
0.769887	14846.641075440793
0.77161	106508.1058851677
0.773341	324240.414721539
0.775081	615734.4983103608
0.776829	924781.1732947932
0.778585	1113021.6954250757
0.780349	1247869.2981371167
0.782121	1720993.5642215232
0.783902	2051087.810616015
0.785691	2281361.241115414
0.787489	2477682.8343577185
0.789295	2646919.7620715573
0.79111	2771603.7609601533
0.792933	2358151.296650145
0.794764	1308070.692738864
0.796604	2756485.0144064324
0.798453	3299542.8226825157
0.80031	3428887.1344286846
0.802176	3538899.8828082876
0.804051	3639499.6228615707
0.805934	3731990.701291608
0.807826	3816880.023165141
0.809727	3873769.2339261402
0.811636	3936425.019922419
0.813554	4017811.3835057733
0.81548	4148453.051530248
0.817416	4214025.028520749
0.81936	4274948.019070139
0.821313	4402921.2187617645
0.823274	4467960.251395279
0.825244	4585905.828677118
0.827223	4667714.366093237
0.829211	4730117.178240297
0.831208	4807289.238432654
0.833213	4906711.091118508
0.835227	4982521.291039024
0.837249	5039626.954163731
0.83928	5127416.562358574
0.841321	5253225.756305201
0.843369	5360177.336440595
0.845427	5449883.353919432
0.847493	5545445.622942624
0.849567	5607793.989405817
0.851651	5604744.348538496
0.853742	5760054.544438035
0.855843	5923022.266240957
0.857952	6025544.047673738
0.86007	6099756.487147266
0.862196	5884854.580926319
0.864331	6037529.848493952
0.866474	6208967.62612777
0.868626	6351090.33253173
0.870786	6431818.941911046
0.872955	6538374.064352872
0.875132	6635780.7042525895
0.877317	6772447.0578067675
0.879511	6764541.318073243
0.881713	6886101.221136025
0.883923	7058288.877032435
0.886142	7140583.068106716
0.888369	7220844.234610416
0.890604	7236136.302261424
0.892847	7137362.760474718
0.895099	7324592.995469976
0.897358	7571821.537277967
0.899626	7749434.394894883
0.901901	7905316.223130677
0.904185	8080474.764623925
0.906476	8186706.598038078
0.908776	8310987.793292235
0.911083	8458585.37588228
0.913398	8505403.815346975
0.915721	8528343.542721579
0.918051	8560682.999974245
0.92039	8836633.893353187
0.922736	8928011.823153535
0.925089	8697982.294997593
0.927451	8048322.983980275
0.929819	7305968.994976738
0.932195	8025686.763698849
0.934579	8078951.012708613
0.93697	8437027.961773766
0.939369	8969275.516979214
0.941774	9115528.95648965
0.944187	8632365.730443418
0.946607	8531901.389583562
0.949035	9135202.860290222
0.951469	9052079.832197905
0.953911	9311653.351572149
0.956359	9970617.894112539
0.958814	9300428.820808344
0.961277	9019151.679842552
0.963746	9185451.47089131
0.966222	9387065.180662692
0.968705	9355648.439911004
0.971194	10394882.982913444
0.97369	10977071.074464746
0.976193	10877241.849141765
0.978702	11228496.241934326
0.981217	11393113.635839418
0.983739	11592641.43930267
0.986268	11766797.214799821
0.988802	12039099.030582003
0.991343	12286036.108224945
0.99389	12440322.098624662
0.996444	12709414.292235045
0.999003	12803506.570573254
1.00157	12886360.190531818
1.00414	13061936.773863249
1.00672	13329276.257267479
1.0093	13549045.238695912
1.01189	13786470.603039777
1.01448	14058207.351895643
1.01708	14261913.43847765
1.01969	14463222.887211068
1.0223	14538983.949733267
1.02492	14514234.802771201
1.02754	14757947.192511206
1.03017	14711773.636731964
1.0328	15259379.275219688
1.03544	15499979.434252651
1.03808	15678487.307475604
1.04073	15849265.925856112
1.04339	16019264.938417876
1.04604	16196871.980661709
1.04871	16310212.87879511
1.05138	16439127.917285379
1.05405	16691789.385608831
1.05673	16904256.91084375
1.05941	17070316.06331411
1.0621	17224632.86389646
1.06479	17394218.448730994
1.06749	17567153.77879749
1.07019	17670891.106376886
1.07289	17873703.8438415
1.0756	18079397.98496246
1.07832	18219476.497936822
1.08104	18419831.15923954
1.08376	18594914.660419177
1.08649	18705772.928764846
1.08922	18668863.543019325
1.09195	18558003.95725458
1.09469	18539671.845455587
1.09743	18703501.161585886
1.10018	16906659.71068251
1.10293	15194622.132933144
1.10568	14054930.836583985
1.10844	16455692.435234934
1.1112	15635748.795219664
1.11396	14588365.786574746
1.11673	14585066.433336318
1.1195	14952302.592363784
1.12228	13928345.523634233
1.12505	16190753.131763795
1.12783	16311350.235138563
1.13062	16153594.320543746
1.13341	12228468.807368224
1.1362	14665491.84982939
1.13899	17742783.886352014
1.14178	17437201.023890976
1.14458	18321433.249750294
1.14738	19405800.82605638
1.15019	16747807.926907856
1.153	12715561.643646125
1.1558	14175468.254345298
1.15862	14442889.408245778
1.16143	14639017.889366318
1.16425	16766479.780588116
1.16707	18896556.454857737
1.16989	17597811.609859485
1.17271	18207353.67699886
1.17554	20010586.25736075
1.17837	21320997.534895677
1.1812	21943242.044832524
1.18403	23177406.239883773
1.18686	23079451.649424613
1.1897	23084824.6057465
1.19253	24206821.04429128
1.19537	24747249.277643446
1.19822	24992813.344893806
1.20106	25427335.950002335
1.2039	25231438.938599583
1.20675	25641549.25824802
1.2096	25873918.559140738
1.21245	25968346.08849417
1.2153	26560294.399759453
1.21815	26883677.562500864
1.221	27140380.33125178
1.22385	27429565.330161285
1.22671	27725391.900082186
1.22957	27936282.384114053
1.23242	28069271.744281355
1.23528	28329687.62038514
1.23814	28597933.277299486
1.241	28781120.97001494
1.24387	28970866.92095993
1.24673	29189950.931488276
1.24959	29151426.766959228
1.25245	28567069.68349649
1.25532	29569642.010309048
1.25818	30002617.195830815
1.26105	30041716.466685608
1.26392	30123708.721417986
1.26678	30300231.900400717
1.26965	30421870.256130967
1.27252	30448654.84832039
1.27538	30786888.790042426
1.27825	30911429.755142786
1.28112	30827987.224453002
1.28399	31126787.88749068
1.28686	31109984.800929867
1.28973	30776561.301869895
1.2926	30670522.513417687
1.29546	31143362.972263735
1.29833	31444055.884543728
1.3012	30937384.83505463
1.30407	30914834.407076214
1.30694	30877167.6397099
1.30981	31491060.257826522
1.31267	31238035.517830517
1.31554	31890523.943592627
1.31841	32411968.35992037
1.32128	31524190.15137007
1.32414	29888587.24668327
1.32701	29083630.740919754
1.32987	26688083.474395063
1.33274	19259604.70136862
1.3356	14359727.280047398
1.33847	7337805.91903692
1.34133	3956132.212079293
1.34419	7380748.34401612
1.34705	9643409.51894812
1.34991	7211541.875133109
1.35277	4263561.572955382
1.35563	4301577.247318781
1.35849	5536402.870728103
1.36135	3710150.0521047413
1.3642	5953688.466970714
1.36706	6486282.813829698
1.36991	5949995.3150257645
1.37277	10381969.216992673
1.37562	14811313.61169738
1.37847	15921905.802036265
1.38132	8211769.873961691
1.38417	2609366.472921949
1.38701	4397205.853044741
1.38986	3703506.27756681
1.39271	3846368.472929935
1.39555	5162121.672721991
1.39839	3711942.5363499243
1.40123	5797636.870132221
1.40407	9749277.662614938
1.40691	12231155.17854317
1.40974	7850490.229647455
1.41258	3369318.8160467334
1.41541	6098976.78647092
1.41824	7886178.8552041985
1.42107	5817296.453395073
1.4239	4136940.9909248366
1.42673	7119923.037432866
1.42955	9869187.33251514
1.43237	6396106.351740304
1.43519	8461988.265123535
1.43801	7094485.633334825
1.44083	8417212.134950759
1.44365	11876631.673742536
1.44646	12112234.474460894
1.44927	17002224.706065696
1.45208	19518252.473899428
1.45489	16738293.532794805
1.45769	19242971.48536252
1.4605	20675661.34076298
1.4633	20884328.169330202
1.4661	21989480.896747135
1.4689	18651556.72773502
1.47169	19417652.449669164
1.47449	19514606.198591325
1.47728	20288563.22982227
1.48007	20007857.84521059
1.48286	23288906.769779895
1.48564	26027040.532661207
1.48842	25475246.23899435
1.4912	25755828.288988587
1.49398	25445776.739272993
1.49676	24396859.098867755
1.49953	27281576.82956756
1.5023	29846034.54002506
1.50507	29846163.931087434
1.50784	28709108.11879089
1.51061	28942678.336835835
1.51337	29997099.595232446
1.51613	31301400.332353506
1.51888	32967248.867972072
1.52164	35544132.73355753
1.52439	36666643.011756934
1.52714	35488585.58779601
1.52989	35134278.77022369
1.53263	36303174.33607314
1.53538	37739648.08190053
1.53812	37868851.16118465
1.54086	37617093.20245288
1.54359	37880391.66410437
1.54632	39006618.21643896
1.54905	39210899.966198765
1.55178	40167308.47113999
1.5545	40037382.70984509
1.55723	39312587.19970279
1.55995	39548895.06347701
1.56266	40388889.46344369
1.56538	41738934.18312037
1.56809	42404933.223675385
1.5708	42308315.57278243
1.57351	41624300.579755634
1.57621	41185227.86675944
1.57891	40176614.93187507
1.58161	41391211.40428992
1.5843	43474315.856950484
1.587	43905672.44047817
1.58969	43861007.80453764
1.59238	43846663.85933043
1.59506	43518869.75548036
1.59774	43106584.782941476
1.60042	43140443.65800647
1.6031	43476058.8706848
1.60577	43756746.31275645
1.60844	43883358.889757596
1.61111	43716474.02220808
1.61378	43381057.08366296
1.61644	43443591.96569106
1.6191	43141625.46653403
1.62176	42782383.168907955
1.62441	43067463.09968818
1.62707	42939789.08664039
1.62971	42121049.79554642
1.63236	41774599.83255933
1.635	43328841.33450025
1.63764	45340824.58767935
1.64028	45955648.364579946
1.64292	45926284.12263348
1.64555	45365703.52131763
1.64818	44011351.05796476
1.65081	43814531.265784256
1.65343	44957771.213311
1.65605	45444067.17577614
1.65867	45457375.4549879
1.66128	44942718.115104556
1.6639	42819314.93623233
1.66651	38467568.4419332
1.66911	38081835.073660225
1.67172	42135256.799504794
1.67432	44962269.064198345
1.67692	45126685.92090153
1.67951	44405215.73491376
1.68211	44532605.380169764
1.6847	44702194.303581074
1.68728	44110927.86418025
1.68987	43421700.47051315
1.69245	42042272.30329817
1.69503	39581005.26024474
1.6976	38419677.66683665
1.70018	40225900.47157762
1.70275	40342703.862357795
1.70531	40351488.687435
1.70788	41398084.925765
1.71044	40922138.91432107
1.713	41208895.43337904
1.71556	41806441.864684395
1.71811	42484535.19882646
1.72066	43174466.32689443
1.72321	42716303.815305695
1.72575	42264867.97238526
1.7283	41523541.18304613
1.73084	40106229.78303591
1.73337	38521431.2077499
1.73591	37330164.68109801
1.73844	36752230.95395374
1.74097	36538224.83565878
1.74349	34919159.361120895
1.74602	32884355.811566837
1.74854	31878065.028381523
1.75105	29743682.22016129
1.75357	26586158.293212846
1.75608	28801307.658162467
1.75859	34529182.858675286
1.7611	37256672.81825482
1.7636	36543330.28621167
1.7661	31641584.456766263
1.7686	26971513.90827321
1.7711	23164200.111468803
1.77359	18971807.99923954
1.77608	13702885.309593914
1.77857	11083909.977018945
1.78105	12740672.790029453
1.78354	14435248.351984229
1.78602	12020665.200170793
1.78849	10035074.663722122
1.79097	11862693.031606853
1.79344	14344100.848267337
1.79591	15797975.203148153
1.79837	17463489.28396347
1.80084	12535122.174594983
1.8033	8443075.77638902
1.80576	5023373.6001490215
1.80821	3587204.8552335794
1.81067	7486340.232599456
1.81312	11180725.029634673
1.81557	7256201.266267307
1.81801	4575631.195313558
1.82046	8146884.669177329
1.8229	11903304.432844382
1.82533	8976340.285013625
1.82777	4318479.18573623
1.8302	3810760.901132983
1.83263	6021726.151004344
1.83506	8277140.64517178
1.83749	10857285.449730784
1.83991	12574391.527238049
1.84233	11130189.738490049
1.84475	10389755.321296964
1.84716	10921019.19437364
1.84957	11671814.896543052
1.85198	10317790.509574672
1.85439	6018669.375440431
1.8568	5097027.739354784
1.8592	6415724.034471287
1.8616	5344749.443164685
1.864	3726489.673281661
1.86639	4240415.20634119
1.86878	6142847.66119444
1.87118	8594523.53104287
1.87356	11111392.173620606
1.87595	12125609.470549664
1.87833	14304792.393859023
1.88071	18531200.596365854
1.88309	17926621.339239653
1.88547	15119340.417413998
1.88784	14787720.498230398
1.89021	14229514.7227832
1.89258	18779987.731032535
1.89494	21975310.187409353
1.89731	16426340.800724633
1.89967	9438152.888388962
1.90203	5424114.675664993
1.90439	5151063.7071218705
1.90674	7530087.753933026
1.90909	8305682.729636518
1.91144	5944760.393416239
1.91379	3388569.0753062046
1.91613	3044962.984085547
1.91848	4512443.001011951
1.92082	6210744.763547075
1.92315	6005539.751549892
1.92549	4648361.744887918
1.92782	5190629.212095716
1.93015	6901331.796368934
1.93248	8105045.198240442
1.93481	8170731.779453033
1.93713	7179350.583288774
1.93945	6699241.223203538
1.94177	7561684.204088391
1.94409	8383039.868864386
1.94641	8340408.196002369
1.94872	9145505.475592686
1.95103	10452038.426836902
1.95334	7707045.146687742
1.95564	6187310.882188505
1.95795	7204682.789733535
1.96025	7618638.362512167
1.96255	7704423.457479392
1.96484	8499973.01265095
1.96714	10656407.719959453
1.96943	13452452.990419792
1.97172	14847681.50361664
1.97401	13734683.319682255
1.97629	14372120.295656146
1.97858	16920730.342675135
1.98086	18387228.498609267
1.98314	19958904.220115505
1.98541	20956907.939714465
1.98769	19737793.9221393
1.98996	16576894.199025985
1.99223	15768398.09044953
1.9945	17533506.306894194
1.99677	16911302.153437056
1.99903	16768708.930612033
2.00129	19366172.27281956
2.00355	22847422.188053668
2.00581	24493710.88587818
2.00806	24615591.423280526
2.01031	27567349.11444944
2.01256	29371009.203966107
2.01481	27783141.04685891
2.01706	25488819.633565463
2.0193	25280024.167102553
2.02154	27906257.33802476
2.02378	31036891.38882433
2.02602	32019765.911854956
2.02825	32789480.286833197
2.03049	33788962.77057579
2.03272	35047409.50478371
2.03494	36277197.47318273
2.03717	37042813.12524343
2.03939	37494463.77637159
2.04162	38826312.31196325
2.04384	39965594.32056253
2.04605	41228536.76799864
2.04827	42513251.11128565
2.05048	42786711.64887862
2.05269	41152681.000839084
2.0549	40706695.34342725
2.05711	41373318.41561111
2.05931	42504141.423330605
2.06151	43461547.3418436
2.06371	44243848.094727315
2.06591	44814140.34390197
2.06811	45237978.0851143
2.0703	45398572.002350226
2.07249	45231193.128792964
2.07468	44755764.78272797
2.07686	44755570.564839564
2.07905	45075734.928257816
2.08123	45458132.26638454
2.08341	45787297.47128867
2.08559	46105493.921029784
2.08776	46320508.9603684
2.08994	46201202.28276468
2.09211	45881156.56600373
2.09428	45595461.23185731
2.09645	45783859.188751556
2.09861	45861031.27664253
2.10077	45796632.18877032
2.10293	45573572.067235924
2.10509	45214977.62523736
2.10725	44918332.10365453
2.1094	45476901.85386432
2.11155	46101010.68435499
2.1137	46406737.342215925
2.11585	46043018.658859015
2.11799	45753743.87393041
2.12013	45767486.35077439
2.12227	45975038.65265664
2.12441	46248874.39390033
2.12655	46327754.36963642
2.12868	46306866.64648829
2.13081	46328867.84507083
2.13294	46386526.20085964
2.13507	46187671.38034543
2.13719	45687800.620792426
2.13931	45263009.05048585
2.14143	44952595.92832592
2.14355	44606881.1360355
2.14567	44391807.85139745
2.14778	44191360.15570685
2.14989	43930789.50449424
2.152	43464954.793681175
2.1541	43561051.99816867
2.15621	43743720.59056299
2.15831	43803210.75134785
2.16041	43318493.02841463
2.16251	43081170.13115073
2.1646	42893311.785914026
2.1667	42729366.70772187
2.16879	42704720.7958147
2.17087	42581609.80369104
2.17296	42354854.18594058
2.17504	42027017.224955514
2.17713	41786770.47800086
2.1792	41558913.26120235
2.18128	41278243.523644306
2.18336	40867386.51738046
2.18543	40306285.91061721
2.1875	39683976.45771253
2.18957	38888396.751744285
2.19163	37406966.013681844
2.1937	34926189.01088146
2.19576	32156444.85712698
2.19782	29381875.628199313
2.19987	27786623.076268736
2.20193	26710564.46670526
2.20398	26069201.34626524
2.20603	25719835.146615393
2.20808	26137591.379547592
2.21012	26999842.01783581
2.21217	28264042.862791266
2.21421	29018180.20629463
2.21625	29147118.734148365
2.21828	28725987.803897448
2.22032	28589205.162663195
2.22235	28387996.940850683
2.22438	27894114.36730778
2.22641	26469140.26398156
2.22843	24908231.565295424
2.23046	23573775.1023953
2.23248	22789862.981797453
2.2345	22642068.77243328
2.23651	22520930.620641124
2.23853	22332809.527962837
2.24054	21177564.331574053
2.24255	19805515.647041317
2.24456	18345955.4050584
2.24657	18418846.276055783
2.24857	19294777.26544897
2.25057	20625652.612424072
2.25257	21282524.067632556
2.25457	21785215.96343828
2.25656	22190925.332922276
2.25856	22547941.485853698
2.26055	21922304.13914315
2.26254	20711710.098659266
2.26453	18965387.552476548
2.26651	17831365.41333044
2.2685	17246228.00777061
2.27048	17803375.449286398
2.27246	18739007.06241413
2.27443	19634088.379184414
2.27641	19736995.05044077
2.27838	19190962.282883044
2.28036	18373902.359846126
2.28233	17704838.22598752
2.28429	17185363.744146835
2.28626	16714162.698516501
2.28823	16083076.778215656
2.29019	15425316.050399236
2.29215	14751346.132103516
2.29411	14107905.632495577
2.29607	13484026.101411777
2.29802	12880715.061772421
2.29998	12507934.691542394
2.30193	12335000.47184357
2.30388	12388288.206278067
2.30583	12818433.393274784
2.30778	13383848.306106098
2.30972	14119013.287174772
2.31167	14298546.908663573
2.31361	13893285.847072074
2.31555	12145910.141964486
2.31749	10420947.200111054
2.31943	8874215.87635263
2.32137	8518873.257512549
2.32331	8314777.470167836
2.32524	8231550.203928211
2.32718	8151965.358882354
2.32911	8184919.437996434
2.33104	8379587.623696497
2.33297	8570894.66890345
2.3349	8752322.585078394
2.33683	8905294.8074301
2.33876	9025523.975418735
2.34068	9117559.920024341
2.34261	9049608.308371924
2.34453	8997431.312105881
2.34646	8962552.468874747
2.34838	9171285.925966328
2.3503	9554327.233458724
2.35223	10316982.960366556
2.35415	11024921.207795061
2.35607	11696482.96863964
2.35799	12194287.129603367
2.35991	12815379.682576787
2.36183	13585268.570734043
2.36375	13464212.634637093
2.36566	12765477.40335455
2.36758	10630072.79665732
2.3695	8899225.632580033
2.37142	7427710.162490188
2.37334	7818809.250688861
2.37526	8054710.37257033
2.37718	8015695.036119165
2.3791	7884192.616030036
2.38101	7837472.284437136
2.38293	8633184.440649407
2.38485	9692749.103999853
2.38677	11021721.064112166
2.3887	11715401.497934839
2.39062	12137867.99487075
2.39254	12028007.230300449
2.39446	11679497.278209193
2.39639	11175395.149579579
2.39831	10832515.741797308
2.40024	10505065.54595776
2.40216	10205172.349942537
2.40409	10252175.297590464
2.40602	10496673.045501221
2.40795	11394542.075205361
2.40989	12155972.655230585
2.41182	12740847.54909902
2.41376	13092277.503846325
2.4157	13470291.158355465
2.41764	14201453.096360065
2.41958	14646704.049388334
2.42152	14859485.323043372
2.42347	14016477.350366853
2.42542	13217352.112322178
