#wavelength	surface flux
0.676892	887243.7608026076
0.678297	906697.7257903959
0.679702	921914.6425107366
0.681109	937540.762255297
0.682517	960503.2394168613
0.683926	982084.9376220736
0.685337	1000762.6407779825
0.686749	1019506.216803938
0.688164	1037369.0370959875
0.689581	1053997.8910019288
0.691	1062949.5365411618
0.692422	1076004.2516604296
0.693847	1103767.3849260737
0.695274	1131890.7787712165
0.696705	1154148.010656093
0.698139	1173400.582288034
0.699576	1193081.678121347
0.701017	1212358.8399853595
0.702461	1229504.6682945853
0.70391	1251670.7935333871
0.705362	1274286.0186353468
0.706819	1293276.7778277993
0.70828	1312531.4944220292
0.709745	1331735.2734701708
0.711216	1353353.5304606445
0.71269	1373058.3786279217
0.71417	1391474.956932986
0.715655	1403776.9960547318
0.717145	1411360.1379631064
0.71864	1437653.0430053852
0.72014	1457385.079922587
0.721647	1473172.9763924067
0.723158	1489012.854710007
0.724676	1501978.4522067325
0.726199	1515105.835774401
0.727728	1532519.7880500127
0.729264	1537975.2354737741
0.730805	1550613.3602427398
0.732353	1568070.6336234221
0.733907	1575118.6930493515
0.735468	1581061.9481568907
0.737035	1582536.812663294
0.738609	1586105.888011159
0.74019	1581534.7274216865
0.741777	1564207.1748546993
0.743372	1544574.7288425933
0.744973	1518480.542598161
0.746582	1478804.7790347952
0.748197	1426227.980667963
0.74982	1357771.2762268255
0.751451	1270464.88533876
0.753088	1159742.1902596457
0.754734	1025252.2695537974
0.756386	866913.2759309832
0.758047	685264.877708384
0.759715	495516.63285547035
0.76139	308226.3283008709
0.763074	148009.07230126078
0.764765	44632.710577614926
0.766464	6587.17105446458
0.768172	9245.03561437285
0.769887	11328.757217421105
0.77161	82107.41542960133
0.773341	252499.26605391785
0.775081	484260.8984472058
0.776829	734224.4379225465
0.778585	889555.0906125704
0.780349	1004338.7934596246
0.782121	1404161.2748874852
0.783902	1688894.337672289
0.785691	1891374.438465371
0.787489	2065807.5533443058
0.789295	2217106.0730895307
0.79111	2329187.9703885675
0.792933	1972798.4289455367
0.794764	1085722.4387508184
0.796604	2333265.3952677776
0.798453	2806178.3940761765
0.80031	2923640.583469663
0.802176	3022985.7153313984
0.804051	3113998.786797937
0.805934	3198029.208296295
0.807826	3274532.6188299702
0.809727	3324500.9625013527
0.811636	3379407.8255728073
0.813554	3451892.133561681
0.81548	3572506.729413068
0.817416	3634152.584482218
0.81936	3691216.772353635
0.821313	3802283.340156517
0.823274	3858426.900575773
0.825244	3966553.747664895
0.827223	4039978.461746087
0.829211	4094268.8089459804
0.831208	4162471.0017258925
0.833213	4252904.598733735
0.835227	4320386.447316068
0.837249	4369720.664156061
0.83928	4449002.240047214
0.841321	4564873.662141354
0.843369	4662533.093104112
0.845427	4743413.478751618
0.847493	4829495.264084057
0.849567	4884282.948940358
0.851651	4876765.533618034
0.853742	5019472.286266958
0.855843	5169555.66451693
0.857952	5262020.929163369
0.86007	5330232.825244413
0.862196	5162671.24921025
0.864331	5293854.9208852025
0.866474	5442095.797414057
0.868626	5565454.27774846
0.870786	5641835.422006834
0.872955	5737627.033394985
0.875132	5821607.447247412
0.877317	5939913.4109293455
0.879511	5937690.499695225
0.881713	6044938.958695183
0.883923	6192664.819713106
0.886142	6264755.667064283
0.888369	6334692.73949392
0.890604	6349737.969501462
0.892847	6248443.3302313965
0.895099	6405319.658220745
0.897358	6633940.715824563
0.899626	6805881.168014602
0.901901	6949629.37307571
0.904185	7110078.694150128
0.906476	7204010.461133173
0.908776	7314473.71047338
0.911083	7451376.908519668
0.913398	7489069.660778018
0.915721	7508175.185180759
0.918051	7528074.454678876
0.92039	7789952.751987354
0.922736	7869773.786052549
0.925089	7639033.00593378
0.927451	7006585.7148798825
0.929819	6283479.255060975
0.932195	6960196.206870491
0.934579	6997324.563396932
0.93697	7336333.077815398
0.939369	7847651.404409877
0.941774	7979084.767941066
0.944187	7495863.83173386
0.946607	7384329.853454774
0.949035	7965853.408096004
0.951469	7878892.980478827
0.953911	8117786.323585472
0.956359	8759999.118200434
0.958814	8097788.139593014
0.961277	7819539.643177385
0.963746	7977296.284195422
0.966222	8162719.124821305
0.968705	8132110.137705862
0.971194	9133462.368074445
0.97369	9682056.789249638
0.976193	9574086.207794035
0.978702	9910033.745280169
0.981217	10059838.827335862
0.983739	10247500.867308151
0.986268	10406957.54862025
0.988802	10671854.800361436
0.991343	10917956.725073311
0.99389	11053632.607582485
0.996444	11301108.929577
0.999003	11398511.575711971
1.00157	11477074.910256322
1.00414	11640446.844402501
1.00672	11888136.413599798
1.0093	12088285.093099652
1.01189	12305320.631464506
1.01448	12558859.433883797
1.01708	12740893.650757058
1.01969	12921465.914712584
1.0223	12996691.225682754
1.02492	12966873.71962641
1.02754	13192363.153601447
1.03017	13127024.87720885
1.0328	13650329.390624132
1.03544	13871437.837903397
1.03808	14035929.65005975
1.04073	14194885.794058407
1.04339	14352047.821002346
1.04604	14513352.910022924
1.04871	14612015.388523865
1.05138	14730830.134210795
1.05405	14964243.450583825
1.05673	15160359.627214313
1.05941	15315012.87543215
1.0621	15457858.99387725
1.06479	15612995.87011829
1.06749	15770442.914442409
1.07019	15861865.01982921
1.07289	16048979.855235381
1.0756	16240669.367641946
1.07832	16367723.907175025
1.08104	16553111.089904256
1.08376	16715890.101015586
1.08649	16813870.90351331
1.08922	16770601.733264191
1.09195	16659796.847796215
1.09469	16632274.038958257
1.09743	16780412.910112582
1.10018	15021384.00394226
1.10293	13352706.092603596
1.10568	12244713.750257075
1.10844	14571346.406774385
1.1112	13764144.378077032
1.11396	12703958.576073812
1.11673	12685671.340300452
1.1195	13011032.468649434
1.12228	11980074.743995935
1.12505	14155512.233240824
1.12783	14263390.087202985
1.13062	14140356.633209553
1.13341	10412827.66272827
1.1362	12760551.951994631
1.13899	15693521.16347756
1.14178	15346589.367766673
1.14458	16220299.285619238
1.14738	17262026.696292408
1.15019	14625224.162058426
1.153	10718192.716092793
1.1558	12085711.164452491
1.15862	12354314.679582424
1.16143	12555018.148595836
1.16425	14613389.899151608
1.16707	16685989.78929809
1.16989	15430518.324490976
1.17271	16044255.211489905
1.17554	17815191.68174845
1.17837	19089811.1611495
1.1812	19675455.335904013
1.18403	20869049.851956073
1.18686	20774614.609661166
1.1897	20778947.346928153
1.19253	21865030.908897083
1.19537	22387233.695610825
1.19822	22626768.766979028
1.20106	23040924.20569804
1.2039	22841864.587380573
1.20675	23240574.710199423
1.2096	23464744.8942722
1.21245	23547763.46708718
1.2153	24109721.059873268
1.21815	24416871.601367418
1.221	24658565.090282615
1.22385	24934488.394100904
1.22671	25218292.11005891
1.22957	25416413.45576477
1.23242	25536758.41883437
1.23528	25783089.03357978
1.23814	26039325.054860514
1.241	26213538.945325006
1.24387	26393189.90914077
1.24673	26595859.074016355
1.24959	26571909.803809024
1.25245	26079062.44185253
1.25532	26972017.93582066
1.25818	27364154.32504325
1.26105	27394668.77582885
1.26392	27470467.111398563
1.26678	27636737.504802834
1.26965	27745717.23429881
1.27252	27766129.16503212
1.27538	28091830.636306122
1.27825	28203895.314762603
1.28112	28109285.072444484
1.28399	28398967.405475244
1.28686	28366111.73660416
1.28973	28023304.26128321
1.2926	27904495.11913723
1.29546	28363793.327607214
1.29833	28656992.99503658
1.3012	28135006.919945095
1.30407	28105977.664163057
1.30694	28058142.06789168
1.30981	28650995.843953393
1.31267	28372064.102286283
1.31554	29036897.36823085
1.31841	29580091.134471208
1.32128	28670454.828091957
1.32414	27037802.251578193
1.32701	26275470.0394385
1.32987	23897202.530462846
1.33274	16869985.426372524
1.3356	12371769.706828678
1.33847	6065865.269166242
1.34133	3110022.197583846
1.34419	6019267.013592043
1.34705	7928861.95509206
1.34991	5724257.0223013945
1.35277	3266905.566276621
1.35563	3384074.2795078224
1.35849	4315231.49219
1.36135	2799864.605363459
1.3642	4676700.585393256
1.36706	5060808.552744962
1.36991	4581617.264784696
1.37277	8450724.714949638
1.37562	12460099.93288588
1.37847	13487425.720520446
1.38132	6679148.534598772
1.38417	1902383.5344113458
1.38701	3345753.4805846983
1.38986	2787430.4745121035
1.39271	2953400.1907352367
1.39555	4057018.1260644835
1.39839	2875387.7380529228
1.40123	4653394.293763376
1.40407	7987008.85936067
1.40691	10155613.262713326
1.40974	6334540.217138283
1.41258	2585569.377719621
1.41541	4877238.388080834
1.41824	6326795.856081973
1.42107	4534833.500522375
1.4239	3190770.19002751
1.42673	5696293.858453594
1.42955	8059463.752745111
1.43237	5173656.006794504
1.43519	7041575.188587712
1.43801	5775760.426284734
1.44083	6927801.722683294
1.44365	9928543.41342482
1.44646	10177811.775125762
1.44927	14711270.194600167
1.45208	17061576.23789458
1.45489	14473947.337350352
1.45769	16788082.025655545
1.4605	18132766.12904153
1.4633	18354201.786505796
1.4661	19376794.964167006
1.4689	16186210.313461935
1.47169	16887384.944642268
1.47449	16934227.8654893
1.47728	17589803.187185094
1.48007	17366139.817516617
1.48286	20555389.809083708
1.48564	23199362.25358433
1.48842	22727557.25373852
1.4912	23006441.682674572
1.49398	22662820.6853451
1.49676	21564724.88864166
1.49953	24339788.883243725
1.5023	26846167.631148897
1.50507	26809770.862377875
1.50784	25705856.87940431
1.51061	25991005.120973315
1.51337	27014724.562090173
1.51613	28311110.726481773
1.51888	29946108.247254703
1.52164	32448926.84647312
1.52439	33578208.77191366
1.52714	32434993.03157598
1.52989	32079594.965469472
1.53263	33236990.605315503
1.53538	34644498.223065786
1.53812	34776662.12311978
1.54086	34536211.69153224
1.54359	34778023.88457067
1.54632	35877864.37043664
1.54905	36070566.64853873
1.55178	37019984.88954752
1.5545	36891700.43124538
1.55723	36177992.4402995
1.55995	36423252.02175615
1.56266	37231367.820255026
1.56538	38555063.02969711
1.56809	39214515.22625623
1.5708	39111630.47119275
1.57351	38407075.75546977
1.57621	37931749.03176445
1.57891	36874529.17336889
1.58161	38098408.46970722
1.5843	40220728.51069483
1.587	40655970.78558311
1.58969	40606232.909926094
1.59238	40567378.17781749
1.59506	40205255.60379858
1.59774	39767829.86485136
1.60042	39747172.216298655
1.6031	40046597.55584525
1.60577	40335814.20159649
1.60844	40456647.51649427
1.61111	40250100.472173154
1.61378	39856189.522461765
1.61644	39861585.58757868
1.6191	39503344.32325622
1.62176	39057466.73975878
1.62441	39230057.56333534
1.62707	39015254.94275187
1.62971	38069884.80256854
1.63236	37685963.06760347
1.635	39422836.45751506
1.63764	41693462.544695005
1.64028	42391054.49716651
1.64292	42324461.04799346
1.64555	41617921.780936666
1.64818	40031418.16825041
1.65081	39831156.52492451
1.65343	41162406.75250295
1.65605	41705417.19693021
1.65867	41744159.8819467
1.66128	41202671.40625902
1.6639	38801769.57656131
1.66651	33924212.518302284
1.66911	33519409.10551938
1.67172	37969997.51682925
1.67432	41019043.86705455
1.67692	41156289.79503059
1.67951	40304025.18782932
1.68211	40440652.81528247
1.6847	40620284.2508559
1.68728	39928467.66919665
1.68987	39227411.64272332
1.69245	37819312.92686877
1.69503	35161907.321691334
1.6976	33859636.3600172
1.70018	35744972.34186775
1.70275	35828168.36202423
1.70531	35913984.31121564
1.70788	37177847.63769993
1.71044	36737876.42312708
1.713	37153972.89849329
1.71556	37861014.04027762
1.71811	38544343.26635593
1.72066	39323874.49539817
1.72321	38891244.00328814
1.72575	38411024.13639412
1.7283	37697601.37731279
1.73084	36334469.11715789
1.73337	34793329.80196156
1.73591	33641781.08649967
1.73844	33118607.727553733
1.74097	32964848.823033094
1.74349	31438026.224039942
1.74602	29493236.114781324
1.74854	28533740.794189755
1.75105	26512433.818257928
1.75357	23531367.274668716
1.75608	25679551.776830934
1.75859	31144264.831387114
1.7611	33682546.58833048
1.7636	32943968.890998438
1.7661	28241517.00738967
1.7686	23861561.824583326
1.7711	20253633.18483777
1.77359	16333002.927336797
1.77608	11554665.800100971
1.77857	9207503.911088906
1.78105	10673231.939336354
1.78354	12186859.414467577
1.78602	10056627.474963408
1.78849	8275428.380019095
1.79097	9908506.363520693
1.79344	12195019.062694483
1.79591	13680305.07165325
1.79837	15394720.72349098
1.80084	10867061.84949712
1.8033	6998966.6186143095
1.80576	4037389.441303043
1.80821	2834240.623714635
1.81067	6258494.057910994
1.81312	9434250.620877177
1.81557	5944181.572995115
1.81801	3634031.706281138
1.82046	6773670.629005853
1.8229	10005861.963944042
1.82533	7430193.919797067
1.82777	3395049.9704959323
1.8302	2900447.5298029454
1.83263	4731771.638109564
1.83506	6681074.21857866
1.83749	8984519.813618848
1.83991	10456936.86950931
1.84233	9140885.093022214
1.84475	8520789.511006407
1.84716	9032683.044312172
1.84957	9804983.822296165
1.85198	8756193.039825175
1.85439	4999618.477453154
1.8568	4140602.064092937
1.8592	5254386.316434621
1.8616	4322849.41914233
1.864	2902620.799471671
1.86639	3242776.2626467645
1.86878	4771565.439159574
1.87118	6882891.253161322
1.87356	9126355.351896735
1.87595	10080514.886565253
1.87833	12189937.76404544
1.88071	16177285.770906808
1.88309	15655386.511774287
1.88547	13044096.344884593
1.88784	12645608.340858832
1.89021	12088256.920423802
1.89258	16349368.733784664
1.89494	19362010.40488761
1.89731	14144398.696738672
1.89967	7696489.862237871
1.90203	4170254.3276368044
1.90439	3974424.3693289123
1.90674	5966419.965810131
1.90909	6582751.2845586585
1.91144	4622474.944685433
1.91379	2538069.932145762
1.91613	2267187.5056468844
1.91848	3462622.851151434
1.92082	4852196.547464853
1.92315	4697324.856857851
1.92549	3594420.920676427
1.92782	4032692.0462078447
1.93015	5452178.630377933
1.93248	6477690.864460436
1.93481	6548321.198870813
1.93713	5732020.527696479
1.93945	5392160.960709152
1.94177	6205248.86107974
1.94409	6939039.324102215
1.94641	6920647.725706603
1.94872	7686540.968735669
1.95103	8874414.819290873
1.95334	6437164.8686657725
1.95564	5064070.943366032
1.95795	5923106.114027477
1.96025	6262832.785632154
1.96255	6339642.511634416
1.96484	7066752.729634184
1.96714	9024211.764810404
1.96943	11573418.364199776
1.97172	12874574.825689366
1.97401	11889432.842151906
1.97629	12491965.557146704
1.97858	14839726.808165923
1.98086	16189979.328829613
1.98314	17653395.365434926
1.98541	18591045.015882887
1.98769	17465546.09240814
1.98996	14535215.856384568
1.99223	13814220.552693618
1.9945	15489259.699556585
1.99677	14910521.629768655
1.99903	14772100.711031802
2.00129	17195288.857771993
2.00355	20463654.812050294
2.00581	22046482.447389934
2.00806	22221662.97859223
2.01031	25047703.560986795
2.01256	26722790.253510825
2.01481	25162915.93723806
2.01706	22972798.89732103
2.0193	22815198.18789284
2.02154	25371736.420407813
2.02378	28376192.233267218
2.02602	29287638.562399514
2.02825	30021288.697466705
2.03049	30995023.13532817
2.03272	32224456.26904026
2.03494	33428842.198599484
2.03717	34194481.015534155
2.03939	34642118.5406225
2.04162	35942773.248215586
2.04384	37076884.15118552
2.04605	38330537.0842292
2.04827	39579884.381915964
2.05048	39808756.54204919
2.05269	38198889.979500555
2.0549	37774292.56511541
2.05711	38439656.68302755
2.05931	39550947.69217831
2.06151	40483556.20820164
2.06371	41247913.03050467
2.06591	41798744.30416043
2.06811	42207829.78242104
2.0703	42367557.24222726
2.07249	42211640.60043009
2.07468	41742965.52225899
2.07686	41730018.22992204
2.07905	42040888.325107954
2.08123	42410320.20144023
2.08341	42718177.59216872
2.08559	43005344.44297804
2.08776	43207906.67751726
2.08994	43090257.16155267
2.09211	42771968.12041577
2.09428	42478630.333539195
2.09645	42645686.63745385
2.09861	42709918.28116281
2.10077	42637016.86800983
2.10293	42414964.491901144
2.10509	42068415.764410324
2.10725	41777420.46241643
2.1094	42288605.55851114
2.11155	42851433.56178575
2.1137	43099216.94022474
2.11585	42695407.736180454
2.11799	42380585.13229047
2.12013	42367275.24473709
2.12227	42553694.437132865
2.12441	42818968.62056546
2.12655	42904967.347667515
2.12868	42883337.13935421
2.13081	42900493.73275161
2.13294	42947184.4560727
2.13507	42715425.80399387
2.13719	42173981.20735792
2.13931	41711424.618620925
2.14143	41358541.58024331
2.14355	40930691.42074807
2.14567	40676201.8893903
2.14778	40455980.6141473
2.14989	40179018.82476697
2.152	39668463.587088846
2.1541	39782185.38875112
2.15621	39976424.43303052
2.15831	40017629.966443725
2.16041	39442853.848692134
2.16251	39163519.24685439
2.1646	38953507.209493615
2.1667	38784069.78883531
2.16879	38789108.21426449
2.17087	38703647.56412321
2.17296	38509222.50131694
2.17504	38200027.3480344
2.17713	37930535.1760304
2.1792	37638659.69047378
2.18128	37275949.07667527
2.18336	36781078.55428643
2.18543	36144416.834960476
2.1875	35445106.207826965
2.18957	34564774.37140092
2.19163	32967537.71993709
2.1937	30352059.893384628
2.19576	27460783.93556207
2.19782	24594882.252510395
2.19987	22941805.412110053
2.20193	21840384.220326837
2.20398	21202088.181410495
2.20603	20878241.006866813
2.20808	21305196.301048424
2.21012	22171787.52215048
2.21217	23440903.34372793
2.21421	24210576.107720405
2.21625	24345791.558632147
2.21828	23920029.095771007
2.22032	23765929.234309677
2.22235	23556453.09940465
2.22438	23064360.52093543
2.22641	21660097.909369815
2.22843	20124349.83624729
2.23046	18811419.16209084
2.23248	18038910.292073347
2.2345	17878470.187824596
2.23651	17749094.6664927
2.23853	17562077.92489481
2.24054	16508136.104846891
2.24255	15268694.78520672
2.24456	13961075.3947636
2.24657	14061494.895179877
2.24857	14881438.987441499
2.25057	16102326.722009063
2.25257	16669397.500191845
2.25457	17112860.067832798
2.25656	17479756.017654527
2.25856	17814840.45537768
2.26055	17245543.23711151
2.26254	16147304.313522633
2.26453	14594598.445907952
2.26651	13598142.42373481
2.2685	13094335.872250993
2.27048	13604210.848002115
2.27246	14444978.763059866
2.27443	15246281.515161142
2.27641	15339239.532615941
2.27838	14869841.882522793
2.28036	14164739.785180794
2.28233	13583856.562526932
2.28429	13113304.941979205
2.28626	12679994.064090738
2.28823	12143325.825887138
2.29019	11670462.831014464
2.29215	11246539.110716315
2.29411	10937979.825964734
2.29607	10636754.818924628
2.29802	10343901.330370674
2.29998	10198776.986629259
2.30193	10227205.229318874
2.30388	10453133.078986466
2.30583	11040218.936103167
2.30778	11715386.587839609
2.30972	12481927.170276359
2.31167	12580037.889150346
2.31361	12083018.066330396
2.31555	10289939.287433192
2.31749	8593240.146305429
2.31943	7106223.920453922
2.32137	6798779.990855521
2.32331	6627318.507677439
2.32524	6564465.008742767
2.32718	6483420.938194904
2.32911	6495205.443647502
2.33104	6640745.106187002
2.33297	6768037.73699548
2.3349	6880721.106900155
2.33683	6960143.254122128
2.33876	7008208.552660289
2.34068	7029321.910888227
2.34261	6892350.888123365
2.34453	6771027.659962391
2.34646	6666090.563150638
2.34838	6856022.890404747
2.3503	7230521.637282563
2.35223	7992676.770189783
2.35415	8708403.655253138
2.35607	9390184.143491626
2.35799	9873953.937920831
2.35991	10430574.969221566
2.36183	11075119.907091182
2.36375	10935869.036724294
2.36566	10303975.58585146
2.36758	8461356.918114832
2.3695	6921362.670745515
2.37142	5575358.4364324305
2.37334	5821128.87748783
2.37526	6011529.904927177
2.37718	6095758.744966336
2.3791	6102405.6292955065
2.38101	6165922.992216413
2.38293	6836498.932794305
2.38485	7681968.669990031
2.38677	8706014.178469017
2.3887	9161802.051234566
2.39062	9415360.768911444
2.39254	9314274.217218494
2.39446	9116993.094964078
2.39639	8856700.118178885
2.39831	8709346.44734961
2.40024	8531316.756076798
2.40216	8293789.94891808
2.40409	8340547.161900727
2.40602	8555908.781495724
2.40795	9387091.49442957
2.40989	10099970.254679335
2.41182	10659154.742544975
2.41376	10981240.663744932
2.4157	11321408.937242882
2.41764	11980934.541444348
2.41958	12378201.45765779
2.42152	12562230.00139503
2.42347	11764072.35390153
2.42542	11027246.159139866
2.42737	10660779.067806007
