#wavelength	surface flux
0.676892	182017.62047625592
0.678297	187445.4357912563
0.679702	192709.62145412544
0.681109	197923.86606251364
0.682517	203168.5272973748
0.683926	208395.71556011593
0.685337	213550.5124778643
0.686749	218732.54794484202
0.688164	223871.65213243803
0.689581	228670.46959517332
0.691	231647.8723686437
0.692422	232481.80886987678
0.693847	239813.55327235284
0.695274	248401.02159156348
0.696705	254663.71288767477
0.698139	259440.38433489052
0.699576	264470.00334277994
0.701017	269062.12999969884
0.702461	272556.38982776646
0.70391	279241.4396130617
0.705362	285771.11584427016
0.706819	290099.77042596624
0.70828	294554.5305602303
0.709745	298770.0464797
0.711216	304506.5996750967
0.71269	308860.501542078
0.71417	312320.1402913779
0.715655	312141.2772056531
0.717145	308822.5315612221
0.71864	316667.00061176403
0.72014	320867.0381200817
0.721647	322917.436745418
0.723158	323521.6784129146
0.724676	322016.44147878466
0.726199	321474.6232379606
0.727728	323885.8587438169
0.729264	319461.1192439425
0.730805	319619.6671717589
0.732353	322886.2618916497
0.733907	319738.56725391
0.735468	316952.50039252586
0.737035	311750.3485751694
0.738609	307158.5864837982
0.74019	299787.8061581994
0.741777	287178.54976390215
0.743372	274820.7372481647
0.744973	261428.96227850826
0.746582	244029.9457605608
0.748197	224271.15847502256
0.74982	202006.27476130228
0.751451	177140.99981840543
0.753088	150270.17870117785
0.754734	122290.9278465745
0.756386	94176.03814940933
0.758047	67295.40434801926
0.759715	43676.897023429876
0.76139	24206.422168654033
0.763074	10665.529229632317
0.764765	3283.87532477718
0.766464	726.5176450397798
0.768172	939.5093100023358
0.769887	972.6466614925525
0.77161	6054.077662751842
0.773341	19585.383139320682
0.775081	42575.70388120825
0.776829	72647.7333573532
0.778585	94986.41814952409
0.780349	116219.71705229476
0.782121	187808.16955478291
0.783902	249086.59818566102
0.785691	301531.6814785496
0.787489	352501.6717965754
0.789295	400481.26707788114
0.79111	439220.96511288057
0.792933	359533.4976431099
0.794764	186442.82337680622
0.796604	486848.61501973245
0.798453	621284.2881682066
0.80031	671152.3571415206
0.802176	712748.3844755394
0.804051	751923.0624507549
0.805934	789649.6199431762
0.807826	822394.1843453173
0.809727	838159.2307140582
0.811636	853981.7259960232
0.813554	880936.337189647
0.81548	947242.4226108028
0.817416	983809.7553407988
0.81936	1016259.1206409752
0.821313	1049808.8556930914
0.823274	1062619.8087964181
0.825244	1119605.3669173487
0.827223	1150399.1027826767
0.829211	1165020.2428102223
0.831208	1187911.6032169028
0.833213	1232197.2135321265
0.835227	1257840.5607220014
0.837249	1268393.0527377133
0.83928	1304541.1742306775
0.841321	1370217.7501119296
0.843369	1423141.2233355127
0.845427	1457361.7119020862
0.847493	1497151.3459403114
0.849567	1513124.246872596
0.851651	1483405.63132842
0.853742	1560559.7254949464
0.855843	1645033.3249749092
0.857952	1686748.5902640382
0.86007	1719911.0697112316
0.862196	1715700.120104246
0.864331	1756257.2800014536
0.866474	1804524.1465900408
0.868626	1847726.136186748
0.870786	1891376.09943346
0.872955	1931909.9049574235
0.875132	1959460.690142063
0.877317	1998217.3407515972
0.879511	2006803.8614612164
0.881713	2029589.5629120367
0.883923	2059376.1278249966
0.886142	2081268.7001820528
0.888369	2092157.855752825
0.890604	2096004.3416636658
0.892847	1987912.58959932
0.895099	2004117.295524641
0.897358	2135971.819391532
0.899626	2283589.6906940523
0.901901	2364749.5313729565
0.904185	2452889.82343187
0.906476	2476828.391699642
0.908776	2520301.9091119734
0.911083	2604284.5863494514
0.913398	2585239.3116011117
0.915721	2578204.524788675
0.918051	2532020.619923185
0.92039	2725043.850615184
0.922736	2745401.9760218333
0.925089	2505711.697289428
0.927451	1990476.024412104
0.929819	1479828.160249477
0.932195	1851266.2242272357
0.934579	1779093.6482313082
0.93697	1981288.2460416127
0.939369	2359925.034012623
0.941774	2404841.489767208
0.944187	1964081.881983216
0.946607	1815953.4630452902
0.949035	2236358.0523460614
0.951469	2152783.377966894
0.953911	2269871.309314121
0.956359	2793967.8826344167
0.958814	2222505.4827044792
0.961277	1983332.2930771105
0.963746	2073530.084864846
0.966222	2161522.4035231494
0.968705	2144462.05251196
0.971194	2882531.2905126456
0.97369	3228999.987312573
0.976193	3075832.305113945
0.978702	3331098.9860458337
0.981217	3395039.7872781865
0.983739	3521985.456677483
0.986268	3592264.546408115
0.988802	3805088.4916266757
0.991343	4017345.3284230595
0.99389	4064206.2066205023
0.996444	4220341.8650465375
0.999003	4309974.658964938
1.00157	4349457.852594038
1.00414	4439126.730989144
1.00672	4578658.502176144
1.0093	4686611.77336149
1.01189	4797841.488230863
1.01448	4950332.937473747
1.01708	5033438.082778423
1.01969	5112512.866709999
1.0223	5162095.497142097
1.02492	5126284.6600201605
1.02754	5224398.57258119
1.03017	5175464.886999869
1.0328	5472790.625415189
1.03544	5583493.826550177
1.03808	5665575.714079286
1.04073	5749525.846229105
1.04339	5825889.641329018
1.04604	5897186.059139232
1.04871	5927717.208803559
1.05138	5987580.280170936
1.05405	6103989.663751969
1.05673	6203324.6634275485
1.05941	6284035.373167701
1.0621	6352491.615401333
1.06479	6423042.311944613
1.06749	6493128.517191246
1.07019	6502188.221908797
1.07289	6599752.061604169
1.0756	6711114.924828077
1.07832	6760154.108676852
1.08104	6852653.708850869
1.08376	6943992.875568175
1.08649	6963789.851755465
1.08922	6849836.357908338
1.09195	6709213.419785222
1.09469	6610109.867603366
1.09743	6659932.388120166
1.10018	5119789.546496962
1.10293	3796552.4518918726
1.10568	3062136.3301436277
1.10844	4692070.927911149
1.1112	4051709.1673579905
1.11396	3156219.059924266
1.11673	3146830.350191635
1.1195	3119053.204391519
1.12228	2335898.093121861
1.12505	3515060.5197280482
1.12783	3506218.391632193
1.13062	3616903.0776543957
1.13341	1895656.9777403674
1.1362	3276444.7211038084
1.13899	4724168.896622097
1.14178	4187953.456536854
1.14458	4919179.466372119
1.14738	5649509.353013626
1.15019	3623517.041884853
1.153	1480730.3076323573
1.1558	1957678.9620473583
1.15862	2133762.2271684743
1.16143	2283815.1258397074
1.16425	3447015.5296302163
1.16707	4751706.201427151
1.16989	3956538.8534716745
1.17271	4495121.59812639
1.17554	5840723.850818712
1.17837	6827509.090562767
1.1812	7218366.011404759
1.18403	8184495.285984163
1.18686	8102689.702617706
1.1897	8095209.088762579
1.19253	9008905.927284911
1.19537	9442332.28004031
1.19822	9656039.710940976
1.20106	9961781.067249058
1.2039	9827642.037109397
1.20675	10114770.945247289
1.2096	10232915.501970159
1.21245	10229160.85843246
1.2153	10640473.488190487
1.21815	10858247.449112635
1.221	11015276.711234827
1.22385	11223360.516905775
1.22671	11441828.939114418
1.22957	11566767.75147884
1.23242	11587200.417879684
1.23528	11749267.534860596
1.23814	11939521.403836595
1.241	12053678.27289949
1.24387	12169445.215150613
1.24673	12279602.188617002
1.24959	12316614.831098694
1.25245	12241796.739707708
1.25532	12576654.161614625
1.25818	12752225.817897024
1.26105	12717538.242084691
1.26392	12744082.868486663
1.26678	12845320.960285349
1.26965	12868443.802232975
1.27252	12812322.052977039
1.27538	13071425.000738528
1.27825	13081212.9075416
1.28112	12856095.193381881
1.28399	13100661.115884319
1.28686	12945061.803860478
1.28973	12465787.037280109
1.2926	12214623.153382082
1.29546	12619553.916904464
1.29833	12882296.837234449
1.3012	12164138.815034924
1.30407	12077327.059658673
1.30694	11905441.214141974
1.30981	12335521.694456635
1.31267	11802015.612005558
1.31554	12634379.74445872
1.31841	13460515.140408583
1.32128	12226984.108650222
1.32414	10484646.133470962
1.32701	10010526.331996346
1.32987	7998155.98312894
1.33274	4193200.4330246546
1.3356	2543155.411316106
1.33847	826312.1271465172
1.34133	251590.10200408005
1.34419	642020.3689854285
1.34705	886071.0254307485
1.34991	417062.5676494235
1.35277	170283.7861997864
1.35563	267377.5418899287
1.35849	286480.6086162853
1.36135	114670.71707645526
1.3642	285830.9173570924
1.36706	302188.49990997044
1.36991	230624.195030217
1.37277	770330.7652739614
1.37562	1642916.3354805107
1.37847	1933996.8729228573
1.38132	697369.9308472262
1.38417	71149.20953582518
1.38701	160367.33104852145
1.38986	124896.63488399099
1.39271	162079.82811365504
1.39555	263477.6850058569
1.39839	201961.48987097054
1.40123	438059.40448974224
1.40407	843195.2274392436
1.40691	1179152.4189158885
1.40974	563141.058416285
1.41258	151574.6112319919
1.41541	419940.5170445372
1.41824	536451.1485970477
1.42107	275610.8375102664
1.4239	184811.23648289536
1.42673	450111.616200175
1.42955	770875.7183815768
1.43237	525632.1959193922
1.43519	996537.88097927
1.43801	654413.5537360074
1.44083	822373.5575608927
1.44365	1354769.2033820094
1.44646	1525716.5262053232
1.44927	3079101.0921636997
1.45208	3994340.996992145
1.45489	3012646.063522249
1.45769	3841663.4082024763
1.4605	4419768.102217801
1.4633	4651552.630384637
1.4661	5005945.83543488
1.4689	3409549.830385404
1.47169	3622819.77265534
1.47449	3415811.3803987396
1.47728	3347758.0260364506
1.48007	3440848.773264537
1.48286	5239486.433880309
1.48564	6700981.149510005
1.48842	6689756.137743386
1.4912	6857213.557812872
1.49398	6500942.27496352
1.49676	5550450.619297993
1.49953	6975727.252121793
1.5023	8657319.810560174
1.50507	8599823.815940393
1.50784	7917747.8731994685
1.51061	8328500.350922668
1.51337	9075586.460354157
1.51613	10153461.140937924
1.51888	11357803.490725538
1.52164	13228676.206130708
1.52439	14362836.732916452
1.52714	13541452.439569762
1.52989	13216663.764624564
1.53263	14131752.10873955
1.53538	15140620.906195005
1.53812	15404384.684083635
1.54086	15472793.356227513
1.54359	15720282.933722539
1.54632	16689033.399563886
1.54905	16737350.731780563
1.55178	17496581.516940076
1.5545	17479925.586782258
1.55723	16963531.71797384
1.55995	17397261.24907015
1.56266	18074250.573907904
1.56538	19035114.629687753
1.56809	19515250.365420505
1.5708	19393509.089218248
1.57351	18739766.140405342
1.57621	18282477.86228236
1.57891	17187529.242113966
1.58161	18205615.681101486
1.5843	20149714.947651207
1.587	20566680.608851098
1.58969	20417688.22278557
1.59238	20121807.417358674
1.59506	19563101.026713427
1.59774	19000499.389169093
1.60042	18737523.18884017
1.6031	18625367.84452184
1.60577	18670369.23150989
1.60844	18681839.639098983
1.61111	18400395.680043112
1.61378	17692115.01759024
1.61644	17092961.76024727
1.6191	16343788.480338227
1.62176	15307642.223073669
1.62441	14367505.976948224
1.62707	13565833.99886204
1.62971	12056786.452340579
1.63236	11443730.659667911
1.635	14189127.40429271
1.63764	18042613.261333518
1.64028	19284707.241370756
1.64292	18936005.060488205
1.64555	17095165.030755617
1.64818	13918777.518730426
1.65081	13676291.58590206
1.65343	16137695.685526403
1.65605	16998850.99460854
1.65867	17279983.649333168
1.66128	16686032.198146053
1.6639	13848065.551350232
1.66651	8427695.700942192
1.66911	7208799.19475998
1.67172	11626387.94642047
1.67432	15025335.76001734
1.67692	14791073.12412009
1.67951	13174838.642252658
1.68211	13311804.41911866
1.6847	13506269.661472447
1.68728	12298686.249210801
1.68987	11698764.447347078
1.69245	10678751.415863506
1.69503	8171968.0959214205
1.6976	6811912.905390728
1.70018	8156154.816547996
1.70275	8132348.450023044
1.70531	8692053.30197888
1.70788	10354316.413079409
1.71044	10211976.74045857
1.713	11164156.771361833
1.71556	12077296.82310022
1.71811	12691981.108738473
1.72066	13851837.828774799
1.72321	13562720.216517152
1.72575	12941299.768752094
1.7283	12497454.157002172
1.73084	11710419.540651992
1.73337	10742343.214839375
1.73591	10107133.360982858
1.73844	10047368.991252135
1.74097	10261562.59490215
1.74349	9607104.553240621
1.74602	8632723.28881827
1.74854	8178779.260745683
1.75105	7317695.022517484
1.75357	6067095.388585327
1.75608	7237222.742783413
1.75859	9832889.538465112
1.7611	10726135.139115073
1.7636	10170434.45805264
1.7661	7825546.96430847
1.7686	6028721.069875796
1.7711	4497156.989353903
1.77359	3070671.576830546
1.77608	1822696.3669295774
1.77857	1279546.279420443
1.78105	1570534.0964661902
1.78354	1896828.1559719604
1.78602	1478207.080330205
1.78849	1076600.3502668445
1.79097	1430910.2545416155
1.79344	2086720.41469693
1.79591	3019386.5794034824
1.79837	4096662.3897743267
1.80084	2542932.232232352
1.8033	968114.5599358768
1.80576	425236.8072542405
1.80821	289929.83087762323
1.81067	898033.2105755572
1.81312	1401776.0615345915
1.81557	748515.5746285556
1.81801	385683.2110722938
1.82046	957630.3448820701
1.8229	1452011.8801926242
1.82533	956595.9301005828
1.82777	309023.74361364567
1.8302	187893.88695252012
1.83263	377864.3995968094
1.83506	680204.8805125849
1.83749	1144818.6796894637
1.83991	1364150.1491479974
1.84233	1058151.0968645138
1.84475	966244.1272738021
1.84716	1168881.710435598
1.84957	1589263.1575294184
1.85198	1608108.2159084505
1.85439	819727.1934304952
1.8568	539644.0432375239
1.8592	701982.9225843747
1.8616	531637.2312270368
1.864	259845.18956866133
1.86639	207213.25003075443
1.86878	329597.2796125212
1.87118	627199.8403697456
1.87356	1018331.2194850344
1.87595	1320008.1922093916
1.87833	2261473.1763699693
1.88071	3750174.3676188528
1.88309	3635184.3425902156
1.88547	2694747.902510425
1.88784	2375829.7048281194
1.89021	2169579.4658370554
1.89258	3680645.062354005
1.89494	4921885.122031816
1.89731	3116586.6507185525
1.89967	1077865.9879635344
1.90203	284174.8577698473
1.90439	238164.1655588143
1.90674	416855.323793647
1.90909	457119.31871357816
1.91144	290491.3010839256
1.91379	132322.47648766352
1.91613	124266.03405541457
1.91848	236317.149557788
1.92082	370642.7504506721
1.92315	366285.92146873445
1.92549	264450.9979379892
1.92782	305284.1330858448
1.93015	464220.44049399474
1.93248	607706.8719085916
1.93481	640415.0403275854
1.93713	563988.7324812205
1.93945	593612.6232532156
1.94177	798521.5419364924
1.94409	956332.5539167086
1.94641	1020271.6438037405
1.94872	1307994.6673117834
1.95103	1632009.9333355424
1.95334	1074766.7043398726
1.95564	717484.3779976694
1.95795	840960.6888509963
1.96025	881715.9535040201
1.96255	910623.9758625437
1.96484	1125147.6725703247
1.96714	1683983.7507724934
1.96943	2449712.5309532373
1.97172	2902068.9335818854
1.97401	2623431.5267912643
1.97629	2777009.543825556
1.97858	3529038.739176831
1.98086	4039341.4073893772
1.98314	4641836.836220854
1.98541	5029375.676848618
1.98769	4630736.906334828
1.98996	3592790.641736157
1.99223	3449892.6549718124
1.9945	4219939.569399779
1.99677	3994913.699359985
1.99903	3902400.3424067693
2.00129	4831854.539679207
2.00355	6192379.445226118
2.00581	7032730.5786011815
2.00806	7420323.26767523
2.01031	8953083.921908878
2.01256	9604557.33941939
2.01481	8567643.574830402
2.01706	7369380.825849307
2.0193	7317513.259300856
2.02154	8580746.85480359
2.02378	9885493.958700182
2.02602	10231955.817858072
2.02825	10928519.96552735
2.03049	11745532.430121794
2.03272	12462932.75109817
2.03494	13010020.401667858
2.03717	13506338.90270226
2.03939	14244782.597091246
2.04162	15443687.787617601
2.04384	16496444.991751362
2.04605	17596602.360699803
2.04827	18562849.39949249
2.05048	18525647.345816493
2.05269	17045462.016659107
2.0549	16583665.523110285
2.05711	17135612.752532534
2.05931	18110417.796518464
2.06151	18909498.378387395
2.06371	19533780.163781185
2.06591	19962442.556688026
2.06811	20241266.338786207
2.0703	20328481.246784285
2.07249	20179050.523841918
2.07468	19742479.635132242
2.07686	19636347.26083078
2.07905	19845043.880135797
2.08123	20073538.43818104
2.08341	20183275.667587224
2.08559	20212318.200623084
2.08776	20304376.77416291
2.08994	20202038.827801973
2.09211	19915292.463272072
2.09428	19582777.757306624
2.09645	19571100.26237952
2.09861	19496846.583990816
2.10077	19326733.54324623
2.10293	19064270.3148448
2.10509	18727147.08454188
2.10725	18376997.53615217
2.1094	18554465.516375516
2.11155	18734675.191927876
2.1137	18651913.767290547
2.11585	18054816.78262685
2.11799	17606312.532715358
2.12013	17391042.940775044
2.12227	17377450.241808034
2.12441	17512857.027750324
2.12655	17611219.020263143
2.12868	17570881.625569407
2.13081	17544141.637871135
2.13294	17513164.51430224
2.13507	17121079.197567225
2.13719	16429599.54365155
2.13931	15851599.608569957
2.14143	15360379.016086955
2.14355	14578531.599088948
2.14567	14136952.559925359
2.14778	13820764.086622499
2.14989	13482675.74712321
2.152	12836290.262011519
2.1541	13023319.76390763
2.15621	13286770.629235117
2.15831	13304647.205774287
2.16041	12439532.74183858
2.16251	11991053.481170341
2.1646	11710128.040712653
2.1667	11569354.858854348
2.16879	11742231.840870708
2.17087	11935791.04076358
2.17296	12050629.504010784
2.17504	12030777.71522252
2.17713	11771478.002224902
2.1792	11324703.06107748
2.18128	10758751.4633056
2.18336	10133714.96448883
2.18543	9512079.900265202
2.1875	8884420.840077376
2.18957	8184250.945304016
2.19163	7133930.098215928
2.1937	5701079.258702042
2.19576	4281961.68893251
2.19782	3064222.135214545
2.19987	2483758.816318869
2.20193	2185633.800674056
2.20398	2120142.226801123
2.20603	2206780.201823099
2.20808	2418188.2284882898
2.21012	2684906.6680105063
2.21217	2986293.311547304
2.21421	3123707.5408271668
2.21625	3079779.905356021
2.21828	2878047.4507473577
2.22032	2760414.9054453042
2.22235	2682150.387445985
2.22438	2572085.0035710623
2.22641	2271704.0797948707
2.22843	1935488.253521761
2.23046	1643727.6910698905
2.23248	1465747.7571065575
2.2345	1408548.6489603282
2.23651	1365754.90457613
2.23853	1322016.7846836485
2.24054	1171698.9091776898
2.24255	997295.146220966
2.24456	815031.1048284298
2.24657	832503.4506083837
2.24857	959978.2310744739
2.25057	1147259.2693264466
2.25257	1223597.8431306053
2.25457	1288198.3700954411
2.25656	1346454.211771089
2.25856	1407057.8412884974
2.26055	1330181.2315974128
2.26254	1184647.7923482293
2.26453	1018144.0999145542
2.26651	922218.758956016
2.2685	886266.1603616552
2.27048	968226.7258907411
2.27246	1088753.9864499224
2.27443	1201814.853562275
2.27641	1221206.6184019037
2.27838	1169166.8684973817
2.28036	1089002.082587015
2.28233	1032716.2285880502
2.28429	985617.5443118396
2.28626	939959.8614246065
2.28823	875630.3650562145
2.29019	844485.1220159542
2.29215	838965.646162042
2.29411	887624.8840679387
2.29607	932426.1697038373
2.29802	973827.1508702826
2.29998	1019506.531116393
2.30193	1141354.3135497142
2.30388	1350518.0505540697
2.30583	1781600.6066891134
2.30778	2215950.1114577786
2.30972	2619911.3341246713
2.31167	2597594.4208517913
2.31361	2329654.618566653
2.31555	1629853.005331544
2.31749	1098127.2561852208
2.31943	695617.849566153
2.32137	675314.4345722424
2.32331	678816.9532920922
2.32524	701160.2803242266
2.32718	687191.8137602226
2.32911	679092.2141762624
2.33104	680179.1039451596
2.33297	671065.0132902705
2.3349	657636.2136234345
2.33683	637580.3581316851
2.33876	617009.7823297285
2.34068	594786.5490509178
2.34261	549933.9041826999
2.34453	508674.86218565586
2.34646	471030.1363092866
2.34838	497758.54668452323
2.3503	559346.625556617
2.35223	690784.8057381776
2.35415	819344.1960416273
2.35607	944379.6973559343
2.35799	1032656.7558545426
2.35991	1118355.392936342
2.36183	1200942.1421012853
2.36375	1154051.3528394746
2.36566	1042391.1918629314
2.36758	787733.7395147728
2.3695	581345.7130780463
2.37142	405899.6263281711
2.37334	427832.2950285726
2.37526	465970.2753004511
2.37718	529394.7804824602
2.3791	593842.3125253554
2.38101	662798.8253712744
2.38293	765197.7635888734
2.38485	859959.0876927099
2.38677	946922.0058066831
2.3887	929953.9566596979
2.39062	898337.6407322857
2.39254	868932.2683742825
2.39446	881440.2727816944
2.39639	921020.9074061175
2.39831	970902.1712359732
2.40024	994829.6276187818
2.40216	969170.9431192813
2.40409	992125.2542974228
2.40602	1047442.4792188144
2.40795	1250348.784558126
2.40989	1429916.186435638
2.41182	1578715.4265627682
2.41376	1649199.3958010837
2.4157	1722031.268720379
2.41764	1884254.0814248174
2.41958	1993099.6155448956
2.42152	2058544.9324982655
2.42347	1863758.2115558633
