#wavelength	surface flux
0.8	6273459.132805569
0.8002000000000001	6287689.5409528185
0.8004000500000003	6297650.357986171
0.8006001500125003	6307570.5022144085
0.8008003000500035	6317493.126478704
0.8010005001250161	6327418.23139907
0.8012007502500472	6337345.817595651
0.8014010504376099	6349032.88934372
0.8016014007002193	6361311.425405688
0.8018018010503944	6373593.031101671
0.8020022515006572	6385877.707199084
0.8022027520635323	6398165.454465509
0.8024033027515483	6410009.633780461
0.8026039035772362	6421419.084456578
0.8028045545531306	6432831.387495365
0.8030052556917691	6444246.543609916
0.803206007005692	6455664.553513487
0.8034068085074435	6467070.49514691
0.8036076602095705	6478437.45754513
0.8038085621246229	6489807.26168394
0.8040095142651542	6501179.908273792
0.8042105166437206	6512555.398025287
0.8044115692728815	6523836.25065304
0.8046126721651998	6530927.09409909
0.8048138253332411	6538019.710255995
0.8050150287895745	6545114.099566948
0.805216282546772	6552210.262475225
0.8054175866174087	6559308.199424226
0.8056189410140631	6567539.396335206
0.8058203457493168	6576092.934822063
0.8060218008357541	6584648.611693531
0.8062233062859632	6593206.427484221
0.8064248621125346	6601766.382728853
0.806626468328063	6611622.246803757
0.8068281249451449	6622591.765766823
0.8070298319763813	6633564.0271096425
0.8072315894343755	6644539.03151779
0.8074333973317341	6655516.779677043
0.8076352556810671	6665570.710194888
0.8078371644949874	6673396.764553794
0.8080391237861113	6681224.775426291
0.8082411335670578	6689054.743301502
0.8084431938504498	6696886.66866869
0.8086453046489125	6704686.49651187
0.8088474659750746	6711854.221815863
0.8090496778415686	6719023.73905119
0.809251940261029	6726195.0486658225
0.8094542532460944	6733368.151107864
0.8096566168094059	6740543.046825508
0.8098590309636085	6747847.8617885625
0.8100614957213493	6755184.491779832
0.8102640110952797	6762522.9559286
0.8104665770980536	6769863.254693409
0.8106691937423283	6777205.388532911
0.8108718610407639	6785719.533522918
0.8110745790060241	6795130.578925284
0.8112773476507757	6804543.977089007
0.8114801669876885	6813959.728602271
0.8116830370294355	6823377.8340534065
0.8118859577886929	6833289.742235347
0.8120889292781401	6844224.887804923
0.8122919515104597	6855162.767160891
0.8124950244983374	6866103.380986698
0.8126981482544621	6877046.729965961
0.8129013227915257	6888016.607529175
0.8131045481222237	6899261.658149131
0.8133078242592543	6910509.520031744
0.8135111512153191	6921760.193879824
0.813714529003123	6933013.680396368
0.8139179576353739	6944269.980284543
0.8141214371247829	6961560.822003703
0.8143249674840641	6980025.639897746
0.814528548725935	6998495.073996251
0.8147321808631167	7016969.125453307
0.8149358639083326	7035447.795423222
0.8151395978743097	7048708.547186894
0.8153433827737784	7058444.048432242
0.8155472186194719	7068181.983552896
0.8157511054241268	7077922.35315733
0.815955043200483	7087665.1578541715
0.8161590319612831	7096464.031829124
0.8163630717192736	7103531.004409636
0.8165671624872033	7110599.743733284
0.8167713042778252	7117670.250241771
0.8169754971038948	7124742.524376888
0.8171797409781707	7128478.570410817
0.8173840359134155	7105567.293224918
0.8175883819223938	7082650.288219748
0.8177927790178745	7059727.553963314
0.8179972272126291	7036799.08902331
0.8182017265194322	7013864.891967094
0.8184062769510622	7013375.077581642
0.8186108785203001	7016339.881350461
0.8188155312399301	7019305.426320219
0.8190202351227402	7022271.712676222
0.819224990181521	7025238.740603813
0.8194297964290664	7058166.393271013
0.8196346538781738	7109160.544176114
0.8198395625416434	7160167.443618921
0.8200445224322789	7211187.0947866095
0.820249533562887	7262219.500867075
0.8204545959462778	7299313.203713732
0.8206597095952644	7313961.679606849
0.8208648745226633	7328613.817618951
0.8210700907412941	7343269.618665554
0.8212753582639793	7357929.083662403
0.8214806771035456	7370965.276282739
0.8216860472728215	7373980.812364366
0.8218914687846397	7376997.102330014
0.822096941651836	7380014.146368155
0.822302465887249	7383031.944667304
0.8225080415037209	7386050.49741603
0.8227136685140968	7399960.468588679
0.8229193469312254	7415110.235207577
0.8231250767679583	7430263.789268135
0.8233308580371503	7445421.131717199
0.8235366907516598	7460582.263501887
0.8237425749243477	7475743.525407508
0.8239485105680789	7490906.637678422
0.824154497695721	7506073.540727395
0.824360536320145	7521244.235502132
0.8245666264542252	7536418.722950563
0.8247727681108388	7550251.023560358
0.8249789613028664	7562159.08489518
0.8251852060431922	7574070.1232453445
0.825391502344703	7585984.139355091
0.8255978502202894	7597901.133968877
0.8258042496828445	7609394.340843049
0.8260107007452654	7618817.79708588
0.8262172034204517	7628243.6091927625
0.8264237577213068	7637671.777752673
0.8266303636607373	7647102.303354729
0.8268370212516525	7656535.18658818
0.8270437305069654	7663130.454260296
0.8272504914395923	7669505.445255663
0.8274573040624523	7675882.02999878
0.8276641683884679	7682260.208888077
0.8278710844305652	7688639.982322105
0.8280780522016729	7698675.475481348
0.8282850717147234	7710383.7711848365
0.8284921429826521	7722094.99396224
0.8286992660183978	7733809.1445453465
0.8289064408349024	7745526.2236660905
0.8291136674451112	7756493.186507201
0.8293209458619727	7766513.338385837
0.8295282760984382	7776535.99530243
0.829735658167463	7786561.157883264
0.8299430920820048	7796588.826754729
0.8301505778550254	7806590.179323242
0.8303581154994891	7816478.990317611
0.8305657050283641	7826370.273514739
0.8307733464546212	7836264.029532658
0.8309810397912352	7846160.258989599
0.8311887850511829	7856058.962503883
0.8313965822474458	7871331.330149993
0.8316044313930077	7886856.821202897
0.8318123325008561	7902386.193628578
0.8320202855839813	7917919.448397359
0.8322282906553774	7933456.586479832
0.8324363477280413	7945257.690068232
0.8326444568149735	7955556.065826193
0.8328526179291771	7965857.016178084
0.8330608310836596	7976160.541767577
0.8332690962914304	7986466.643238454
0.8334774135655034	7995975.293263062
0.833685782918895	8004592.6629335135
0.8338942043646247	8013212.186946378
0.834102677915716	8021833.865840252
0.834311203585195	8030457.700153842
0.8345197813860912	8040536.961776622
0.8347284113314379	8055510.590485173
0.8349370934342709	8070487.962600893
0.8351458277076294	8085469.079059624
0.8353546141645565	8100453.940797495
0.8355634528180977	8115442.548750794
0.8357723436813022	8115390.881669891
0.8359812867672226	8115153.446330577
0.8361902820889144	8114915.951632429
0.8363993296594368	8114678.397560606
0.8366084294918518	8114440.784100265
0.8368175815992247	8124855.131716852
0.8370267859946247	8138940.748182292
0.8372360426911234	8153029.886051844
0.8374453517017962	8167122.546205862
0.8376547130397217	8181218.729524917
0.8378641267179816	8193288.095073246
0.8380735927496613	8203345.851091858
0.8382831111478488	8213406.121549468
0.8384926819256358	8223468.907074687
0.8387023050961173	8233534.208296297
0.8389119806723914	8243432.155911648
0.8391217086675596	8252854.508519762
0.8393314890947265	8262279.216716022
0.8395413219670003	8271706.281089332
0.8397512072974922	8281135.702228742
0.8399611450993165	8290703.571900834
0.8401711353855914	8307032.072774158
0.8403811781694378	8323364.655772695
0.8405912734639802	8339701.321916987
0.8408014212823464	8356042.072227822
0.8410116216376671	8372386.907726233
0.8412218745430766	8387487.111502146
0.8414321800117124	8402227.761597326
0.8416425380567154	8416972.096855039
0.8418529486912297	8431720.118196568
0.8420634119284025	8446471.82654342
0.8422739277813847	8460009.085299367
0.8424844962633302	8472476.501948379
0.842695117387396	8484947.035451537
0.8429057911667428	8497420.686588071
0.8431165176145345	8509897.456137396
0.8433272967439382	8521284.499842772
0.8435381285681244	8530008.638219362
0.8437490131002665	8538734.957630545
0.8439599503535415	8547463.458621575
0.84417094034113	8556194.141737858
0.8443819830762154	8564971.181084052
0.8445930785719846	8574640.294815164
0.8448042268416277	8584311.825824706
0.8450154278983382	8593985.774716996
0.8452266817553128	8603662.14209651
0.8454379884257517	8613340.92856787
0.8456493479228583	8626206.221223414
0.845860760259839	8639841.496496094
0.846072225449904	8653480.180587593
0.8462837435062666	8667122.274350118
0.8464953144421433	8680767.77863609
0.8467069382707537	8693011.898591775
0.8469186150053215	8704164.084468152
0.847130344659073	8715319.058391001
0.8473421272452377	8726476.82105732
0.8475539627770492	8737637.373164315
0.8477658512677435	8748992.837939056
0.8479777927305605	8760759.088472761
0.8481897871787432	8772528.280569097
0.848401834625538	8784300.414963463
0.8486139350841944	8796075.492391422
0.8488260885679657	8807726.34251057
0.8490382950901076	8817829.93504512
0.8492505546638802	8827936.053477807
0.8494628673025462	8838044.698440101
0.8496752330193721	8848155.870563649
0.8498876518276269	8858269.570480214
0.8501001237405839	8863774.331224803
0.8503126487715191	8868359.93823677
0.850525226933712	8872946.691650486
0.8507378582404455	8877534.591752555
0.8509505427050057	8882123.638829652
0.8511632803406821	8889451.667903861
0.8513760711607672	8898656.444435557
0.8515889151785576	8907863.5221614
0.8518018124073523	8917072.901656669
0.8520147628604541	8926284.583496803
0.8522277665511693	8938674.899232902
0.8524408234928071	8956942.55274174
0.8526539336986805	8975214.773163961
0.8528670971821053	8993491.561641289
0.8530803139564007	9011772.919315714
0.8532935840348901	9029887.76407451
0.8535069074308987	9046562.252031613
0.8537202841577566	9063240.90861072
0.8539337142287962	9079923.734853974
0.8541471976573534	9096610.731803779
0.8543607344567677	9113301.900502821
0.8545743246403821	9127120.239152383
0.8547879682215422	9140485.131452845
0.8550016652135977	9153853.364976382
0.8552154156299011	9167224.940558301
0.8554292194838088	9180599.859034123
0.8556430767886797	9192626.273193166
0.855856987557877	9203834.887526412
0.8560709518047664	9215046.304013235
0.8562849695427177	9226260.523354184
0.8564990407851035	9237477.546249973
0.8567131655452999	9248755.923031777
0.8569273438366862	9260133.054930989
0.8571415756726455	9271513.031113178
0.8573558610665638	9282895.852289414
0.8575702000318304	9294281.519170934
0.8577845925818384	9306256.427406056
0.857999038729984	9321897.168173691
0.8582135384896665	9337541.819126517
0.858428091874289	9353190.38124208
0.8586426988972576	9368842.855498169
0.8588573595719821	9384499.242872825
0.8590720739118751	9394908.518548738
0.8592868419303532	9404701.284912262
0.8595016636408359	9414496.499467377
0.8597165390567462	9424294.162826128
0.8599314681915105	9434094.27560072
0.8601464510585584	9439763.215249531
0.860361487671323	9443239.473818542
0.8605765780432408	9446716.601452192
0.8607917221877518	9450194.598367756
0.8610069201182988	9453673.464782547
0.8612221718483286	9401623.584823055
0.8614374773912907	9269507.235969698
0.8616528367606385	9137357.858029163
0.8618682499698288	9005175.442744058
0.8620837170323213	8872959.981855154
0.8622992379615795	8759431.910806973
0.8625148127710699	8738515.761491956
0.8627304414742627	8717594.38313961
0.8629461240846313	8696667.77444267
0.8631618606156526	8675735.934093557
0.8633776510808066	8654798.86078436
0.8635934954935769	8816301.825451177
0.8638093938674504	8992800.534802089
0.8640253462159173	9169343.36883033
0.8642413525524714	9345930.338567078
0.8644574128906095	9522561.455046222
0.8646735272438323	9535779.765972741
0.8648896956256433	9472989.364350287
0.8651059180495498	9410183.265127426
0.8653221945290621	9347361.464379817
0.8655385250776946	9284523.958181934
0.8657549097089641	9273237.929063248
0.8659713484363913	9327966.412876453
0.8661878412735006	9382708.578810638
0.866404388233819	9437464.4302863
0.8666209893308775	9492233.970724804
0.8668376445782103	9537966.945237348
0.8670543539893549	9546772.654548619
0.8672711175778525	9555580.565287225
0.8674879353572469	9564390.678003505
0.8677048073410862	9573202.99324797
0.8679217335429217	9582017.511571247
0.8681387139763074	9599269.320527215
0.8683557486548015	9616944.476067461
0.8685728375919655	9634624.050396614
0.8687899808013633	9652308.04461931
0.8690071782965637	9669996.459840585
0.869224430091138	9665887.309445685
0.8694417361986609	9652905.930520782
0.8696590966327107	9639921.306251153
0.869876511406869	9626933.435825454
0.8700939805347206	9613942.318432156
0.8703115040298544	9605353.945457505
0.870529081905862	9601800.74907799
0.8707467141763385	9598246.664399384
0.8709644008548827	9594691.691199608
0.8711821419550964	9591135.829256535
0.8713999374905854	9595338.186246276
0.871617787474958	9626320.967290726
0.8718356919218269	9657311.494030464
0.8720536508448075	9688309.768401891
0.8722716642575187	9719315.792341892
0.8724897321735832	9750329.56778789
0.8727078546066265	9773662.834892467
0.8729260315702784	9796884.971631614
0.873144263078171	9820112.913904922
0.8733625491439405	9843346.6631638
0.8735808897812266	9866586.22086
0.8737992850036719	9874707.766639102
0.874017734824923	9877474.73379833
0.8742362392586293	9880242.392699348
0.874454798318444	9883010.743515091
0.8746734120180236	9885779.786418537
0.8748920803710283	9893009.027447479
0.875110803391121	9904721.454249041
0.8753295810919689	9916436.80915731
0.875548413487242	9928155.092904307
0.8757673005906139	9939876.306222241
0.8759862424157616	9960856.643656833
0.8762052389763657	10008625.459799578
0.8764242902861098	10056406.218146326
0.8766433963586814	10104198.921682673
0.8768625572077712	10152003.573394917
0.8770817728470732	10199483.701871922
0.8773010432902849	10220704.628376411
0.8775203685511077	10241930.860112557
0.8777397486432454	10263162.398406612
0.8779591835804065	10284399.244585264
0.8781786733763015	10305641.399975436
0.8783982180446457	10271021.991048224
0.878617817599157	10219774.57623094
0.8788374720535569	10168514.349559974
0.8790571814215703	10117241.307832355
0.8792769457169257	10065955.447844302
0.879496764953355	10040374.653512571
0.8797166391445934	10037909.533685526
0.8799365683043796	10035443.797578525
0.8801565524464557	10032977.445037497
0.8803765915845676	10030510.475908332
0.8805966857324639	10043903.519624928
0.880816834903897	10097137.058305599
0.881037039112623	10150383.905370962
0.8812572983724012	10203644.064148087
0.8814776126969944	10256917.537964929
0.8816979821001687	10309049.998150548
0.8819184065956938	10334022.321883418
0.8821388861973429	10359000.888697246
0.8823594209188923	10383985.700152755
0.882580010774122	10408976.757811116
0.8828006557768155	10433974.063233905
0.8830213559407598	10473773.605578894
0.8832421112797452	10517304.438879717
0.8834629218075651	10560846.154888842
0.8836837875380171	10604398.75632698
0.8839047084849018	10647962.245915486
0.884125684662023	10635100.325432362
0.8843467160831886	10577008.702007571
0.8845678027622095	10518902.555676926
0.8847889447129001	10460781.882809686
0.8850101419490785	10402646.67977424
0.8852313944845657	10391702.902440913
0.885452702333187	10484084.444672536
0.8856740655087704	10576489.082289705
0.8858954840251476	10668916.821066253
0.8861169578961539	10761367.666777452
0.886338487135628	10843948.166587155
0.886560071757412	10794893.032842327
0.8867817117753515	10745825.635314064
0.8870034072032955	10696745.970936397
0.8872251580550963	10647654.036642691
0.8874469643446101	10598549.829365384
0.8876688260856963	10622623.482078655
0.8878907432922178	10661850.78984545
0.8881127159780409	10701087.904439159
0.8883347441570356	10740334.828311566
0.8885568278430749	10779591.563914899
0.8887789670500358	10791473.99922495
0.8890011617917983	10783933.836052444
0.8892234120822464	10776391.78783914
0.8894457179352669	10768847.854113791
0.8896680793647509	10761302.034405004
0.8898904963845921	10759346.38540107
0.8901129690086883	10768060.039744873
0.8903354972509405	10776775.872502258
0.8905580811252535	10785493.884217842
0.8907807206455347	10794214.07543634
0.8910034158256963	10800770.406514432
0.8912261666796527	10787970.553777969
0.8914489732213227	10775167.501078317
0.8916718354646282	10762361.247615477
0.8918947534234944	10749551.792589284
0.8921177271118502	10736739.135199344
0.8923407565436284	10755290.8395506
0.8925638417327644	10778964.084588278
0.8927869826931977	10802643.247937221
0.8930101794388711	10826328.331077002
0.8932334319837308	10850019.335487563
0.8934567403417267	10881544.025863118
0.8936801045268123	10917940.630803278
0.8939035245529441	10954346.33489465
0.8941270004340824	10990761.140412057
0.894350532184191	11027185.049630834
0.8945741198172371	11065800.672275405
0.8947977633471915	11108045.542929437
0.8950214627880284	11150300.974801132
0.8952452181537254	11192566.97053077
0.8954690294582639	11234843.532759365
0.8956928967156286	11272416.662506334
0.8959168199398075	11279406.994268818
0.8961407991447926	11286399.073614243
0.8963648343445789	11293392.900979504
0.896588925553165	11300388.476801602
0.8968130727845534	11307385.801517658
0.8970372760527496	11323917.107920501
0.8972615353717629	11341645.221379176
0.8974858507556059	11359377.766866216
0.8977102222182949	11377114.745489625
0.8979346497738496	11394856.1583577
0.8981591334362931	11417943.536605803
0.8983836732196523	11443957.843871849
0.8986082691379572	11469978.654714692
0.8988329212052417	11496005.970760249
0.8990576294355432	11522039.793634837
0.8992823938429022	11531124.99437278
0.8995072144413631	11515002.341887105
0.8997320912449734	11498875.658738315
0.8999570242677847	11482744.943918742
0.9001820135238516	11466610.196420461
0.9004070590272328	11456664.244479505
0.9006321607919896	11479180.729714142
0.9008573188321878	11501702.84407011
0.9010825331618959	11524230.588954657
0.9013078037951865	11546763.965775428
0.9015331307461353	11569302.975940391
0.9017585140288219	11599710.590322727
0.9019839536573292	11630803.064549457
0.9022094496457435	11661903.31189472
0.9024350020081551	11693011.334301857
0.9026606107586572	11724127.133714585
0.902886275911347	11750431.246199131
0.9031119974803249	11774418.616692735
0.9033377754796951	11798411.984028962
0.903563609923565	11822411.349707011
0.903789500826046	11846416.715226498
0.9040154482012526	11859168.789475592
0.904241452063303	11857338.621266488
0.9044675124263188	11855507.995515333
0.9046936293044254	11853676.912107741
0.9049198027117517	11851845.370929295
0.9051460326624297	11854615.128277563
0.9053723191705955	11876980.927401543
0.9055986622503881	11899352.31797528
0.9058250619159507	11921729.301396664
0.9060515181814298	11944111.879063915
0.9062780310609752	11966500.05237557
0.9065046005687405	11980831.266330974
0.906731226718883	11994716.276905438
0.9069579095255627	12008604.758732527
0.907184649002944	12022496.712680075
0.907411445165195	12036392.139616122
0.9076382980264862	12040656.486199353
0.907865207600993	12040920.68635005
0.9080921739028933	12041184.952550786
0.9083191969463691	12041449.28481807
0.9085462767456058	12041713.683168422
0.9087734133147922	12059071.862649243
0.9090006066681211	12096177.834416248
0.909227856819788	12133293.082676146
0.9094551637839932	12170417.609748159
0.9096825275749393	12207551.41795193
0.9099099482068329	12237816.035215132
0.9101374256938848	12243642.00137131
0.9103649600503083	12249469.424019022
0.9105925512903209	12255298.303522395
0.9108201994281437	12261128.640245652
0.9110479044780008	12266960.434553081
0.9112756664541204	12284813.808410585
0.911503485370734	12302946.784075916
0.9117313612420768	12321084.292985162
0.9119592940823873	12339226.33627163
0.912187283905908	12357372.915068928
0.9124153307268845	12362236.997703815
0.9126434345595664	12362279.880098302
0.9128715954182063	12362322.773213388
0.9130998133170609	12362365.677051753
0.9133280882703902	12362408.591616077
0.913556420292458	12367859.988587746
0.9137848093975312	12378890.585109135
0.9140132555998806	12389923.939279651
0.9142417589137806	12400960.051788712
0.9144703193535092	12411998.923325907
0.9146989369333476	12422478.14806089
0.9149276116675811	12431263.756997863
0.9151563435704979	12440051.562337061
