#wavelength	surface flux
0.7	3247041.100650096
0.7001166666666666	3255000.311785122
0.7002333527777778	3258575.4488450564
0.700350058336574	3262151.181761166
0.7004667833462966	3265727.510632757
0.7005835278101878	3269304.43555917
0.7007002917314895	3272881.956639731
0.7008170751134447	3276460.073973805
0.7009338779592968	3280038.787660767
0.7010507002722901	3282345.645254202
0.7011675420556689	3283104.3971719895
0.701284403312678	3283863.2755484288
0.7014012840465635	3284622.2804045985
0.7015181842605713	3285381.4117615772
0.701635103957948	3286140.6696404484
0.701752043141941	3286900.054062299
0.701869001815798	3287659.5650482215
0.7019859799827672	3285517.385862289
0.7021029776460976	3281355.3485783376
0.7022199948090387	3277192.617621501
0.7023370314748403	3273029.1928761727
0.7024540876467528	3268865.074226721
0.702571163328027	3264700.2615575017
0.7026882585219152	3260534.754752826
0.7028053732316688	3256368.553697022
0.7029225074605406	3259466.981848149
0.7030396612117841	3265371.4010320567
0.7031568344886527	3271276.804285829
0.7032740272944008	3277183.191773473
0.7033912396322832	3283090.5636590347
0.7035084715055552	3288998.9201065716
0.7036257229174727	3294908.261280185
0.7037429938712924	3300818.5873439997
0.7038602843702709	3308594.674441429
0.7039775944176659	3316688.3372055786
0.7040949240167356	3324783.348913526
0.7042122731707383	3332879.709790087
0.7043296418829335	3340977.420060132
0.7044470301565806	3349076.4799485537
0.70456443799494	3357176.8896802845
0.7046818654012724	3365278.6494803084
0.7047993123788394	3368809.0988332247
0.7049167789309024	3372334.889263237
0.7050342650607243	3375861.2673249934
0.7051517707715678	3379388.2331164246
0.7052692960666963	3382915.7867354867
0.705386840949374	3386443.92828015
0.7055044054228656	3389972.65784841
0.7056219894904361	3393140.6874668556
0.7057395931553511	3394013.2978572976
0.705857216420877	3394886.053682806
0.7059748592902804	3395758.954967618
0.7060925217668288	3396632.0017359783
0.70621020385379	3397505.194012133
0.7063279055544321	3398378.5318203326
0.7064456268720246	3399252.015184835
0.7065633678098366	3400834.469859558
0.7066811283711383	3404369.3073342936
0.7067989085592001	3407904.7339486084
0.7069167083772933	3411440.7498006895
0.7070345278286895	3414977.354988748
0.707152366916661	3418514.549611006
0.7072702256444803	3422052.3337656967
0.7073881040154211	3425590.7075510845
0.7075060020327569	3428671.8776222263
0.7076239196997625	3431086.8549470846
0.7077418570197124	3433502.2347681616
0.7078598139958823	3435918.017152542
0.7079777906315483	3438334.202167322
0.7080957869299869	3440750.789879603
0.7082138028944751	3443167.7803565008
0.7083318385282908	3445585.173665147
0.7084498938347124	3447744.9718998363
0.708567968817018	3449686.3941478077
0.7086860634784875	3451628.139966156
0.7088041778224007	3453570.209408809
0.7089223118520377	3455512.6025296994
0.7090404655706796	3457455.319382776
0.709158638981608	3459398.360021997
0.709276832088105	3461341.7245013244
0.7093950448934531	3464222.9292284525
0.7095132774009353	3467551.7258194005
0.7096315296138355	3470881.077209782
0.7097498015354378	3474210.9834920606
0.7098680931690269	3477541.4447587165
0.7099864045178884	3480872.4611022547
0.7101047355853081	3484204.0326151825
0.7102230863745722	3487536.1593900267
0.7103414568889679	3488799.373361922
0.7104598471317828	3489592.565947427
0.7105782571063047	3490385.8907316956
0.7106966868158224	3491179.3477367614
0.710815136263625	3491972.9369846615
0.7109336054530023	3492766.658497437
0.7110520943872445	3493560.5122971307
0.7111706030696424	3494354.4984057914
0.7112891315034873	3496690.420883605
0.7114076796920712	3499100.296592832
0.7115262476386865	3501510.5739480113
0.7116448353466263	3503921.253016081
0.711763442819184	3506332.3338639974
0.711882070059654	3508743.8165587233
0.7120007170713306	3511155.70116723
0.7121193838575091	3513744.9254656723
0.7122380704214853	3518179.9963167296
0.7123567767665555	3522615.806346257
0.7124755028960166	3527052.355677459
0.7125942488131658	3531489.6444335454
0.7127130145213015	3535927.6727377702
0.7128318000237216	3540366.4407133656
0.7129506053237256	3544805.9484836296
0.7130694304246129	3548414.878361071
0.7131882753296837	3549117.829802722
0.7133071400422386	3549820.898402947
0.7134260245655789	3550524.0841812715
0.7135449289030065	3551227.387157226
0.7136638530578235	3551930.807350343
0.7137827970333332	3552634.3447801596
0.7139017608328388	3553337.9994662143
0.7140207444596443	3554502.415696238
0.7141397479170543	3556488.769651909
0.7142587712083737	3558475.45466657
0.7143778143369084	3560462.4707954014
0.7144968773059646	3562449.818093588
0.7146159601188489	3564437.4966163235
0.7147350627788687	3566425.5064188135
0.7148541852893318	3568413.8475562693
0.7149733276535467	3570125.690661004
0.7150924898748222	3571558.67047035
0.715211671956468	3572991.889109664
0.7153308739017941	3574425.3466187534
0.715450095714111	3575859.043037426
0.71556933739673	3577292.9784055026
0.7156885989529628	3578727.152762807
0.7158078803861218	3580161.566149173
0.7159271816995193	3574828.8943731706
0.7160465028964692	3565523.336697722
0.7161658439802853	3556216.228095994
0.7162852049542819	3546907.5683095013
0.7164045858217744	3537597.3570797048
0.716523986586078	3528285.5941480407
0.7166434072505089	3518972.2792558926
0.716762847818384	3509657.4121445925
0.7168823082930204	3506415.3156142943
0.7170017886777359	3504959.718728619
0.7171212889758488	3503503.879243464
0.7172408091906781	3502047.797118394
0.7173603493255433	3500591.47231297
0.7174799093837642	3499134.9047867456
0.7175994893686615	3497678.094499266
0.7177190892835562	3496221.0414100727
0.7178387091317702	3509479.2856818084
0.7179583489166254	3524216.9278545054
0.7180780086414448	3538957.026300909
0.7181976883095517	3553699.5814303863
0.7183173879242699	3568444.593652387
0.718437107488924	3583192.063376428
0.7185568470068389	3597941.9910120955
0.7186766064813399	3612179.908391021
0.7187963859157535	3613557.3505132208
0.7189161853134061	3614935.022209107
0.719036004677625	3616312.9235169427
0.7191558440117378	3617691.0544749955
0.7192757033190732	3619069.415121543
0.7193955826029597	3620448.0054948637
0.7195154818667269	3621826.8256332474
0.7196354011137046	3622342.03241421
0.7197553403472235	3618880.0367381102
0.7198752995706147	3615417.464062733
0.7199952787872098	3611954.314291907
0.720115278000341	3608490.587329453
0.7202352972133411	3605026.2830791716
0.7203553364295432	3601561.4014448533
0.7204753956522815	3598095.942330258
0.7205954748848902	3596937.9724963927
0.7207155741307044	3600868.2344579846
0.7208356933930594	3604799.1514632297
0.7209558326752915	3608730.7236213097
0.7210759919807375	3612662.951041422
0.7211961713127342	3616595.8338327655
0.7213163706746197	3620529.37210458
0.7214365900697322	3624463.565966103
0.7215568295014103	3625116.2534349887
0.721677088972994	3621852.877387066
0.7217973684878227	3618588.9574431404
0.7219176680492374	3615324.493512554
0.7220379876605789	3612059.4855046477
0.722158327325189	3608793.933328739
0.7222786870464099	3605527.8368941355
0.7223990668275843	3602261.1961101256
0.7225194666720555	3599917.8655990893
0.7226398865831676	3598228.9034967436
0.7227603265642646	3596539.659900718
0.722880786618692	3594850.1347640897
0.7230012667497951	3593160.32803994
0.7231217669609201	3591470.2396813356
0.7232422872554135	3589779.86964134
0.7233628276366229	3588089.217873001
0.7234833881078956	3591219.1784071913
0.7236039686725803	3596179.9680358884
0.7237245693340255	3601141.5844628494
0.7238451900955812	3606104.027825891
0.7239658309605971	3611067.29826282
0.7240864919324239	3616031.3959114957
0.7242071730144127	3620996.3209097795
0.724327874209915	3625962.0733955526
0.7244485955222832	3619166.346491588
0.7245693369548704	3610424.688875287
0.7246900985110294	3601681.5743160625
0.7248108801941148	3592937.002571055
0.7249316820074803	3584190.973397453
0.7250525039544815	3575443.4865523074
0.7251733460384739	3566694.5417926866
0.7252942082628137	3557971.2623858615
0.7254150906308574	3564962.750019059
0.7255359931459625	3571955.4029001957
0.7256569158114868	3578949.221223482
0.7257778586307888	3585944.2051831586
0.7258988216072273	3592940.354973493
0.7260198047441617	3599937.6707887854
0.7261408080449525	3606936.152823392
0.72626183151296	3613010.935246389
0.7263828751515454	3612940.464748034
0.7265039389640706	3612869.982504596
0.726625022953898	3612799.488514118
0.7267461271243904	3612728.982774641
0.7268672514789111	3612658.4652842074
0.7269883960208241	3612587.936040859
0.7271095607534942	3612517.3950426364
0.7272307456802866	3611806.349669188
0.7273519508045666	3609365.0606282125
0.7274731761297006	3606923.3647057316
0.7275944216590555	3604481.26183393
0.7277156873959987	3602038.7519449824
0.7278369733438982	3599595.8349710493
0.727958279506122	3597152.510844294
0.7280796058860397	3594708.7794968477
0.7282009524870207	3591878.7810023823
0.7283223193124353	3588477.5811415273
0.7284437063656539	3585075.8144140355
0.7285651136500483	3581673.480725417
0.7286865411689898	3578270.5799811906
0.7288079889258514	3574867.1120868325
0.7289294569240056	3571463.0769478325
0.7290509451668262	3568058.474469639
0.7291724536576875	3565371.84464067
0.7292939823999636	3563280.1548480187
0.7294155313970303	3561188.1164403977
0.7295371006522632	3559095.729359709
0.7296586901690385	3557002.9935478424
0.7297802999507332	3554909.9089466743
0.7299019300007252	3552816.4754980677
0.7300235803223919	3550722.6931438916
0.7301452509191123	3549930.01826469
0.7302669417942654	3549737.923804697
0.7303886529512311	3549545.797328961
0.7305103843933897	3549353.6388321454
0.7306321361241218	3549161.448308914
0.7307539081468093	3548969.2257539285
0.7308757004648336	3548776.9711618507
0.7309975130815778	3548584.684527341
0.7311193460004248	3550630.187225343
0.7312411992247582	3553182.6450328557
0.7313630727579622	3555735.528250002
0.7314849666034219	3558288.836947687
0.7316068807645224	3560842.5711968197
0.7317288152446498	3563396.731068329
0.7318507700471907	3565951.3166331514
0.7319727451755319	3568506.3279622337
0.732094740633061	3564436.617538475
0.7322167564231665	3560067.96258704
0.7323387925492371	3555698.5795264463
0.7324608490146619	3551328.4682353437
0.732582925822831	3546957.6285923584
0.7327050229771347	3542586.060476104
0.7328271404809642	3538213.763765159
0.7329492783377112	3533668.456563141
0.7330714365507675	3527428.6796355187
0.7331936151235259	3521187.8627450764
0.7333158140593796	3514946.0057184924
0.7334380333617229	3508703.1083823945
0.7335602730339499	3502459.170563405
0.7336825330794556	3496214.1920881104
0.7338048135016354	3489968.1727830824
0.7339271143038857	3485198.784222307
0.734049435489603	3485379.8143632626
0.7341717770621846	3485560.874675908
0.7342941390250283	3485741.9651652724
0.7344165213815324	3485923.085836385
0.734538924135096	3486104.236694276
0.7346613472891185	3486285.4177439767
0.734783790847	3486466.628990519
0.7349062548121412	3483772.4628534336
0.7350287391879431	3475995.4473475246
0.7351512439778078	3468217.135672349
0.7352737691851374	3460437.5276119034
0.735396314813335	3452656.6229501073
0.7355188808658037	3444874.421470881
0.7356414673459482	3437090.9229580583
0.7357640742571725	3429306.127195489
0.7358867016028818	3423909.639557402
0.7360093493864824	3420872.203520715
0.7361320176113801	3417834.261244692
0.736254706280982	3414795.8126449566
0.7363774153986956	3411756.857637117
0.7365001449679286	3408717.3961367826
0.7366228949920899	3405677.428059529
0.7367456654745885	3402636.9533209293
0.7368684564188344	3398915.0708961813
0.7369912678282374	3394807.7372958264
0.7371140997062088	3390699.7191398703
0.7372369520561599	3386591.016314218
0.7373598248815024	3382481.62870477
0.7374827181856494	3378371.55619738
0.7376056319720137	3374260.798677906
0.7377285662440091	3370149.3560321773
0.7378515210050496	3364794.709724644
0.7379744962585505	3359065.334982312
0.738097492007927	3353335.0053441906
0.7382205082565949	3347603.7206511335
0.738343545007971	3341871.480743962
0.7384666022654723	3336138.285463467
0.7385896800325165	3330404.1346504334
0.7387127783125219	3324669.028145591
0.7388358971089073	3320982.9188347925
0.7389590364250921	3317501.810550987
0.7390821962644963	3314020.122082464
0.7392053766305403	3310537.853332535
0.7393285775266454	3307055.0042044786
0.7394517989562333	3303571.574601564
0.7395750409227259	3300087.564427055
0.7396983034295463	3296467.271950334
0.739821586480118	3289827.592256188
0.7399448900778645	3283186.805948773
0.7400682142262109	3276544.9128436195
0.740191558928582	3269901.9127562894
0.7403149241884034	3263257.805502283
0.7404383100091014	3256612.590897066
0.7405617163941028	3249966.2687560855
0.7406851433468352	3242635.900735666
0.7408085908707264	3232180.033149879
0.7409320589692048	3221722.4229194997
0.7410555476456997	3211263.0697540734
0.7411790569036406	3200801.973363127
0.7413025867464579	3190339.133456113
0.7414261371775823	3179874.549742444
0.7415497082004452	3169408.221931498
0.7416732998184786	3159351.2725812686
0.741796912035115	3150174.586527257
0.7419205448537874	3140996.3710255725
0.7420441982779297	3131816.6258213045
0.742167872310976	3122635.3506594934
0.7422915669563612	3113452.5452851565
0.7424152822175206	3104268.209443259
0.7425390180978901	3095082.342878727
0.7426627746009065	3086897.1339555606
0.7427865517300065	3079932.3005226157
0.7429103494886282	3072966.306284091
0.7430341678802096	3065999.151046532
0.7431580069081896	3059030.834616434
0.7432818665760077	3052061.3568002544
0.7434057468871037	3045090.7174044447
0.7435296478449182	3038118.9162354064
0.7436535694528923	3029351.9699118314
0.7437775117144678	3019355.5259115496
0.7439014746330868	3009357.4158372832
0.7440254582121922	2999357.639411329
0.7441494624552276	2989356.1963559664
0.7442734873656368	2979353.08639343
0.7443975329468645	2969348.309245892
0.7445215992023557	2959341.864635497
0.7446456861355559	2948429.691098313
0.7447697937499119	2937182.6667291773
0.7448939220488703	2925933.767855983
0.7450180710358784	2914682.99416632
0.7451422407143843	2903430.3453477076
0.7452664310878367	2892175.8210876146
0.7453906421596846	2880919.4210734903
0.7455148739333779	2869661.1449926933
0.7456391264123667	2858103.5804250725
0.7457633996001021	2846496.5350452876
0.7458876935000356	2834887.555157919
0.7460120081156189	2823276.640440591
0.7461363434503048	2811663.790570805
0.7462606995075466	2800049.00522603
0.7463850762907978	2788432.284083715
0.7465094738035127	2776812.743634728
0.7466338920491467	2764960.22992365
0.746758331031155	2753105.7407936095
0.7468827907529935	2741249.275915394
0.7470072712181189	2729390.8349596984
0.7471317724299886	2717530.417597175
0.7472562943920602	2705668.0234984327
0.7473808371077922	2693803.6523339967
0.7475054005806435	2681707.5034098662
0.7476299848140736	2668193.858337543
0.7477545898115426	2654677.9609910375
0.7478792155765113	2641159.8109949715
0.7480038621124406	2627639.4079739163
0.7481285294227926	2614116.751552361
0.7482532175110298	2600591.841354721
0.7483779263806148	2587064.677005401
0.7485026560350116	2573271.280432351
0.7486274064776842	2558761.1392108877
0.748752177712097	2544248.5796325803
0.7488769697417158	2529733.6012943126
0.749001782570006	2515216.203793006
0.7491266162004343	2500696.386725453
0.7492514706364677	2486174.1496883826
0.7493763458815739	2471649.492278458
0.7495012419392209	2456676.2196860774
0.7496261588128773	2441058.993916513
0.7497510965060128	2425439.165275976
0.7498760550220971	2409816.733330671
0.7500010343646007	2394191.697646707
0.7501260345369949	2378564.05779012
0.750251055542751	2362933.8133269087
0.7503760973853414	2347300.963822944
0.7505011600682389	2331083.7300939457
0.750626243594917	2314378.0215392606
0.7507513479688495	2297669.5286998414
0.7508764731935109	2280958.25111161
0.7510016192723765	2264244.188310443
0.7511267862089218	2247527.3398321583
0.7512519740066232	2230807.7052124543
0.7513771826689577	2214085.283986971
0.7515024121994025	2196889.3369721165
0.7516276626014359	2179471.039121126
0.751752933878536	2162049.8382205237
0.7518782260341824	2144625.733786432
0.7520035390718548	2127198.7253349274
0.7521288729950334	2109768.812382023
0.7522542278071992	2092335.9944436252
0.7523796035118337	2074900.2710355623
0.7525050001124189	2056486.004722016
0.7526304176124378	2037856.4901466267
0.7527558560153731	2019223.8706521655
0.752881315324709	2000588.145721104
0.7530067955439299	1981949.3148358804
0.7531322966765205	1963307.3774788675
0.7532578187259665	1944662.3331322896
0.7533833616957542	1926014.181278321
0.75350892558937	1906479.0931567212
0.7536345104103016	1886899.1890571127
0.7537601161620366	1867316.0216401638
0.7538857428480638	1847729.5903619602
0.7540113904718717	1828139.8946785687
0.7541370590369503	1808546.934045901
0.7542627485467898	1788950.7079197823
0.7543884590048808	1769318.3276242511
0.7545141904147151	1749354.7110890178
0.7546399427797842	1729387.767284394
0.7547657161035808	1709417.4956557995
0.754891510389598	1689443.8956486015
0.7550173256413296	1669466.9667080608
0.7551431618622698	1649486.7082793682
0.7552690190559135	1629503.1198076087
0.7553948972257561	1609287.9424350392
0.7555207963752938	1588303.2186791536
0.755646716508023	1567314.9974693204
0.755772657627441	1546323.2782226116
0.7558986197370455	1525328.0603560256
0.756024602840335	1504329.3432864668
0.7561506069408084	1483327.12643073
0.7562766320419653	1462321.4092054986
0.7564026781473054	1440863.2984990869
0.75652874526033	1418611.680351894
0.7566548333845401	1396356.3536016652
0.7567809425234375	1374097.3176303194
0.7569070726805247	1351834.5718196577
0.7570332238593047	1329568.115551364
0.7571593960632813	1307297.948207004
0.7572855892959586	1285024.0691680857
0.7574118035608413	1263108.7261040525
0.7575380388614347	1241544.1298051763
0.7576642952012449	1219975.9394069086
0.7577905725837782	1198404.1543102723
0.7579168710125422	1176828.7739160815
0.7580431904910444	1155249.7976251505
0.7581695310227928	1133667.224838198
0.7582958926112967	1112081.054955754
0.7584222752600652	1090281.320275485
0.7585486789726085	1068357.3342187428
0.7586751037524372	1046429.6941643159
0.7588015496030628	1024498.3995031705
0.7589280165279966	1002563.4496262916
0.7590545045307512	980624.8439244335
0.7591810136148396	958682.5817882919
0.7593075437837755	936736.6626084289
0.7594340950410726	914920.6030428585
0.7595606673902461	893139.6457095856
0.7596872608348112	871355.0582167354
0.7598138753782836	849566.839959327
0.75994051102418	827774.9903321888
0.7600671677760173	805979.5087301296
0.7601938456373134	784180.3945477867
0.7603205446115863	762377.6471797591
0.7604472647023548	740737.7771081568
0.7605740059131385	719110.8515737548
0.7607007682474575	697480.3215517427
0.7608275517088319	675846.1864414416
0.7609543563007835	654208.4456419075
0.7610811820268336	632567.0985522531
0.7612080288905045	610922.1445714587
0.7613348968953197	589265.5794026997
0.7614617860448022	567441.186645728
0.7615886963424764	545613.1564899337
0.7617156277918667	523781.4883291346
0.7618425803964988	501946.1815569573
0.7619695541598982	480107.23556699057
0.7620965490855914	458264.6497527082
0.7622235651771058	436418.4235074316
0.7623506024379685	415037.44446538034
0.7624776608717082	395708.0902699596
0.7626047404818536	376375.51451550535
0.7627318412719337	357039.7166651253
0.762858963245479	337700.69618175796
0.7629861064060198	318358.4525283084
0.7631132707570876	299012.9851675631
0.7632404563022137	279664.2935622751
0.7633676630449308	261177.73167418572
0.7634948909887717	244530.14110658635
0.7636221401372697	227879.7759405807
0.7637494104939593	211226.63571369837
0.7638767020623748	194570.7199634689
0.7640040148460518	177912.02822726214
0.7641313488485262	161250.56004243327
0.7642587040733344	144586.31494622133
0.7643860805240132	129909.2729925815
0.7645134782041005	117604.4281595798
0.7646408971171346	105297.53251910082
0.764768337266654	92988.58572935291
0.7648957986561985	80677.58744846942
0.7650232812893079	68364.53733454074
0.7651507851695227	56049.43504559297
