#wavelength	surface flux
0.428837	148.0258701780695
0.43312537	291.45159851884495
0.43745662370000005	345.80589365316837
0.4418311899370001	409.5469952603027
0.44624950183637	483.94698855781155
0.4507119968547338	570.0389488120293
0.45521911682328114	667.9004695450429
0.4597713079915139	786.7076193677702
0.4643690210714291	921.5438399405328
0.4690127112821433	1075.819473002472
0.47370283839496474	1253.1333019614049
0.47843986677891437	1454.0900898169537
0.48322426544670355	1683.7621061437474
0.48805650810117057	1945.6864426731931
0.4929370731821824	2238.4157074708432
0.49786644391400414	2563.587064661405
0.5028451083531442	2921.664709064495
0.5078735594366757	3309.493882320158
0.5129522950310424	3708.960398311199
0.5180818179813528	4116.941928324866
0.5232626361611664	4628.274858966923
0.5284952625227781	5068.264467505083
0.5337802151480058	5447.095154542685
0.5391180172994858	5721.244965165953
0.5445091974724807	5814.391283396
0.5499542894472055	5641.352482570338
0.5554538323416777	5099.701191739368
0.5610083706650945	4135.871163352139
0.5666184543717453	2820.0540884996517
0.5722846389154628	1460.9041542825037
0.5780074853046174	480.609226598937
0.5837875601576636	76.21171483396361
0.5896254357592402	4.292225388882187
0.5955216901168326	148.00130113595876
0.6014769070180009	962.7326258687149
0.607491676088181	3206.214710868461
0.6135665928490629	7202.481162435226
0.6197022587775535	12767.097556581557
0.625899281365329	19552.845168830943
0.6321582741789823	27241.538922287207
0.6384798569207721	35657.74511594921
0.6448646554899798	44539.010552860054
0.6513133020448797	54278.978553411405
0.6578264350653285	64299.17864567715
0.6644046994159818	75290.14332528728
0.6710487464101416	70578.72330511516
0.677759233874243	99558.5393405615
0.6845368262129854	112917.31775571474
0.6913821944751153	124263.66161025665
0.6982960164198664	140015.40962799697
0.7052789765840651	154362.49224226602
0.7123317663499058	168259.32304016783
0.7194550840134049	175762.78142736436
0.7266496348535388	180793.5577905517
0.7339161312020743	185283.1303483153
0.741255292514095	176830.6839535352
0.748667845439236	141981.68708833764
0.7561545238936284	71125.17673997543
0.7637160691325647	7109.778810990856
0.7713532298238903	5507.508652767947
0.7790667621221293	76185.96714550837
0.7868574297433505	223344.95809525624
0.7947260040407841	195860.8244378319
0.8026732640811919	436857.46897623624
0.8106999967220039	497219.2070966613
0.8188069966892239	586931.1963739537
0.8269950666561161	658506.2295499765
0.8352650173226772	717853.6391030017
0.8436176674959041	815778.595404355
0.852053844170863	879821.3740849849
0.8605743826125718	987659.4653286405
0.8691801264386976	1072870.4616106013
0.8778719277030844	1150652.1918068142
0.8866506469801153	1191195.422636309
0.8955171534499164	1166296.083954861
0.9044723249844157	1411069.942831815
0.9135170482342599	1499690.5110915962
0.9226522187166025	1563420.2847294235
0.9318787409037684	951599.6461132414
0.941197528312806	1320883.8138230979
0.9506095035959342	1216041.5773296517
0.9601155986318936	1208365.8683341043
0.9697167546182125	1427367.6429512138
0.9794139221643946	1950273.333047572
0.9892080613860387	2291098.1575908265
0.9991001419998989	2602769.292610459
1.0090911434198981	2841861.2147570923
1.019182054854097	3105140.9496325376
1.0293738754026378	3178560.407076366
1.0396676141566643	3510907.903924944
1.050064290298231	3672135.547845296
1.0605649332012133	3908107.3602194334
1.0711705825332256	4064493.4084566715
1.0818822883585577	4289290.117957969
1.0927011112421434	4188133.2055074344
1.1036281223545648	2243355.744010052
1.1146644035781104	1862987.257373439
1.1258110476138916	1875007.8194566532
1.1370691580900303	2213424.1913959486
1.1484398496709307	2746545.5251803175
1.1599242481676402	1204629.1545179375
1.1715234906493166	2634999.2088654907
1.1832387255558097	4959452.139960414
1.1950711128113678	6063739.426434594
1.2070218239394814	6595092.184485128
1.2190920421788762	7141500.5814693
1.2312829626006652	7620127.535899881
1.2435957922266716	8029204.57805493
1.2560317501489384	8355196.565557142
1.2685920676504279	8528003.735859124
1.281277988326932	8631766.633910084
1.2940907682102014	8267550.190205083
1.3070316758923035	7916093.524775735
1.3201019926512265	8330421.23089546
1.3333030125777388	2758577.481246996
1.3466360427035162	398661.3318810487
1.3601024031305513	98698.69700277969
1.373703427161857	580591.9104318606
1.3874404614334754	61661.091122234604
1.4013148660478103	272970.73526377504
1.4153280147082883	197960.73360606827
1.4294812948553712	314359.7273374165
1.443776107803925	756085.9281439437
1.4582138688819641	2533060.1463559438
1.4727960075707838	2209303.9826006247
1.4875239676464918	4430130.237076018
1.5023992073229566	5393079.936747527
1.5174231993961862	7578615.093950655
1.532597431390148	10071798.032875344
1.5479234057040496	11946187.935295222
1.5634026397610903	13053017.937165942
1.579036666158701	12398270.700803224
1.594827032820288	13973894.396490501
1.610775303148491	12771353.560156263
1.6268830561799759	8858604.526623951
1.6431518867417756	12476338.582362853
1.6595834056091934	11211279.476128355
1.6761792396652853	9258030.462895606
1.6929410320619382	6175667.330288735
1.7098704423825577	6548118.022051094
1.7269691468063835	8505365.075402953
1.744238838274447	6318731.056089003
1.7616812266571917	6680917.051781153
1.7792980389237634	1042067.6325043279
1.7970910193130012	1926997.1967435887
1.815061929506131	478101.5672881502
1.8332125488011928	298429.54011121055
1.8515446742892046	745838.4821480642
1.8700601210320964	302720.7376557102
1.8887607222424174	1917089.2554761164
1.9076483294648416	164415.2961889103
1.92672481275949	190806.4963462788
1.9459920608870853	686425.7136694866
1.9654519814959561	981045.1367139006
1.9851065013109155	3221347.3984622313
2.0049575663240247	4896954.630515076
2.025007141987265	7438986.9338403195
2.0452572134071376	13413550.861147407
2.065709785541209	15694606.609364647
2.086366883396621	16059153.048477698
2.107230552230587	14784593.895393547
2.1283028577528933	13506083.420742894
2.1495858863304225	10013695.367035335
2.1710817451937263	8711932.683307445
2.1927925626456637	4248693.813030635
2.2147204882721203	1849051.2996264787
2.2368676931548412	740201.1177367114
2.25923637008639	702623.9376490233
2.281828733787254	587746.688169789
2.3046470211251266	968831.6304311617
2.327693491336378	386280.2831147779
2.3509704262497415	360045.7881553255
2.374480130512239	284354.30386127945
2.3982249318173614	551151.8397992225
2.4222071811355352	1199907.478096363
2.4464292529468903	1305566.4219868863
2.4708935454763594	955782.0738007543
2.4956024809311232	438240.1362979289
2.5205585057404343	151953.36816346424
2.5457640907978387	334578.3300048562
2.5712217317058172	92767.61318858988
2.5969339490228753	55946.291951517815
2.622903288513104	252465.14441182878
2.6491323213982354	444342.2394983362
2.6756236446122177	24143.026140439855
2.7023798810583397	182221.95993881466
2.729403679868923	654410.0784531032
2.7566977166676123	173902.70481943406
2.7842646938342885	133850.71429616283
2.812107340772631	182198.047484501
2.8402284141803578	505437.78276136547
2.8686306983221614	297603.2368215894
2.897317005305383	439731.07775752543
2.926290175358437	1177915.4721073464
2.9555530771120213	1446719.0361661715
2.9851086078831415	1537995.4303496773
3.014959693961973	1834195.9346274128
3.0451092909015927	1377311.5184765568
3.0755603838106085	1733341.060635144
3.1063159876487147	1048937.8017827582
3.137379147525202	693307.3057833593
3.168752939000454	441450.1563574899
3.200440468390459	320759.5318683886
3.232444873074363	200426.38427538302
3.264769321805107	644130.051457257
3.297417015023158	646682.1197033918
3.330391185173389	103765.92986926576
3.3636950970251234	486127.24473133264
3.397332047995375	381539.9306386779
3.4313053684753285	271859.5052089756
3.465618422160081	336827.28704528225
3.5002746063816828	547586.8880439951
3.5352773524454997	709103.0696309893
3.570630125969955	1049609.3447080157
3.606336427229654	1431352.3932961847
3.6423997915019504	2086612.4183967318
3.67882378941697	2856241.782592794
3.7156120273111397	3087078.051228362
3.7527681475842516	4010566.0879658605
3.7902958290600934	3997761.8705721265
3.8281987873506953	5654727.515905049
3.8664807752242023	5680965.972219005
3.905145582976444	5997716.481979531
3.9441970388062084	7024799.397206044
3.983639009194271	7306132.376161916
4.023475399286213	7968066.793011701
4.063710153279075	8279482.615926328
4.1043472548118665	8123880.408053306
4.145390727359985	7721065.166988761
4.186844634633585	7360371.560549258
4.2287130809799205	6549246.008726043
4.27100021178972	6064319.642818062
4.313710213907617	6066170.122670601
4.356847316046694	5212548.800718518
4.40041578920716	4814765.66428621
4.444419947099232	4373882.270956656
4.488864146570225	4191974.7860904117
4.533752788035927	3809571.4118305147
4.579090315916286	3975520.3063588585
4.624881219075449	3599004.6492667976
4.671130031266204	3507869.1855893717
4.717841331578866	3168676.692632461
4.765019744894654	3506758.7985899546
4.812669942343601	3204311.923421843
4.8607966417670365	3352138.0301893824
4.9094046081847065	2994916.3479777137
4.958498654266554	1554841.678225554
5.008083640809219	2014914.135791408
5.058164477217312	2779697.435998501
5.108746121989485	2103987.8720098254
5.15983358320938	1329785.7294131953
5.211431919041474	921833.9102576054
5.263546238231889	1289417.833754065
5.316181700614208	1673569.3047547168
5.36934351762035	742770.681517803
5.423036952796553	501111.0844887286
5.4772673223245185	534257.6876359989
5.532039995547764	633933.7231930745
5.587360395503242	417303.85538491514
5.643233999458275	308668.56440560066
5.6996663394528575	297964.2177095552
5.756663002847385	274840.3528408046
5.814229632875859	357709.06392335246
5.872371929204618	223799.9009039421
5.931095648496664	302973.08359466755
5.990406604981631	402829.3207384653
6.050310671031448	339144.9817874071
6.110813777741763	336399.2124875604
6.17192191551918	340675.11012956797
6.233641134674372	1109422.9116066298
6.295977546021115	1239852.1954744852
6.358937321481327	688225.1820005139
6.42252669469614	185752.8371559287
6.486751961643101	156699.83678255026
6.551619481259532	206824.8580714182
6.617135676072128	181573.52762032792
6.683307032832849	341155.97050235973
6.750140103161177	437741.1544558056
6.81764150419279	436013.630613024
6.885817919234718	283563.19053622347
6.954676098427065	453177.5688938879
7.024222859411336	240688.07165264088
7.094465088005449	416328.0376449181
7.165409738885503	261264.73024708524
7.237063836274358	297276.9992715514
7.309434474637103	231350.60752582664
7.382528819383473	189342.0355756246
7.456354107577308	184395.63612852772
7.530917648653081	263942.6758864661
7.606226825139612	301002.5132566377
7.682289093391009	137855.05548557997
7.759111984324918	233308.83633951703
7.836703104168168	245232.97171696692
7.91507013520985	230044.39177730712
7.994220836561947	279580.3299451103
8.074163044927568	289711.72572310193
8.154904675376844	324959.93386863684
8.23645372213061	381907.5252284229
8.318818259351918	435355.63252859586
8.402006441945437	458396.40046755824
8.486026506364892	546845.2566492258
8.57088677142854	628509.183849087
8.656595639142825	688297.1727613515
8.743161595534254	768047.3289556059
8.830593211489598	834683.6076165976
8.918899143604493	779196.3627034436
9.00808813504054	838472.781425682
9.098169016390944	918094.4634599539
9.189150706554853	957620.203850289
9.281042213620402	850579.1332230766
9.373852635756606	653290.9307727913
9.467591162114172	939720.3205081692
9.562267073735315	1050428.1602952038
9.657889744472667	768662.2174891403
9.754468641917395	951122.1872054061
9.852013328336568	772138.8375990847
9.950533461619933	990973.6526536575
10.050038796236134	900490.167960268
10.150539184198495	962734.7080408284
10.252044576040479	813060.86781415
10.354565021800884	453426.890909191
10.458110672018893	578175.5100138022
10.562691778739081	702784.2518180946
10.668318696526473	603195.5116549484
10.775001883491738	544810.6577580704
10.882751902326655	604648.2843387547
10.991579421349924	446991.29168962396
11.101495215563421	633681.8942361899
11.212510167719055	501459.5126953653
11.324635269396246	533093.5973162685
11.43788162209021	605539.0842611429
11.552260438311112	378340.64153263316
11.667783042694223	426838.20052673365
11.784460873121166	396863.3276551827
11.902305481852377	461338.4436511539
12.0213285366709	465795.1070088282
12.14154182203761	508309.56414243404
12.262957240257986	354974.0191136253
12.385586812660566	288226.71331200347
12.509442680787172	284486.44028738094
12.634537107595044	355048.7518244927
12.760882478670995	332230.7254091483
12.888491303457704	301745.0862473942
13.01737621649228	258390.8917846007
13.147549978657205	282266.7044307054
13.279025478443776	201479.93944278135
13.411815733228213	193261.98089100115
13.545933890560496	260714.97407666678
13.681393229466101	213269.95645325587
13.818207161760762	202170.14285495557
13.956389233378369	213803.00340583947
14.095953125712155	222864.1323208975
14.236912656969274	197000.486564306
14.379281783538968	140049.3642687953
14.523074601374358	132835.97756622755
14.6683053473881	184685.12129758426
14.814988400861985	166510.49600549435
14.963138284870602	146413.76738594507
15.11276966771931	162388.691486872
15.263897364396504	181886.67185560754
15.41653633804047	140710.50161633213
15.570701701420873	95698.08212514265
15.726408718435081	83950.10525920846
15.883672805619431	165491.96186931606
16.042509533675627	108600.94293555911
16.202934629012383	102726.52381268506
16.36496397530251	102297.43892173993
16.528613615055534	94792.46472486993
16.69389975120609	79144.07822624175
16.86083874871815	72264.27753561724
17.02944713620533	96008.02010357247
17.199741607567383	65679.80962641814
17.37173902364306	59756.86976020658
17.54545641387949	64341.08077139651
17.720910978018285	65397.50814558418
17.898120087798468	61600.909094649454
18.077101288676452	65471.29431849859
18.257872301563214	54580.55445832303
18.44045102457885	59410.6777106429
18.62485553482464	50454.31634751999
18.811104090172883	81406.80780005465
18.999215131074614	42873.16945386233
19.189207282385357	44934.6045942774
19.381099355209216	35643.44817817484
19.574910348761303	38239.47183017546
19.77065945224892	39856.19768997466
19.968366046771408	52012.99725040363
20.16804970723912	44949.415042736015
20.369730204311512	35218.60576578403
20.573427506354626	30117.638695832615
20.779161781418175	36875.52894761083
20.98695339923236	27901.289542181
21.19682293322468	26471.8233242391
21.408791162556927	36777.803198214
21.622879074182496	25590.31043046458
21.839107864924323	21631.63772706846
22.057498943573567	23302.06202634721
22.278073933009303	27202.77180388057
22.500854672339393	19464.40947268367
22.72586321906279	37740.33349945066
22.953121851253417	18520.98519122902
23.18265306976595	31465.20434904633
23.41447960046361	25935.423863549928
23.648624396468247	15551.309603470234
23.88511064043293	13914.867059354772
24.12396174683726	29523.148358973485
24.365201364305634	27089.3214292243
24.608853377948687	25416.457356643263
24.854941911728176	20248.440256071855
25.103491330845458	11150.613107384195
25.354526244153913	11505.9219903867
25.608071506595454	20555.971203508845
25.864152221661406	15413.709352207828
26.122793743878024	15440.253889581221
26.384021681316803	17149.814374361187
26.64786189812997	8709.753666140383
26.91434051711127	13190.419797868404
27.18348392228238	15780.083130768713
27.455318761505207	19548.359336272944
27.72987194912026	15035.10531088793
28.007170668611465	8333.891082308937
28.28724237529758	7165.656263090087
28.57011479905055	7183.238326278819
28.855815947041062	11233.300862625743
29.144374106511474	7825.027406814784
29.435817847576587	9539.209309999731
29.730176026052348	7755.984921123708
30.027477786312875	10127.798796381416
30.327752564176006	6458.103092997406
30.631030089817763	7216.36933227161
30.93734039071594	6351.5809929094585
31.246713794623105	8161.3181459078005
31.559180932569333	9415.942341092243
31.874772741895026	6733.66137983249
32.19352046931398	8598.296475762456
32.51545567400712	7881.3439616044325
32.84061023074719	4193.488333011528
33.169016333054664	4664.777264517796
33.500706496385206	5100.2907312194975
33.83571356134906	8471.379745764174
34.17407069696255	5232.223529125884
34.51581140393218	3865.7486868067745
34.8609695179715	4720.157413497671
35.209579213151216	3984.3591546380812
35.56167500528272	3184.938323746994
35.917291755335555	2940.603844598991
36.27646467288891	4172.64869436156
36.639229319617804	4081.5461283417203
37.005621612813975	5751.607432791518
37.37567782894212	3138.960259989923
37.74943460723154	3717.078707465879
38.12692895330385	5268.415126408673
38.5081982428369	4748.959060671302
38.893280225265265	2832.486449035878
39.28221302751791	2082.234699533612
39.6750351577931	3564.801960411118
40.071785509371026	2149.47553496419
40.47250336446474	2137.920164939676
40.87722839810939	2205.4209955894103
41.28600068209048	3607.4072300720472
41.69886068891139	3544.021842106168
42.1158492958005	2593.874702866821
42.53700778875851	2651.5682620384446
42.962377866646094	1897.3390975484376
43.392001645312554	1783.0589382400985
43.825921661765676	1483.3908458596445
44.264180878383335	1560.2540693993399
44.70682268716717	1555.6260408743906
45.15389091403884	1659.5354280610886
45.60542982317923	2261.0866967364395
46.06148412141103	1798.0581049347754
46.52209896262513	1361.5124533518858
46.98731995225138	1341.5236076355259
47.4571931517739	1961.843244843007
47.93176508329164	1135.9871316996328
48.411082734124555	1731.3784578245518
48.8951935614658	1091.6022398923462
49.38414549708046	942.750593767245
49.877986952051266	1021.0995837341505
50.37676682157178	985.5438639725124
50.88053448978749	951.1862060958751
51.38933983468537	917.9784305395355
51.903233233032225	885.8918636982118
52.422265565362544	854.8851159508687
52.946488221016175	824.9241531626219
53.47595310322633	795.9829231907041
54.010712634258596	768.0191225842702
54.550819760601186	741.0060829213477
55.0963279582072	714.9121753780097
55.647291237789275	689.7055553238829
56.20376415016716	665.3622718745652
56.765801791668835	641.8483586951874
57.33345980958552	619.1415986451644
57.906794407681375	597.2139237946983
58.48586235175819	576.0374077955128
59.070720975275776	555.5922505272141
59.661428185028534	535.848518593952
60.25804246687882	516.7886184407741
60.860622891547614	498.38597481193005
61.46922912046309	480.6200869849744
62.083921411667724	463.4714828033986
62.7047606257844	446.9150880471551
63.331808232042235	430.9377065069117
63.965126314362664	415.5148234232307
64.60477757750628	400.62903977594823
65.25082535328136	386.2637342846338
65.90333360681416	372.3982015500119
66.56236694288232	359.02042878145727
67.22799061231113	346.11000194072517
67.90027051843424	333.6522964546087
68.57927322361859	321.63294312719773
69.26506595585477	310.0351319578393
69.95771661541333	298.8469480001418
70.65729378156746	288.05226784807417
71.36386671938313	277.6388594403613
72.07750538657696	267.5932514180129
72.79828044044274	257.9026396345031
73.52626324484716	248.55602096539738
74.26152587729563	239.5399202738475
75.00414113606858	230.84467747593845
75.75418254742928	222.45800099796864
76.51172437290357	214.3691911197533
77.27684161663261	206.56920206994465
78.04961003279894	199.04616436434344
78.83010613312693	191.7927725361131
79.6184071944582	184.79795987166287
80.41459126640278	178.05283199304884
81.2187371790668	171.55001877750937
82.03092455085748	165.27914213702869
82.85123379636605	159.23422642588082
83.6797461343297	153.40553630064645
84.51654359567301	147.7863387490121
85.36170903162974	142.36945805182677
86.21532612194603	137.14714192682715
87.0774793831655	132.1135095331597
87.94825417699715	127.26108041928447
88.82773671876713	122.58388487528696
89.71601408595481	118.07577128406055
90.61317422681435	113.73020344553358
91.5193059690825	109.54255522036966
92.43449902877332	105.50602633143417
93.35884401906105	101.6162678823623
