#wavelength	surface flux
0.428837	197.89630495964138
0.43312537	388.6601494274578
0.43745662370000005	459.7159278001548
0.4418311899370001	543.0472044246203
0.44624950183637	640.1127329711969
0.4507119968547338	751.7215699537148
0.45521911682328114	880.4520448017862
0.4597713079915139	1034.1373945865166
0.4643690210714291	1208.937463367088
0.4690127112821433	1409.172315867082
0.47370283839496474	1639.4818232093933
0.47843986677891437	1899.0765741837333
0.48322426544670355	2198.745261075221
0.48805650810117057	2543.001863496974
0.4929370731821824	2927.6389152446627
0.49786644391400414	3356.2674108617343
0.5028451083531442	3832.1962443435013
0.5078735594366757	4348.0858018219515
0.5129522950310424	4867.37633195686
0.5180818179813528	5386.356812491083
0.5232626361611664	6208.792490750708
0.5284952625227781	6893.117749330632
0.5337802151480058	7525.488112834157
0.5391180172994858	8077.856969793233
0.5445091974724807	8448.39546529799
0.5499542894472055	8515.468314502548
0.5554538323416777	8099.505282375352
0.5610083706650945	7023.2492452579045
0.5666184543717453	5202.906024611436
0.5722846389154628	2954.4216974643236
0.5780074853046174	1036.4176420878555
0.5837875601576636	146.47336344377968
0.5896254357592402	5.547238567353383
0.5955216901168326	289.502606555015
0.6014769070180009	2019.2327709738001
0.607491676088181	6313.361868657677
0.6135665928490629	13069.269912561225
0.6197022587775535	21521.53163512587
0.625899281365329	31005.18565809639
0.6321582741789823	41139.56381601519
0.6384798569207721	51830.7086530692
0.6448646554899798	62834.61801058371
0.6513133020448797	74726.96281781598
0.6578264350653285	86853.446119395
0.6644046994159818	100069.75176703944
0.6710487464101416	93239.29263614837
0.677759233874243	129337.44148488846
0.6845368262129854	145529.88302314113
0.6913821944751153	159515.6810687823
0.6982960164198664	178870.62115138277
0.7052789765840651	196863.04885560172
0.7123317663499058	214789.14804019596
0.7194550840134049	226083.37632408162
0.7266496348535388	235718.57827278093
0.7339161312020743	245713.39448697487
0.741255292514095	242685.61530284176
0.748667845439236	208140.90580307224
0.7561545238936284	117857.64050597193
0.7637160691325647	13213.051642079197
0.7713532298238903	10112.561611817695
0.7790667621221293	128125.58638113449
0.7868574297433505	323671.17668778304
0.7947260040407841	273403.6874541014
0.8026732640811919	563574.429737789
0.8106999967220039	627332.4260381354
0.8188069966892239	724977.3891405066
0.8269950666561161	803925.9605052173
0.8352650173226772	870349.1180340924
0.8436176674959041	977097.2704571933
0.852053844170863	1054234.6434663492
0.8605743826125718	1166708.2254789833
0.8691801264386976	1260577.7000691667
0.8778719277030844	1346012.1344528524
0.8866506469801153	1402727.9333341892
0.8955171534499164	1387457.5197299724
0.9044723249844157	1647633.818266264
0.9135170482342599	1749703.4117601325
0.9226522187166025	1824176.5849260578
0.9318787409037684	1176289.9583646501
0.941197528312806	1593310.3782380589
0.9506095035959342	1488537.0814286028
0.9601155986318936	1484905.5992390781
0.9697167546182125	1727204.6769133394
0.9794139221643946	2296903.536042929
0.9892080613860387	2662480.9488921203
0.9991001419998989	2997952.3690129863
1.0090911434198981	3260246.311851081
1.019182054854097	3549189.238650741
1.0293738754026378	3612534.6825305684
1.0396676141566643	3999945.2770108157
1.050064290298231	4179646.5448987023
1.0605649332012133	4447589.709314836
1.0711705825332256	4630048.327548499
1.0818822883585577	4880363.276807032
1.0927011112421434	4797070.571072731
1.1036281223545648	2742807.739056668
1.1146644035781104	2326482.008380144
1.1258110476138916	2397867.283578699
1.1370691580900303	2722437.225507209
1.1484398496709307	3363837.1625139387
1.1599242481676402	1630203.6185128419
1.1715234906493166	3276966.676079129
1.1832387255558097	5777029.961746986
1.1950711128113678	6931016.9094425
1.2070218239394814	7476076.923832203
1.2190920421788762	8076430.455337675
1.2312829626006652	8586524.276574045
1.2435957922266716	9028666.850726593
1.2560317501489384	9377624.181113945
1.2685920676504279	9577216.696392262
1.281277988326932	9723695.95318644
1.2940907682102014	9386809.483557219
1.3070316758923035	9071993.950972835
1.3201019926512265	9504423.506405266
1.3333030125777388	3434728.232523975
1.3466360427035162	566651.9253219941
1.3601024031305513	150744.17870529104
1.373703427161857	833799.1097308542
1.3874404614334754	96741.83689916004
1.4013148660478103	393335.7697644661
1.4153280147082883	290137.478569002
1.4294812948553712	458225.9047501561
1.443776107803925	1029502.4763734333
1.4582138688819641	3222639.1823416743
1.4727960075707838	2885921.688573996
1.4875239676464918	5528843.566468523
1.5023992073229566	6718046.914500792
1.5174231993961862	9029544.61202625
1.532597431390148	11727700.230944216
1.5479234057040496	13571008.391559519
1.5634026397610903	14599751.159659162
1.579036666158701	13744559.344253287
1.594827032820288	15762530.315678528
1.610775303148491	14640790.91573905
1.6268830561799759	10890528.398511127
1.6431518867417756	14628066.267291868
1.6595834056091934	13383191.254782476
1.6761792396652853	11478352.552599976
1.6929410320619382	8109479.472854676
1.7098704423825577	8467334.345906492
1.7269691468063835	10613544.628291257
1.744238838274447	7906326.796592423
1.7616812266571917	8349946.158827147
1.7792980389237634	1379796.9776909112
1.7970910193130012	2457804.6141429394
1.815061929506131	660032.4817999031
1.8332125488011928	418947.0745529385
1.8515446742892046	980554.6950069763
1.8700601210320964	425332.6712796272
1.8887607222424174	2464325.760883592
1.9076483294648416	246760.00752387664
1.92672481275949	270932.11285386776
1.9459920608870853	919225.5885440733
1.9654519814959561	1243401.7621453565
1.9851065013109155	4073751.0481804404
2.0049575663240247	6009084.556262868
2.025007141987265	9444573.006199572
2.0452572134071376	15920185.431569945
2.065709785541209	18487129.744067628
2.086366883396621	19063077.57955026
2.107230552230587	17885775.136354215
2.1283028577528933	16638358.700266393
2.1495858863304225	12801759.931779118
2.1710817451937263	11293414.848570349
2.1927925626456637	5718405.668361303
2.2147204882721203	2543346.051854234
2.2368676931548412	1044652.0071642504
2.25923637008639	995448.4047418566
2.281828733787254	813528.8564437153
2.3046470211251266	1318008.7244142443
2.327693491336378	523177.3509517535
2.3509704262497415	499620.2001989384
2.374480130512239	392585.4269915482
2.3982249318173614	740198.9851941502
2.4222071811355352	1552586.9747136487
2.4464292529468903	1626437.718967858
2.4708935454763594	1172235.3201949503
2.4956024809311232	543845.3853732732
2.5205585057404343	198650.70397582176
2.5457640907978387	419839.8972421813
2.5712217317058172	121646.3956584536
2.5969339490228753	78406.9103550021
2.622903288513104	322151.77823698975
2.6491323213982354	549956.0613396392
2.6756236446122177	34377.63696313417
2.7023798810583397	233888.1971405133
2.729403679868923	788343.8358028753
2.7566977166676123	232866.23783346702
2.7842646938342885	179930.12672445524
2.812107340772631	239613.0269027223
2.8402284141803578	622319.5706955885
2.8686306983221614	377369.7137806683
2.897317005305383	546068.3125792926
2.926290175358437	1418448.6942757487
2.9555530771120213	1699415.0311857495
2.9851086078831415	1801400.1954544878
3.014959693961973	2166847.3405086026
3.0451092909015927	1772665.3538349078
3.0755603838106085	2008461.3746588374
3.1063159876487147	1234943.5122733277
3.137379147525202	822219.1212230434
3.168752939000454	528851.11154071
3.200440468390459	392554.0385314015
3.232444873074363	249381.58358354645
3.264769321805107	781629.1959420961
3.297417015023158	790865.9164487668
3.330391185173389	130556.63929821627
3.3636950970251234	592314.3010205434
3.397332047995375	469014.54421955283
3.4313053684753285	339583.68680122506
3.465618422160081	411697.8676112115
3.5002746063816828	652632.7998579211
3.5352773524454997	854291.7542025892
3.570630125969955	1237718.8446404566
3.606336427229654	1687490.2339239565
3.6423997915019504	2426097.833927546
3.67882378941697	3322818.6144300215
3.7156120273111397	3658727.6836195653
3.7527681475842516	4726769.880698512
3.7902958290600934	4752160.945848023
3.8281987873506953	6587825.82507097
3.8664807752242023	6663642.931611362
3.905145582976444	7024704.769584533
3.9441970388062084	8061358.732285741
3.983639009194271	8298180.790301594
4.023475399286213	8958802.997285763
4.063710153279075	9232816.357438518
4.1043472548118665	9057037.75426558
4.145390727359985	8577922.11309524
4.186844634633585	8154227.938029258
4.2287130809799205	7295906.281162862
4.27100021178972	6720396.898015015
4.313710213907617	6679110.778175346
4.356847316046694	5647289.50042522
4.40041578920716	4961552.959293063
4.444419947099232	4387771.468071022
4.488864146570225	4073276.0554626887
4.533752788035927	3655647.492062524
4.579090315916286	3822489.5688608657
4.624881219075449	3567860.290047837
4.671130031266204	3607128.9443915305
4.717841331578866	3201866.8751226915
4.765019744894654	3411173.8848090605
4.812669942343601	3244658.0809862833
4.8607966417670365	3448931.3370041754
4.9094046081847065	3074434.173557073
4.958498654266554	1706060.6109098624
5.008083640809219	2189838.774889401
5.058164477217312	2973257.107313051
5.108746121989485	2266620.778476901
5.15983358320938	1476818.5111937048
5.211431919041474	1034523.4612742033
5.263546238231889	1438831.9567401432
5.316181700614208	1844402.2619608573
5.36934351762035	839657.4098416402
5.423036952796553	577963.3712984449
5.4772673223245185	622986.7919397894
5.532039995547764	725234.0504527312
5.587360395503242	485421.12688267406
5.643233999458275	366125.6289471468
5.6996663394528575	351293.1166500678
5.756663002847385	328300.53593761276
5.814229632875859	415223.6634829757
5.872371929204618	270420.53970652015
5.931095648496664	354666.25393838383
5.990406604981631	478431.75724174257
6.050310671031448	393049.66785219475
6.110813777741763	453194.02138376253
6.17192191551918	411230.5926219595
6.233641134674372	1229333.5431719376
6.295977546021115	1366213.476691098
6.358937321481327	778029.6762668464
6.42252669469614	221159.4680707082
6.486751961643101	191847.96002151378
6.551619481259532	245203.3398565615
6.617135676072128	212878.90229574626
6.683307032832849	388203.37441153335
6.750140103161177	489282.27849763725
6.81764150419279	486032.2023459962
6.885817919234718	325074.50700969895
6.954676098427065	500592.6012908658
7.024222859411336	276690.94474684366
7.094465088005449	462234.87661014515
7.165409738885503	297191.2495987988
7.237063836274358	333128.73881766445
7.309434474637103	264563.0170479438
7.382528819383473	220615.99483234208
7.456354107577308	213846.30545136787
7.530917648653081	302466.4837208246
7.606226825139612	337406.3499758919
7.682289093391009	162286.76995816108
7.759111984324918	264307.06882947043
7.836703104168168	281578.79967499606
7.91507013520985	264526.3666270495
7.994220836561947	317766.84492387634
8.074163044927568	325233.2406658281
8.154904675376844	360075.21290353866
8.23645372213061	423176.8061876684
8.318818259351918	474071.02413904964
8.402006441945437	497723.71915402956
8.486026506364892	614006.0271623303
8.57088677142854	670980.3450355235
8.656595639142825	742436.4929929654
8.743161595534254	813671.8411384128
8.830593211489598	889518.5366625892
8.918899143604493	854483.7409878804
9.00808813504054	893881.327286367
9.098169016390944	983211.2463880095
9.189150706554853	1022557.690045012
9.281042213620402	978655.9308707378
9.373852635756606	811957.8998176401
9.467591162114172	1011217.9820188592
9.562267073735315	1128370.704549038
9.657889744472667	902728.9600519645
9.754468641917395	1080416.8912305944
9.852013328336568	819786.7562990461
9.950533461619933	1054082.4711295879
10.050038796236134	957609.1698267335
10.150539184198495	1018411.8834866396
10.252044576040479	863107.0709738771
10.354565021800884	576473.3592969523
10.458110672018893	661999.5236325038
10.562691778739081	768716.9174419497
10.668318696526473	718158.1199481236
10.775001883491738	680104.5354037005
10.882751902326655	641559.8458113677
10.991579421349924	470704.7281135081
11.101495215563421	685156.2511722377
11.212510167719055	544187.0646871476
11.324635269396246	575353.0304583537
11.43788162209021	636831.1933829024
11.552260438311112	403935.3305929628
11.667783042694223	450282.60097103985
11.784460873121166	431202.54279751267
11.902305481852377	489831.0174635584
12.0213285366709	503625.75969043904
12.14154182203761	537613.1533970525
12.262957240257986	376306.22550254903
12.385586812660566	302970.9276757429
12.509442680787172	300974.68046368245
12.634537107595044	376591.38860183593
12.760882478670995	348595.49256854167
12.888491303457704	324703.55981174094
13.01737621649228	271002.2525913733
13.147549978657205	294619.06210172054
13.279025478443776	211177.38426526994
13.411815733228213	204281.9027249889
13.545933890560496	269539.72961231595
13.681393229466101	222769.83293540688
13.818207161760762	232843.393614399
13.956389233378369	223555.49929580264
14.095953125712155	235851.96232606296
14.236912656969274	205347.0148138321
14.379281783538968	147295.10070736255
14.523074601374358	139744.65397637358
14.6683053473881	191145.61600870886
14.814988400861985	171981.37270830586
14.963138284870602	151772.3273253261
15.11276966771931	168756.31254050622
15.263897364396504	189472.32120154117
15.41653633804047	145039.78118474645
15.570701701420873	103771.50034384833
15.726408718435081	90661.75630069763
15.883672805619431	174215.34517379067
16.042509533675627	117026.66403532744
16.202934629012383	107562.57896471678
16.36496397530251	105600.41798468585
16.528613615055534	98534.43092027582
16.69389975120609	82614.96214716102
16.86083874871815	76452.384548248
17.02944713620533	99232.69242211184
17.199741607567383	68775.12047925433
17.37173902364306	62628.44520625034
17.54545641387949	67901.25056184857
17.720910978018285	67847.83814241315
17.898120087798468	63878.008930604476
18.077101288676452	67921.77065050339
18.257872301563214	57611.65614512998
18.44045102457885	61598.38686682232
18.62485553482464	52454.69002470121
18.811104090172883	84200.62549736879
18.999215131074614	44976.618390120326
19.189207282385357	47025.40497699415
19.381099355209216	37349.32174382393
19.574910348761303	39898.272477886465
19.77065945224892	41864.79818712753
19.968366046771408	54074.09974254176
20.16804970723912	46440.55035980414
20.369730204311512	36672.69634844459
20.573427506354626	31601.316043146053
20.779161781418175	38353.650600275745
20.98695339923236	29114.494057029922
21.19682293322468	27921.083743197316
21.408791162556927	38409.739728955916
21.622879074182496	26652.114489789696
21.839107864924323	22923.179816023006
22.057498943573567	24446.128500646846
22.278073933009303	28234.434522975836
22.500854672339393	20455.31544044447
22.72586321906279	39016.80842563034
22.953121851253417	19391.466122701582
23.18265306976595	33034.3655561182
23.41447960046361	26959.026831341176
23.648624396468247	16400.151572820698
23.88511064043293	14749.669304776002
24.12396174683726	30503.116986103538
24.365201364305634	27915.070331838848
24.608853377948687	26191.577176443967
24.854941911728176	20947.631447202184
25.103491330845458	11819.8818829053
25.354526244153913	12129.623003907427
25.608071506595454	21167.76304928231
25.864152221661406	16351.17983572642
26.122793743878024	16088.507671294721
26.384021681316803	17820.174944537357
26.64786189812997	9249.533911172215
26.91434051711127	13844.532595553594
27.18348392228238	16347.005014183682
27.455318761505207	20343.677164968525
27.72987194912026	15592.625851900248
28.007170668611465	8821.68311911101
28.28724237529758	7619.965475258903
28.57011479905055	7628.954165235204
28.855815947041062	11945.225278794838
29.144374106511474	8343.307193760547
29.435817847576587	9911.397199091363
29.730176026052348	8211.24569153192
30.027477786312875	10487.01724500524
30.327752564176006	6817.467815407884
30.631030089817763	7566.198495945593
30.93734039071594	6678.212117259319
31.246713794623105	8430.762437700656
31.559180932569333	9764.956980157182
31.874772741895026	7022.297996538641
32.19352046931398	9039.768295483873
32.51545567400712	8636.856034810768
32.84061023074719	4481.061346862827
33.169016333054664	4978.875376524036
33.500706496385206	5339.757550997255
33.83571356134906	8819.967297002335
34.17407069696255	5509.095767857753
34.51581140393218	4110.454850057442
34.8609695179715	4898.115707005166
35.209579213151216	4180.789055155141
35.56167500528272	3400.9540788578993
35.917291755335555	3156.920359209389
36.27646467288891	4422.096304877457
36.639229319617804	4267.17070024573
37.005621612813975	5984.421520230542
37.37567782894212	3295.5641949212404
37.74943460723154	3877.517964824245
38.12692895330385	5428.3902243119455
38.5081982428369	4898.082187841573
38.893280225265265	2948.490017048868
39.28221302751791	2243.7284745594393
39.6750351577931	3728.308199381256
40.071785509371026	2285.2491305999256
40.47250336446474	2276.0015857021413
40.87722839810939	2327.8692167048275
41.28600068209048	3730.7351475569662
41.69886068891139	3725.6647539493983
42.1158492958005	2865.9308021717634
42.53700778875851	2761.917693714508
42.962377866646094	1986.5694787852963
43.392001645312554	1870.0836324574818
43.825921661765676	1590.4746307422186
44.264180878383335	1658.5696071880313
44.70682268716717	1647.239849391539
45.15389091403884	1753.3420356268173
45.60542982317923	2332.9193747580753
46.06148412141103	1867.4517538624748
46.52209896262513	1433.7017275270387
46.98731995225138	1408.0692770983612
47.4571931517739	2042.0185347523914
47.93176508329164	1212.3901905508073
48.411082734124555	1794.243333957645
48.8951935614658	1161.8939958157882
49.38414549708046	1012.2610866326177
49.877986952051266	1083.4860424209458
50.37676682157178	1045.5542486095655
50.88053448978749	1008.9105146449772
51.38933983468537	973.5022864564222
51.903233233032225	939.2986342995735
52.422265565362544	906.2544952697544
52.946488221016175	874.3324631049288
53.47595310322633	843.505210153686
54.010712634258596	813.7260129968724
54.550819760601186	784.9659918641462
55.0963279582072	757.1915551984565
55.647291237789275	730.3676951948702
56.20376415016716	704.4686738848158
56.765801791668835	679.4580186274918
57.33345980958552	655.3109852512838
57.906794407681375	631.9977886528028
58.48586235175819	609.4885138203695
59.070720975275776	587.7610466057282
59.661428185028534	566.783677992271
60.25804246687882	546.5372148115384
60.860622891547614	526.9930638268216
61.46922912046309	508.129038225106
62.083921411667724	489.92421502565463
62.7047606257844	472.3517708233022
63.331808232042235	455.397076329373
63.965126314362664	439.03397828955906
64.60477757750628	423.2439336498562
65.25082535328136	408.00891553191826
65.90333360681416	393.30666172903506
66.56236694288232	379.12462893535553
67.22799061231113	365.4402797342772
67.90027051843424	352.23848765416943
68.57927322361859	339.503350067465
69.26506595585477	327.217216331231
69.95771661541333	315.36715739184956
70.65729378156746	303.93568669097453
71.36386671938313	292.9100433127972
72.07750538657696	282.27564358054184
72.79828044044274	272.01875133511464
73.52626324484716	262.12762743769895
74.26152587729563	252.58775858613885
75.00414113606858	243.3890568646473
75.75418254742928	234.51802777603913
76.51172437290357	225.96359374664112
77.27684161663261	217.7158530650079
78.04961003279894	209.76244057970166
78.83010613312693	202.09501064241593
79.6184071944582	194.7019537772492
80.41459126640278	187.57416223994164
81.2187371790668	180.70325419534583
82.03092455085748	174.07868324308131
82.85123379636605	167.6933723744233
83.6797461343297	161.53746458286548
84.51654359567301	155.60363929343671
85.36170903162974	149.88445743498283
86.21532612194603	144.3712900019721
87.0774793831655	139.0582144091894
87.94825417699715	133.93678724663846
88.82773671876713	129.00124635078402
89.71601408595481	124.24468254475437
90.61317422681435	119.65999320852352
91.5193059690825	115.24288852220057
92.43449902877332	110.98532103394363
