#wavelength	surface flux
0.8	1752952.671166018
0.8002000000000001	1775588.7045815666
0.8004000500000003	1800444.5486869295
0.8006001500125003	1825328.971865343
0.8008003000500035	1850219.6161495529
0.8010005001250161	1875116.4830948454
0.8012007502500472	1900019.5742568383
0.8014010504376099	1922205.5398368041
0.8016014007002193	1943484.8124057113
0.8018018010503944	1964769.4047927605
0.8020022515006572	1986059.318327916
0.8022027520635323	2007354.554341437
0.8024033027515483	2029521.0974747643
0.8026039035772362	2052541.8121385416
0.8028045545531306	2075568.281980986
0.8030052556917691	2098600.508440902
0.803206007005692	2121638.4929574127
0.8034068085074435	2145482.8748096037
0.8036076602095705	2171577.523062712
0.8038085621246229	2197678.694977863
0.8040095142651542	2223786.392186009
0.8042105166437206	2249900.6163184484
0.8044115692728815	2275932.60211249
0.8046126721651998	2298153.0753777903
0.8048138253332411	2320379.1037613894
0.8050150287895745	2342610.6886521047
0.805216282546772	2364847.831439037
0.8054175866174087	2387090.533511654
0.8056189410140631	2410497.507958679
0.8058203457493168	2434238.3247124194
0.8060218008357541	2457985.0766703174
0.8062233062859632	2481737.765316217
0.8064248621125346	2505496.392134262
0.806626468328063	2532267.325779862
0.8068281249451449	2561627.0578657123
0.8070298319763813	2590994.1298846207
0.8072315894343755	2620368.543671511
0.8074333973317341	2649750.30106186
0.8076352556810671	2674165.696478649
0.8078371644949874	2686614.65148418
0.8080391237861113	2699066.7187284646
0.8082411335670578	2711521.898989553
0.8084431938504498	2723980.19304572
0.8086453046489125	2736298.0999320694
0.8088474659750746	2745947.3409301816
0.8090496778415686	2755598.994238556
0.809251940261029	2765253.060460251
0.8094542532460944	2774909.540198509
0.8096566168094059	2784568.434056691
0.8098590309636085	2798259.5466347877
0.8100614957213493	2812897.2905208715
0.8102640110952797	2827538.693842929
0.8104665770980536	2842183.757515823
0.8106691937423283	2856832.4824546403
0.8108718610407639	2874987.849645432
0.8110745790060241	2895826.3006794946
0.8112773476507757	2916669.961326333
0.8114801669876885	2937518.832888329
0.8116830370294355	2958372.9166682023
0.8118859577886929	2977206.305058103
0.8120889292781401	2991836.500398475
0.8122919515104597	3006470.353287681
0.8124950244983374	3021107.8646401097
0.8126981482544621	3035749.035370375
0.8129013227915257	3050863.249342907
0.8131045481222237	3071355.748403154
0.8133078242592543	3091853.370588168
0.8135111512153191	3112356.1171787228
0.813714529003123	3132863.989455927
0.8139179576353739	3153376.9887012052
0.8141214371247829	3227603.6265201047
0.8143249674840641	3312263.804517683
0.814528548725935	3396945.1475597094
0.8147321808631167	3481647.660937611
0.8149358639083326	3566371.3499438306
0.8151395978743097	3623452.882163456
0.8153433827737784	3661858.173156576
0.8155472186194719	3700273.065472431
0.8157511054241268	3738697.561511358
0.815955043200483	3777131.66367432
0.8161590319612831	3807794.3192576915
0.8163630717192736	3824206.805496388
0.8165671624872033	3840623.3948566266
0.8167713042778252	3857044.088364221
0.8169754971038948	3873468.8870452004
0.8171797409781707	3883936.910174274
0.8173840359134155	3846819.9851458417
0.8175883819223938	3809693.7808861947
0.8177927790178745	3772558.2950754617
0.8179972272126291	3735413.525393266
0.8182017265194322	3698259.469518688
0.8184062769510622	3714240.529761915
0.8186108785203001	3738403.7225663806
0.8188155312399301	3762572.9561690143
0.8190202351227402	3786748.232080076
0.819224990181521	3810929.5518100997
0.8194297964290664	3893656.870025608
0.8196346538781738	4011689.7229966065
0.8198395625416434	4129752.0841808002
0.8200445224322789	4247843.96095534
0.820249533562887	4365965.360699039
0.8204545959462778	4457379.033028423
0.8206597095952644	4505782.664215421
0.8208648745226633	4554198.396310253
0.8210700907412941	4602626.232338102
0.8212753582639793	4651066.1753249075
0.8214806771035456	4686378.381499803
0.8216860472728215	4640741.950581949
0.8218914687846397	4595094.110556365
0.822096941651836	4549434.85857075
0.822302465887249	4503764.191772165
0.8225080415037209	4458082.107306856
0.8227136685140968	4510877.155367972
0.8229193469312254	4574865.911362758
0.8231250767679583	4638870.664546564
0.8233308580371503	4702891.418918631
0.8235366907516598	4766928.178479338
0.8237425749243477	4838240.483263959
0.8239485105680789	4913418.297841318
0.824154497695721	4988614.906872273
0.824360536320145	5063830.315055501
0.8245666264542252	5139064.52709077
0.8247727681108388	5207345.5383341545
0.8249789613028664	5265658.390227343
0.8251852060431922	5323985.820333554
0.825391502344703	5382327.832297267
0.8255978502202894	5440684.429764023
0.8258042496828445	5494811.156778271
0.8260107007452654	5528337.898506558
0.8262172034204517	5561873.021920242
0.8264237577213068	5595416.529114789
0.8266303636607373	5628968.422186149
0.8268370212516525	5662528.703230761
0.8270437305069654	5660192.27568222
0.8272504914395923	5655049.513918752
0.8274573040624523	5649905.466464841
0.8276641683884679	5644760.132999072
0.8278710844305652	5639613.513199929
0.8280780522016729	5670060.198110049
0.8282850717147234	5716784.7164886305
0.8284921429826521	5763520.915996759
0.8286992660183978	5810268.7995548025
0.8289064408349024	5857028.370083702
0.8291136674451112	5889534.261631925
0.8293209458619727	5904060.364332164
0.8295282760984382	5918590.098558058
0.829735658167463	5933123.465217525
0.8299430920820048	5947660.465218639
0.8301505778550254	5964668.0248062415
0.8303581154994891	5991526.057710596
0.8305657050283641	6018390.805123204
0.8307733464546212	6045262.268722645
0.8309810397912352	6072140.450188029
0.8311887850511829	6099025.351198726
0.8313965822474458	6198714.013374127
0.8316044313930077	6301806.493416671
0.8318123325008561	6404924.74657932
0.8320202855839813	6508068.77930521
0.8322282906553774	6611238.598039291
0.8324363477280413	6656364.236161487
0.8326444568149735	6678122.389399599
0.8328526179291771	6699885.9821759965
0.8330608310836596	6721655.015850619
0.8332690962914304	6743429.491783633
0.8334774135655034	6760523.065811867
0.833685782918895	6772386.111387388
0.8338942043646247	6784252.122724296
0.834102677915716	6796121.100564046
0.834311203585195	6807993.045648247
0.8345197813860912	6840656.06133269
0.8347284113314379	6943301.9401907995
0.8349370934342709	7045973.4805185655
0.8351458277076294	7148670.6887312895
0.8353546141645565	7251393.571246238
0.8355634528180977	7354142.134481771
0.8357723436813022	7264955.5236505745
0.8359812867672226	7173376.38864936
0.8361902820889144	7081774.358864442
0.8363993296594368	6990149.428572051
0.8366084294918518	6898501.592047055
0.8368175815992247	6950847.838590925
0.8370267859946247	7052808.104004622
0.8372360426911234	7154793.859484642
0.8374453517017962	7256805.111403521
0.8376547130397217	7358841.866135367
0.8378641267179816	7422998.648901119
0.8380735927496613	7449559.3799947025
0.8382831111478488	7476126.751271045
0.8384926819256358	7502700.764390191
0.8387023050961173	7529281.42101264
0.8389119806723914	7557335.075896411
0.8391217086675596	7589522.540955329
0.8393314890947265	7621718.052880488
0.8395413219670003	7653921.613683632
0.8397512072974922	7686133.225376998
0.8399611450993165	7720421.429607145
0.8401711353855914	7857441.144851969
0.8403811781694378	7994495.115025568
0.8405912734639802	8131583.348691744
0.8408014212823464	8268705.854416401
0.8410116216376671	8405862.640767472
0.8412218745430766	8531290.786707362
0.8414321800117124	8653327.731083592
0.8416425380567154	8775395.184695974
0.8418529486912297	8897493.15517179
0.8420634119284025	9019621.65014012
0.8422739277813847	9097948.540614925
0.8424844962633302	9137677.199602114
0.842695117387396	9177415.790754
0.8429057911667428	9217164.316553675
0.8431165176145345	9256922.77948482
0.8433272967439382	9290248.827895684
0.8435381285681244	9307868.519615147
0.8437490131002665	9325492.616257537
0.8439599503535415	9343121.118924078
0.84417094034113	9360754.028716296
0.8443819830762154	9381245.752271378
0.8445930785719846	9459244.842283897
0.8448042268416277	9537263.432068877
0.8450154278983382	9615301.526501294
0.8452266817553128	9693359.130457312
0.8454379884257517	9771436.248814328
0.8456493479228583	9850778.677231088
0.845860760259839	9930440.942647226
0.846072225449904	10010123.123629717
0.8462837435062666	10089825.225157471
0.8464953144421433	10169547.252210654
0.8467069382707537	10223316.983883867
0.8469186150053215	10256855.605564794
0.847130344659073	10290402.61190115
0.8473421272452377	10323958.004989056
0.8475539627770492	10357521.786925267
0.8477658512677435	10393320.750693828
0.8479777927305605	10433856.961423138
0.8481897871787432	10474403.306205122
0.848401834625538	10514959.787573323
0.8486139350841944	10555526.408061842
0.8488260885679657	10587817.558010828
0.8490382950901076	10519118.109499793
0.8492505546638802	10450401.486126596
0.8494628673025462	10381667.68359758
0.8496752330193721	10312916.697617829
0.8498876518276269	10244148.523891676
0.8501001237405839	9756809.409048386
0.8503126487715191	9185797.78011919
0.850525226933712	8614643.39828308
0.8507378582404455	8043346.2278515175
0.8509505427050057	7471906.233127014
0.8511632803406821	7120852.565668437
0.8513760711607672	6920733.2454753155
0.8515889151785576	6720563.895451835
0.8518018124073523	6520344.503091017
0.8520147628604541	6320075.055882227
0.8522277665511693	6332054.049954753
0.8524408234928071	6736656.468504052
0.8526539336986805	7141360.037658095
0.8528670971821053	7546164.782704454
0.8530803139564007	7951070.728936596
0.8532935840348901	8380780.338282974
0.8535069074308987	9019222.07531418
0.8537202841577566	9657823.422780182
0.8539337142287962	10296584.420583121
0.8541471976573534	10935505.108635113
0.8543607344567677	11574585.526859233
0.8545743246403821	11844977.957088672
0.8547879682215422	12056860.745720167
0.8550016652135977	12268796.505048795
0.8552154156299011	12480785.248317264
0.8554292194838088	12692826.988771705
0.8556430767886797	12840282.698515207
0.855856987557877	12948528.153620657
0.8560709518047664	13056800.670089815
0.8562849695427177	13165100.25468813
0.8564990407851035	13273426.914182628
0.8567131655452999	13373158.398109527
0.8569273438366862	13458786.958682701
0.8571415756726455	13544436.926396033
0.8573558610665638	13630108.306601325
0.8575702000318304	13715801.104651574
0.8577845925818384	13805633.378342265
0.857999038729984	13921210.98275058
0.8582135384896665	14036817.48155997
0.858428091874289	14152452.881994069
0.8586426988972576	14268117.191278243
0.8588573595719821	14383810.41663978
0.8590720739118751	14406490.200861128
0.8592868419303532	14418205.682250679
0.8595016636408359	14429924.092510575
0.8597165390567462	14441645.432373032
0.8599314681915105	14453369.702570459
0.8601464510585584	14279212.818412354
0.860361487671323	14006346.420084162
0.8605765780432408	13733411.805156467
0.8607917221877518	13460408.956574816
0.8610069201182988	13187337.857281094
0.8612221718483286	12659099.68357857
0.8614374773912907	11762969.998021511
0.8616528367606385	10866616.28004331
0.8618682499698288	9970038.473635044
0.8620837170323213	9073236.522775326
0.8622992379615795	8319690.153417655
0.8625148127710699	8275981.868764781
0.8627304414742627	8232262.657040741
0.8629461240846313	8188532.515513762
0.8631618606156526	8144791.441451398
0.8633776510808066	8101039.432120525
0.8635934954935769	8651947.85489311
0.8638093938674504	9251740.292522904
0.8640253462159173	9851682.678262083
0.8642413525524714	10451775.049597684
0.8644574128906095	11052017.444025993
0.8646735272438323	11027377.763465941
0.8648896956256433	10712074.66111952
0.8651059180495498	10396692.732997492
0.8653221945290621	10081231.959393738
0.8655385250776946	9765692.32059614
0.8657549097089641	9718278.260114491
0.8659713484363913	10014213.01719182
0.8661878412735006	10310221.757958554
0.866404388233819	10606304.500910439
0.8666209893308775	10902461.264547925
0.8668376445782103	11147995.873776944
0.8670543539893549	11186674.965139503
0.8672711175778525	11225363.72627493
0.8674879353572469	11264062.159600597
0.8677048073410862	11302770.26753461
0.8679217335429217	11341488.052495632
0.8681387139763074	11555988.841561789
0.8683557486548015	11779275.226772273
0.8685728375919655	12002617.433579333
0.8687899808013633	12226015.475937609
0.8690071782965637	12449469.367806762
0.869224430091138	12421029.135803875
0.8694417361986609	12290063.662393413
0.8696590966327107	12159065.447614629
0.869876511406869	12028034.483282143
0.8700939805347206	11896970.761208639
0.8703115040298544	11820597.234550428
0.870529081905862	11806768.790091971
0.8707467141763385	11792936.888522403
0.8709644008548827	11779101.528977444
0.8711821419550964	11765262.710592607
0.8713999374905854	11775639.914893597
0.871617787474958	11869609.550442675
0.8718356919218269	11963602.678400723
0.8720536508448075	12057619.304640768
0.8722716642575187	12151659.435037317
0.8724897321735832	12245723.075466508
0.8727078546066265	12369073.671279334
0.8729260315702784	12492900.297651144
0.873144263078171	12616757.880679416
0.8733625491439405	12740646.428103456
0.8735808897812266	12864565.9476644
0.8737992850036719	12871123.776205856
0.874017734824923	12836104.690432748
0.8742362392586293	12801076.84988821
0.874454798318444	12766040.252383538
0.8746734120180236	12730994.895729491
0.8748920803710283	12734780.57193368
0.875110803391121	12777597.486808399
0.8753295810919689	12820425.10591186
0.875548413487242	12863263.431920098
0.8757673005906139	12906112.467509842
0.8759862424157616	13044326.203682378
0.8762052389763657	13458485.758517701
0.8764242902861098	13872748.85324145
0.8766433963586814	14287115.513738988
0.8768625572077712	14701585.76590178
0.8770817728470732	15111274.198318329
0.8773010432902849	15139622.434845926
0.8775203685511077	15167977.758432698
0.8777397486432454	15196340.17085033
0.8779591835804065	15224709.6738711
0.8781786733763015	15253086.269267587
0.8783982180446457	14870969.180111434
0.878617817599157	14366640.252866628
0.8788374720535569	13862185.243390247
0.8790571814215703	13357604.120161625
0.8792769457169257	12852896.851652185
0.879496764953355	12573858.379209436
0.8797166391445934	12497754.658251688
0.8799365683043796	12421631.911363695
0.8801565524464557	12345490.133788982
0.8803765915845676	12269329.320769804
0.8805966857324639	12280803.00087659
0.880816834903897	12512438.947673231
0.881037039112623	12744132.803456664
0.8812572983724012	12975884.58270402
0.8814776126969944	13207694.299896292
0.8816979821001687	13440424.59846725
0.8819184065956938	13693519.510281315
0.8821388861973429	13946677.695823597
0.8823594209188923	14199899.170912018
0.882580010774122	14453183.9513691
0.8828006557768155	14706532.053021433
0.8830213559407598	15195819.165217897
0.8832421112797452	15744553.725389704
0.8834629218075651	16293425.469201224
0.8836837875380171	16842434.43094886
0.8839047084849018	17391580.644937024
0.884125684662023	17204672.138290726
0.8843467160831886	16427753.033295978
0.8845678027622095	15650639.698524982
0.8847889447129001	14873332.085420147
0.8850101419490785	14095830.145412177
0.8852313944845657	14009833.46342225
0.885452702333187	15437860.942577392
0.8856740655087704	16866245.428602114
0.8858954840251476	18294987.01074796
0.8861169578961539	19724085.778288677
0.886338487135628	20966640.601946943
0.886560071757412	19722335.512449816
0.8867817117753515	18477719.34668034
0.8870034072032955	17232792.026868865
0.8872251580550963	15987553.475228893
0.8874469643446101	14742003.613950245
0.8876688260856963	14955575.085916096
0.8878907432922178	15471248.256023314
0.8881127159780409	15987050.344422724
0.8883347441570356	16502981.383344859
0.8885568278430749	17019041.405026183
0.8887789670500358	17028804.953750454
0.8890011617917983	16679326.049237465
0.8892234120822464	16329759.77499819
0.8894457179352669	15980106.109190637
0.8896680793647509	15630365.029966356
0.8898904963845921	15315179.107426258
0.8901129690086883	15066013.36574639
0.8903354972509405	14816785.332631161
0.8905580811252535	14567494.99250746
0.8907807206455347	14318142.329799065
0.8910034158256963	14049180.996182816
0.8912261666796527	13605467.552781152
0.8914489732213227	13161643.181018513
0.8916718354646282	12717707.853162495
0.8918947534234944	12273661.541474946
0.8921177271118502	11829504.21820975
0.8923407565436284	11413150.57141371
0.8925638417327644	11001246.485390328
0.8927869826931977	10589239.4233453
0.8930101794388711	10177129.359534787
0.8932334319837308	9764916.268208388
0.8934567403417267	9610779.467282444
0.8936801045268123	9617032.202657072
0.8939035245529441	9623286.501215538
0.8941270004340824	9629542.363348646
0.894350532184191	9635799.789447285
0.8945741198172371	10112273.785114005
0.8947977633471915	11368662.396427888
0.8950214627880284	12625365.104894549
0.8952452181537254	13882381.989037577
0.8954690294582639	15139713.127402397
0.8956928967156286	16284590.232594986
0.8959168199398075	16697927.033293586
0.8961407991447926	17111367.168192465
0.8963648343445789	17524910.663125057
0.896588925553165	17938557.54393115
0.8968130727845534	18352307.8364575
0.8970372760527496	18319965.192961805
0.8972615353717629	18231786.311897833
0.8974858507556059	18143585.38611358
0.8977102222182949	18055362.41009791
0.8979346497738496	17967117.378338184
0.8981591334362931	18296027.31942146
0.8983836732196523	18853163.798628688
0.8986082691379572	19410439.56195535
0.8988329212052417	19967854.644222848
0.8990576294355432	20525409.08026139
0.8992823938429022	20678179.071329586
0.8995072144413631	20228916.97229996
0.8997320912449734	19779542.557745736
0.8999570242677847	19330055.79958798
0.9001820135238516	18880456.669740655
0.9004070590272328	18565538.245519444
0.9006321607919896	18957172.53669292
0.9008573188321878	19348904.73643959
0.9010825331618959	19740734.869236007
0.9013078037951865	20132662.959565688
0.9015331307461353	20524689.031917743
0.9017585140288219	21544750.90219441
0.9019839536573292	22619153.697525382
0.9022094496457435	23693825.093554415
0.9024350020081551	24768765.15743367
0.9026606107586572	25843973.95632855
0.902886275911347	26478552.099671777
0.9031119974803249	26900744.659473605
0.9033377754796951	27323042.76741539
0.903563609923565	27745446.44988397
0.903789500826046	28167955.733273454
0.9040154482012526	27903123.428065244
0.904241452063303	26747697.07080675
0.9044675124263188	25591981.856959198
0.9046936293044254	24435977.714308366
0.9049198027117517	23279684.5706213
0.9051460326624297	22480963.25704009
0.9053723191705955	23205897.24108801
0.9055986622503881	23931012.458631255
0.9058250619159507	24656308.95497892
0.9060515181814298	25381786.775451124
0.9062780310609752	26107445.965377945
0.9065046005687405	26393135.38631888
0.906731226718883	26654341.496386748
0.9069579095255627	26915612.90798179
0.907184649002944	27176949.63742975
0.907411445165195	27438351.70106034
0.9076382980264862	28009024.513858125
0.907865207600993	28708252.424244355
0.9080921739028933	29407655.141607977
0.9083191969463691	30107232.709650822
0.9085462767456058	30806985.172086023
0.9087734133147922	31043438.249898575
0.9090006066681211	30744631.85334512
0.909227856819788	30445750.755192913
0.9094551637839932	30146794.936765764
0.9096825275749393	29847764.379384097
0.9099099482068329	29654634.254117686
0.9101374256938848	29838093.508276258
0.9103649600503083	30021598.627248287
0.9105925512903209	30205149.62250002
0.9108201994281437	30388746.50550076
0.9110479044780008	30572389.28772204
0.9112756664541204	31099567.69946112
0.911503485370734	31634740.324911196
0.9117313612420768	32170046.74351764
0.9119592940823873	32705486.988728568
0.912187283905908	33241061.094000973
0.9124153307268845	32791340.30405501
0.9126434345595664	31983854.03345614
0.9128715954182063	31176165.89129038
0.9130998133170609	30368275.827088676
0.9133280882703902	29560183.79037097
0.913556420292458	28877146.97158744
0.9137848093975312	28323119.03565751
0.9140132555998806	27768952.59274366
0.9142417589137806	27214647.608219054
