#wavelength	surface flux
0.676892	763652.6235516596
0.678297	778720.1343094567
0.679702	789904.4159714351
0.681109	801691.4977800298
0.682517	821289.1843475027
0.683926	839390.6238522511
0.685337	854698.3766149407
0.686749	870170.9388276333
0.688164	884927.0105477178
0.689581	899017.7655734796
0.691	906364.7442070625
0.692422	917500.2354799107
0.693847	941687.0260915156
0.695274	964935.9890013256
0.696705	983107.7146065768
0.698139	999487.4351069315
0.699576	1016408.3669590056
0.701017	1033126.6628730361
0.702461	1048360.8226105315
0.70391	1067533.7989971146
0.705362	1087161.1524269443
0.706819	1104166.325650429
0.70828	1121550.4222832923
0.709745	1139048.5329727924
0.711216	1158578.6228393528
0.71269	1176828.6809114655
0.71417	1194339.6031894598
0.715655	1207366.1903470058
0.717145	1216981.1320817668
0.71864	1241383.73526256
0.72014	1260935.075425154
0.721647	1278043.31798861
0.723158	1295508.9685273436
0.724676	1311022.8748105706
0.726199	1327334.9529259254
0.727728	1347655.1530576064
0.729264	1358863.5152531406
0.730805	1376643.7729691502
0.732353	1399373.3856084305
0.733907	1414676.9377006306
0.735468	1430411.6664421763
0.737035	1443804.2926427491
0.738609	1460610.685339039
0.74019	1472823.503062576
0.741777	1476469.0816291778
0.743372	1481080.1268956473
0.744973	1483229.7398715266
0.746582	1476876.1313905045
0.748197	1463281.3184323371
0.74982	1439161.0459286256
0.751451	1400913.4209567595
0.753088	1342289.5173640295
0.754734	1259050.3593716738
0.756386	1143609.0428269075
0.758047	982699.9871625628
0.759715	777190.6677927588
0.76139	527926.8585417311
0.763074	268638.54579815955
0.764765	83209.51975464923
0.766464	12195.992229551219
0.768172	17223.471004035644
0.769887	20932.920012876948
0.77161	150054.095388629
0.773341	442164.3086587852
0.775081	779101.5881347909
0.776829	1081184.4695115315
0.778585	1245828.8194971182
0.780349	1345631.7052126902
0.782121	1671831.2793311232
0.783902	1877230.9395794382
0.785691	2010476.7280042064
0.787489	2121192.6294971704
0.789295	2214838.217952775
0.79111	2285174.1471689753
0.792933	2028819.0576380102
0.794764	1206342.4585085907
0.796604	2213684.75850093
0.798453	2582642.8007964203
0.80031	2654906.4880092675
0.802176	2718925.512876028
0.804051	2778560.1661553537
0.805934	2834520.4485165095
0.807826	2886161.737757682
0.809727	2917616.33628733
0.811636	2954355.762537185
0.813554	3006711.249242573
0.81548	3097610.220707609
0.817416	3153454.080054838
0.81936	3204810.135066357
0.821313	3269732.396786525
0.823274	3309208.7796198106
0.825244	3391545.9535454554
0.827223	3447836.746812028
0.829211	3490229.265669969
0.831208	3543479.463684523
0.833213	3614505.3317153333
0.835227	3668042.3296291367
0.837249	3706743.9318081597
0.83928	3769207.23832222
0.841321	3860039.134274372
0.843369	3937700.038983637
0.845427	4002037.5365030444
0.847493	4072253.7871720376
0.849567	4128867.667576424
0.851651	4163773.758949357
0.853742	4254056.44810535
0.855843	4347783.311319433
0.857952	4420453.223949423
0.86007	4478979.283435272
0.862196	4370112.178960109
0.864331	4475923.621550345
0.866474	4590974.248757268
0.868626	4686286.874080862
0.870786	4750874.503080537
0.872955	4828877.1373076765
0.875132	4899450.507265229
0.877317	4994525.381293359
0.879511	5005048.92215303
0.881713	5094875.824409629
0.883923	5211676.484192032
0.886142	5274015.695524376
0.888369	5335080.705580535
0.890604	5355363.173023405
0.892847	5311947.283758132
0.895099	5438785.559123843
0.897358	5593357.641622591
0.899626	5723330.2791335
0.901901	5835836.227922538
0.904185	5961739.97888065
0.906476	6040254.293480707
0.908776	6130106.528735567
0.911083	6242063.074206773
0.913398	6280813.070920294
0.915721	6308960.282007704
0.918051	6333076.8343966715
0.92039	6536402.598829791
0.922736	6606325.540603927
0.925089	6443177.898486894
0.927451	5972717.577533871
0.929819	5423538.182572951
0.932195	5955066.367856064
0.934579	5999193.592416525
0.93697	6266285.33069847
0.939369	6662850.746530778
0.941774	6773565.529970971
0.944187	6417701.57271704
0.946607	6344127.968411233
0.949035	6797837.161281994
0.951469	6739999.329966255
0.953911	6933619.843518855
0.956359	7433110.125361458
0.958814	6938232.965755947
0.961277	6736849.313106475
0.963746	6870022.13171998
0.966222	7024111.101011363
0.968705	7009450.125477402
0.971194	7785971.188475905
0.97369	8216242.344132966
0.976193	8148000.350954084
0.978702	8415491.34834402
0.981217	8542186.317854015
0.983739	8697208.28186695
0.986268	8830376.600925755
0.988802	9041318.083448842
0.991343	9236326.525966976
0.99389	9355205.3085296
0.996444	9562745.59807187
0.999003	9655864.846669015
1.00157	9729324.510707783
1.00414	9864468.51172178
1.00672	10063897.722593125
1.0093	10232619.997787815
1.01189	10408919.439437311
1.01448	10613151.230635412
1.01708	10769907.114066014
1.01969	10922725.071773583
1.0223	10997357.895366449
1.02492	11002014.679673867
1.02754	11177003.591102328
1.03017	11175757.217232732
1.0328	11558622.01758527
1.03544	11738657.530458996
1.03808	11878498.773967694
1.04073	12015916.098395824
1.04339	12150299.974264875
1.04604	12288177.884818228
1.04871	12385303.30136471
1.05138	12497032.352017207
1.05405	12683861.922919849
1.05673	12848490.126106316
1.05941	12982145.052067172
1.0621	13107174.386132153
1.06479	13243184.58455324
1.06749	13381434.442310093
1.07019	13469254.34171047
1.07289	13628893.403692884
1.0756	13792437.295629889
1.07832	13908248.571964359
1.08104	14066125.120194206
1.08376	14208650.895821432
1.08649	14304456.849836815
1.08922	14291293.16029552
1.09195	14225790.427492682
1.09469	14228652.05778283
1.09743	14356661.118575161
1.10018	13022472.615959987
1.10293	11743141.405397432
1.10568	10877885.592562037
1.10844	12700070.397224303
1.1112	12102405.342109056
1.11396	11284009.0026555
1.11673	11275023.31184141
1.1195	11582774.565267777
1.12228	10798891.114738725
1.12505	12554092.22390592
1.12783	12659555.692521416
1.13062	12562465.34717164
1.13341	9544923.268688258
1.1362	11474853.385658992
1.13899	13871995.145922512
1.14178	13567088.831652889
1.14458	14267684.479181193
1.14738	15107201.83362254
1.15019	13058083.871578513
1.153	9950418.535935607
1.1558	11098812.315439062
1.15862	11319907.319876255
1.16143	11526480.003466668
1.16425	13184005.29310177
1.16707	14855129.017366014
1.16989	13880091.580539174
1.17271	14343053.350553617
1.17554	15811947.731198383
1.17837	16803682.794341348
1.1812	17206257.881790936
1.18403	18139888.26466445
1.18686	18088033.18074584
1.1897	18103982.90048184
1.19253	18948100.030703105
1.19537	19360705.7003667
1.19822	19563176.795359053
1.20106	19903530.86872927
1.2039	19790703.001286797
1.20675	20106054.720431898
1.2096	20286773.65125506
1.21245	20371304.133422606
1.2153	20817595.867902637
1.21815	21073316.06699761
1.221	21279260.25699802
1.22385	21510320.006636225
1.22671	21749590.018812533
1.22957	21925677.708825976
1.23242	22038383.917509463
1.23528	22247880.667814303
1.23814	22464963.610795096
1.241	22627550.199052777
1.24387	22796094.774980076
1.24673	22962766.497270793
1.24959	23005373.660272602
1.25245	22760118.279300004
1.25532	23344712.785976347
1.25818	23629611.515377514
1.26105	23675868.21250727
1.26392	23755742.940779474
1.26678	23905602.44417319
1.26965	24011113.614208106
1.27252	24046852.458698254
1.27538	24318982.32525981
1.27825	24427322.5154923
1.28112	24376724.63541872
1.28399	24620414.552145064
1.28686	24619972.501609713
1.28973	24376912.622861944
1.2926	24309891.646255318
1.29546	24686114.79937335
1.29833	24934317.02359925
1.3012	24555130.99416457
1.30407	24555745.330382388
1.30694	24540449.73497119
1.30981	25029895.03790937
1.31267	24869573.07029194
1.31554	25409975.668427497
1.31841	25826033.17054611
1.32128	25137221.32392028
1.32414	23913618.464591075
1.32701	23344775.288428277
1.32987	21506908.915701795
1.33274	15772369.534996882
1.3356	11912827.095110977
1.33847	6206717.964935827
1.34133	3408281.217223606
1.34419	6217064.207059502
1.34705	8060540.1088365195
1.34991	6040089.806133397
1.35277	3581169.900890976
1.35563	3628224.67998081
1.35849	4648893.355122986
1.36135	3116316.472831784
1.3642	4971875.7286556605
1.36706	5413664.380159617
1.36991	4985842.945531986
1.37277	8637603.28540042
1.37562	12255385.069268012
1.37847	13148709.705696473
1.38132	6832701.869162164
1.38417	2223699.67989487
1.38701	3720596.5211995924
1.38986	3164552.3700047284
1.39271	3261921.1024003676
1.39555	4342101.487496074
1.39839	3195522.189819773
1.40123	4934809.028954051
1.40407	8192369.801795235
1.40691	10239633.817902796
1.40974	6640466.524813751
1.41258	2904503.9218335603
1.41541	5197649.1678631315
1.41824	6695543.946810249
1.42107	4974751.673723926
1.4239	3564974.1134281056
1.42673	6043041.128077181
1.42955	8328305.24420678
1.43237	5450232.652647984
1.43519	7178361.671384728
1.43801	6057232.709394695
1.44083	7164379.816267846
1.44365	10044737.091579625
1.44646	10284583.477694701
1.44927	14317432.284282196
1.45208	16379414.05887318
1.45489	14133335.490103014
1.45769	16152960.6813345
1.4605	17324018.97467616
1.4633	17514866.161746297
1.4661	18406991.656489465
1.4689	15693273.19258374
1.47169	16310575.552677438
1.47449	16372679.905862123
1.47728	16986386.062101502
1.48007	16797545.303864796
1.48286	19497592.65541407
1.48564	21740012.019370764
1.48842	21353239.33602118
1.4912	21598439.910095647
1.49398	21318943.80339562
1.49676	20405258.92530608
1.49953	22733736.711557824
1.5023	24810892.678614438
1.50507	24782645.15672156
1.50784	23895920.66919277
1.51061	24153083.25039565
1.51337	24994927.045083128
1.51613	26063111.098999728
1.51888	27409839.818594027
1.52164	29437345.03605508
1.52439	30351082.45035392
1.52714	29439949.178127725
1.52989	29164072.14687389
1.53263	30093679.598588053
1.53538	31219543.172417026
1.53812	31314437.14286767
1.54086	31121122.48250943
1.54359	31344820.186705917
1.54632	32253821.459555488
1.54905	32436554.881441172
1.55178	33183464.097085085
1.5545	33072674.713602114
1.55723	32441567.481906384
1.55995	32523429.1051663
1.56266	33209595.050598074
1.56538	34325738.21109471
1.56809	34880598.760597244
1.5708	34853807.09691778
1.57351	34385011.80560056
1.57621	34053511.12658598
1.57891	33222168.63995137
1.58161	34193592.060994
1.5843	35879081.28699961
1.587	36213534.282455355
1.58969	36173657.27805263
1.59238	36199566.47470891
1.59506	36004653.53736677
1.59774	35725948.90402703
1.60042	35794881.96614916
1.6031	36125368.61917295
1.60577	36379503.59320872
1.60844	36498459.312273875
1.61111	36412362.23686714
1.61378	36242887.907386005
1.61644	36376969.66118593
1.6191	36207579.56680919
1.62176	36038810.11670596
1.62441	36388056.20465544
1.62707	36371362.51820486
1.62971	35854248.1971442
1.63236	35620364.12050269
1.635	36670067.832654595
1.63764	38010839.730199285
1.64028	38430067.022268124
1.64292	38462252.33612603
1.64555	38166830.28638428
1.64818	37303163.70138138
1.65081	37156708.63728078
1.65343	37915054.17142685
1.65605	38266022.66493585
1.65867	38260104.86671014
1.66128	37879821.60718111
1.6639	36526171.76754881
1.66651	33705472.300993666
1.66911	33441689.916323923
1.67172	36233449.94557977
1.67432	38236791.794182636
1.67692	38359428.381089315
1.67951	37918751.463805854
1.68211	38058400.001588315
1.6847	38219695.22820684
1.68728	37871068.37106225
1.68987	37356752.15454946
1.69245	36299525.726877175
1.69503	34545273.87556248
1.6976	33776481.402379274
1.70018	35175378.45751114
1.70275	35359798.593727715
1.70531	35262780.57957033
1.70788	35845043.63750738
1.71044	35509944.28852645
1.713	35613745.69629985
1.71556	35976606.86288504
1.71811	36609495.9631725
1.72066	37108854.79072684
1.72321	36725080.82280816
1.72575	36411085.375537105
1.7283	35822114.37273325
1.73084	34675354.88782069
1.73337	33405554.988750372
1.73591	32407097.780416198
1.73844	31875353.90437449
1.74097	31673697.334557414
1.74349	30287425.10595261
1.74602	28543933.862893436
1.74854	27702544.13132552
1.75105	25938731.517244864
1.75357	23342496.52478239
1.75608	25267411.955927342
1.75859	30105927.918036006
1.7611	32377087.71132179
1.7636	31780132.53498139
1.7661	27692753.610650547
1.7686	23739885.774354685
1.7711	20465165.834547322
1.77359	16836441.86377012
1.77608	12265131.186552655
1.77857	9976257.752515739
1.78105	11417648.83130724
1.78354	12886177.018775392
1.78602	10767667.353067674
1.78849	9059074.894584935
1.79097	10713894.455442745
1.79344	12905675.142209481
1.79591	14087155.793799082
1.79837	15417235.383940326
1.80084	11097353.610972159
1.8033	7551808.962233127
1.80576	4546655.827049658
1.80821	3282323.2309538326
1.81067	6699986.460932179
1.81312	9955202.75167619
1.81557	6521778.343755005
1.81801	4164239.763273746
1.82046	7323604.721829776
1.8229	10669035.502708565
1.82533	8085263.930675681
1.82777	3932526.5708873803
1.8302	3476468.6522554075
1.83263	5442650.039811067
1.83506	7421400.275314074
1.83749	9658726.028721184
1.83991	11167107.410716172
1.84233	9958165.757081687
1.84475	9362110.917957556
1.84716	9824142.658341382
1.84957	10460437.788354913
1.85198	9248331.335235698
1.85439	5451662.63497463
1.8568	4677153.521210946
1.8592	5886758.473510741
1.8616	4920358.345395515
1.864	3442446.3308577994
1.86639	3880842.9955465775
1.86878	5564872.2403731905
1.87118	7745604.8319226885
1.87356	9996879.787622169
1.87595	10911234.474792503
1.87833	12833016.133212088
1.88071	16569197.831994997
1.88309	16076283.07451398
1.88547	13598992.257877965
1.88784	13234345.250362435
1.89021	12697455.675393444
1.89258	16669408.242061196
1.89494	19439261.01240906
1.89731	14570934.462958451
1.89967	8439811.397887155
1.90203	4895945.873935594
1.90439	4633563.718957635
1.90674	6719755.812241925
1.90909	7414250.026928553
1.91144	5347117.974327616
1.91379	3097833.478085744
1.91613	2804310.9062993103
1.91848	4124042.001363011
1.92082	5650174.599222242
1.92315	5475024.056038216
1.92549	4268567.968958321
1.92782	4761906.000555946
1.93015	6295284.269251347
1.93248	7375123.294022658
1.93481	7440606.692714652
1.93713	6567870.736572363
1.93945	6166646.515192433
1.94177	6968406.766513275
1.94409	7711792.830414521
1.94641	7648944.121905429
1.94872	8324790.737982798
1.95103	9464849.417467495
1.95334	7038975.176196256
1.95564	5726245.585539823
1.95795	6664479.676272494
1.96025	7043047.215282368
1.96255	7124709.340166547
1.96484	7844042.733720203
1.96714	9777429.16397765
1.96943	12278449.679549202
1.97172	13536874.498667657
1.97401	12572051.935836488
1.97629	13136676.644518193
1.97858	15385551.543435289
1.98086	16685425.709729258
1.98314	18065539.410924602
1.98541	18932073.45911025
1.98769	17855244.639597367
1.98996	15089726.445129616
1.99223	14407679.70916997
1.9945	15989299.659440003
1.99677	15444809.590681555
1.99903	15308166.105575973
2.00129	17583590.7670786
2.00355	20650700.856630392
2.00581	22121787.12022853
2.00806	22257867.829689585
2.01031	24828392.89059937
2.01256	26367292.862495184
2.01481	24976942.023417722
2.01706	23003687.866733793
2.0193	22865691.646563612
2.02154	25192940.18153662
2.02378	27933834.302869037
2.02602	28773336.775351718
2.02825	29409461.076933976
2.03049	30258639.21395575
2.03272	31355816.26715749
2.03494	32445325.046577867
2.03717	33130323.754207198
2.03939	33488457.17185338
2.04162	34594911.20432088
2.04384	35567141.64502839
2.04605	36649825.25059867
2.04827	37737924.55077748
2.05048	37960111.75256665
2.05269	36596083.87769812
2.0549	36246045.77386505
2.05711	36825133.438399084
2.05931	37785063.518425874
2.06151	38596123.95719187
2.06371	39271345.643652655
2.06591	39768563.045975596
2.06811	40144392.537964605
2.0703	40301626.42395386
2.07249	40181671.495841764
2.07468	39789344.757044
2.07686	39783804.17416189
2.07905	40058253.563553914
2.08123	40395711.023550846
2.08341	40694231.45245179
2.08559	40979594.46632436
2.08776	41166592.71088952
2.08994	41080020.30519767
2.09211	40837039.08444945
2.09428	40633888.368989944
2.09645	40829324.27519595
2.09861	40920873.398475684
2.10077	40882644.80335907
2.10293	40693749.49509302
2.10509	40372352.231531985
2.10725	40108054.31499933
2.1094	40651541.766957186
2.11155	41267570.07215159
2.1137	41605636.788102664
2.11585	41351224.479988575
2.11799	41143448.22409534
2.12013	41199773.74124577
2.12227	41418890.25134049
2.12441	41683937.544548824
2.12655	41763161.065065764
2.12868	41764753.38619593
2.13081	41805638.8948854
2.13294	41881701.96490859
2.13507	41761671.349707335
2.13719	41396954.239284836
2.13931	41090400.31490582
2.14143	40884252.61109786
2.14355	40690387.493341014
2.14567	40570832.42101026
2.14778	40436540.4248073
2.14989	40238880.40980294
2.152	39887820.15107465
2.1541	39951185.331075564
2.15621	40107588.12851136
2.15831	40203252.996460974
2.16041	39918718.94779735
2.16251	39795080.07478521
2.1646	39693271.03659853
2.1667	39594971.40844681
2.16879	39577290.81921715
2.17087	39466849.066780515
2.17296	39275386.17372868
2.17504	39015489.75657139
2.17713	38903819.243429415
2.1792	38851106.2564836
2.18128	38773508.124567784
2.18336	38575149.60512384
2.18543	38228088.74455611
2.1875	37834150.959226884
2.18957	37305010.96971059
2.19163	36225588.25910298
2.1937	34304262.54256639
2.19576	32114632.25122686
2.19782	29881059.891887553
2.19987	28670044.114752803
2.20193	27923810.366766084
2.20398	27564110.605039954
2.20603	27459193.87149915
2.20808	27931239.637021936
2.21012	28685345.687055174
2.21217	29643251.45891646
2.21421	30092434.894457195
2.21625	30067114.218904562
2.21828	29641449.711102575
2.22032	29522593.78945329
2.22235	29366470.97228832
2.22438	28976029.53872244
2.22641	27812413.886736326
2.22843	26515645.065050118
2.23046	25396863.89074672
2.23248	24726923.558020756
2.2345	24608035.24407837
2.23651	24503042.95176998
2.23853	24328216.767335515
2.24054	23215331.245143995
2.24255	21886606.008275636
2.24456	20464050.536100056
2.24657	20466904.426147282
2.24857	21240152.245554935
2.25057	22462013.76611931
2.25257	23128142.473953042
2.25457	23617562.684093263
2.25656	23990517.676729172
2.25856	24278157.043392114
2.26055	23656721.921509262
2.26254	22491358.630774885
2.26453	20819414.809544824
2.26651	19725240.334139466
2.2685	19162342.6416342
2.27048	19729204.301573053
2.27246	20678364.843778674
2.27443	21590946.54558433
2.27641	21721332.00743473
2.27838	21174078.387405764
2.28036	20351457.192169573
2.28233	19717863.722593218
2.28429	19294219.03222449
2.28626	18934830.886786424
2.28823	18314130.37629461
2.29019	17457969.514253523
2.29215	16432227.364889527
2.29411	15198799.931521626
2.29607	13994164.852334958
2.29802	12821432.321495505
2.29998	12018998.206572158
2.30193	11444273.71577161
2.30388	11125109.879274959
2.30583	11158302.57195217
2.30778	11370345.654031685
2.30972	11831741.580866158
2.31167	12035440.780455563
2.31361	11828132.303718548
2.31555	10586968.68115041
2.31749	9316783.976914944
2.31943	8161798.287733064
2.32137	7914850.097286072
2.32331	7794278.009957832
2.32524	7774441.525197196
2.32718	7756591.162689354
2.32911	7836142.332821009
2.33104	8056067.734283861
2.33297	8302443.502466568
2.3349	8553449.2962156
2.33683	8801267.85499864
2.33876	9039795.068912316
2.34068	9267593.526129413
2.34261	9425872.431530843
2.34453	9587256.081995433
2.34646	9753951.59520353
2.34838	9902196.828767123
2.3503	10122176.927245839
2.35223	10544240.277356513
2.35415	10930198.472224033
2.35607	11298852.781416012
2.35799	11656420.061979748
2.35991	12229278.189472163
2.36183	13061970.097740212
2.36375	13037962.659008963
2.36566	12438130.482812518
2.36758	10388484.69517158
2.3695	8910515.566182181
2.37142	7799005.833764564
2.37334	8440461.615075527
2.37526	8718917.235859163
2.37718	8377076.205905249
2.3791	7991902.401723237
2.38101	7745520.1965365745
2.38293	8607713.721037807
2.38485	9829526.851131577
2.38677	11418530.525882673
2.3887	12387170.988485277
2.39062	13015248.088147152
2.39254	12895243.372951351
2.39446	12288750.855150336
2.39639	11365624.141868185
2.39831	10671866.26694257
2.40024	10099375.792099692
2.40216	9754498.777088724
2.40409	9799903.420175783
2.40602	10053035.977674562
2.40795	10869390.183784839
2.40989	11559779.784148376
2.41182	12087311.885486187
2.41376	12439839.488651508
2.4157	12825882.722734865
2.41764	13536760.162080325
2.41958	14006364.536194641
2.42152	14279793.614279957
2.42347	13649420.270856466
2.42542	13025955.087367946
