#wavelength	surface flux
0.7	130569434.17434695
0.7001166666666666	133746487.82395545
0.7002333527777778	134048076.13639894
0.700350058336574	134349714.71356103
0.7004667833462966	134651403.56381893
0.7005835278101878	134953142.6955527
0.7007002917314895	135254932.11714128
0.7008170751134447	135556771.83696675
0.7009338779592968	135858661.86341202
0.7010507002722901	135471679.99790666
0.7011675420556689	134246261.11110702
0.701284403312678	133020637.98782822
0.7014012840465635	131794810.59402713
0.7015181842605713	130568778.89566064
0.701635103957948	129342542.85867862
0.701752043141941	128116102.44902399
0.701869001815798	126889457.63263264
0.7019859799827672	123733002.16343443
0.7021029776460976	119233123.34652397
0.7022199948090387	114732494.54980496
0.7023370314748403	110231115.64828852
0.7024540876467528	105728986.51695585
0.702571163328027	101226107.03077538
0.7026882585219152	96722477.06466854
0.7028053732316688	92218096.49357381
0.7029225074605406	91431561.78162014
0.7030396612117841	92080816.66284661
0.7031568344886527	92730179.75322007
0.7032740272944008	93379651.07077484
0.7033912396322832	94029230.63354954
0.7035084715055552	94678918.45958406
0.7036257229174727	95328714.56692316
0.7037429938712924	95978618.97361408
0.7038602843702709	97857001.98677474
0.7039775944176659	99944038.65380792
0.7040949240167356	102031423.16028644
0.7042122731707383	104119155.56418163
0.7043296418829335	106207235.92347862
0.7044470301565806	108295664.29616848
0.70456443799494	110384440.74025218
0.7046818654012724	112473565.3137445
0.7047993123788394	112931567.39147823
0.7049167789309024	113387773.61788139
0.7050342650607243	113844055.8786563
0.7051517707715678	114300414.18647447
0.7052692960666963	114756848.55401039
0.705386840949374	115213358.9939407
0.7055044054228656	115669945.51894507
0.7056219894904361	115942663.53268042
0.7057395931553511	115046478.59086272
0.705857216420877	114150144.28488734
0.7059748592902804	113253660.58986148
0.7060925217668288	112357027.48088555
0.70621020385379	111460244.93305826
0.7063279055544321	110563312.92147413
0.7064456268720246	109666231.42122003
0.7065633678098366	109182394.95498398
0.7066811283711383	109836974.01404722
0.7067989085592001	110491662.16962029
0.7069167083772933	111146459.43988554
0.7070345278286895	111801365.8430296
0.707152366916661	112456381.39724098
0.7072702256444803	113111506.12071064
0.7073881040154211	113766740.0316351
0.7075060020327569	113866646.49794684
0.7076239196997625	113157660.91341989
0.7077418570197124	112448557.16462955
0.7078598139958823	111739335.23188111
0.7079777906315483	111029995.09547654
0.7080957869299869	110320536.73571645
0.7082138028944751	109610960.13289675
0.7083318385282908	108901265.26730941
0.7084498938347124	109016299.39263244
0.708567968817018	109830675.06290965
0.7086860634784875	110645186.46246617
0.7088041778224007	111459833.61392328
0.7089223118520377	112274616.53990456
0.7090404655706796	113089535.2630397
0.709158638981608	113904589.80596298
0.709276832088105	114719780.19131023
0.7093950448934531	114953433.16003919
0.7095132774009353	114909718.80779201
0.7096315296138355	114865997.16981943
0.7097498015354378	114822268.2449072
0.7098680931690269	114778532.03184088
0.7099864045178884	114734788.52940564
0.7101047355853081	114691037.73638667
0.7102230863745722	114647279.65156889
0.7103414568889679	113188750.08797398
0.7104598471317828	111408509.68125312
0.7105782571063047	109627972.56779915
0.7106966868158224	107847138.69815968
0.710815136263625	106066008.02287562
0.7109336054530023	104284580.49247791
0.7110520943872445	102502856.05749243
0.7111706030696424	100720834.66843338
0.7112891315034873	100552897.97042403
0.7114076796920712	100461960.08297569
0.7115262476386865	100371007.03921278
0.7116448353466263	100280038.83660929
0.711763442819184	100189055.47263867
0.711882070059654	100098056.94477396
0.7120007170713306	100007043.250488
0.7121193838575091	100039330.49739136
0.7122380704214853	101357778.58855355
0.7123567767665555	102676446.42106292
0.7124755028960166	103995334.03154503
0.7125942488131658	105314441.45662789
0.7127130145213015	106633768.73295188
0.7128318000237216	107953315.89715119
0.7129506053237256	109273082.98587972
0.7130694304246129	110118200.808988
0.7131882753296837	109303149.38068987
0.7133071400422386	108487962.1104868
0.7134260245655789	107672638.97573927
0.7135449289030065	106857179.95380235
0.7136638530578235	106041585.0220289
0.7137827970333332	105225854.1577656
0.7139017608328388	104409987.33835848
0.7140207444596443	103899933.99277502
0.7141397479170543	103935579.09502883
0.7142587712083737	103971230.13813299
0.7143778143369084	104006887.12307768
0.7144968773059646	104042550.05085321
0.7146159601188489	104078218.92245002
0.7147350627788687	104113893.73885876
0.7148541852893318	104149574.50107023
0.7149733276535467	104735385.63402629
0.7150924898748222	105876027.57529008
0.715211671956468	107016859.62354434
0.7153308739017941	108157881.81047419
0.715450095714111	109299094.16776797
0.71556933739673	110440496.72712147
0.7156885989529628	111582089.52023472
0.7158078803861218	112723872.57881519
0.7159271816995193	111329009.08189477
0.7160465028964692	108444948.14454904
0.7161658439802853	105560406.53038052
0.7162852049542819	102675384.15927686
0.7164045858217744	99789880.95110956
0.716523986586078	96903896.82574211
0.7166434072505089	94017431.7030219
0.716762847818384	91130485.50278018
0.7168823082930204	89729312.51434064
0.7170017886777359	88765155.70767769
0.7171212889758488	87800838.20821427
0.7172408091906781	86836359.98916732
0.7173603493255433	85871721.02375022
0.7174799093837642	84906921.28517275
0.7175994893686615	83941960.74663846
0.7177190892835562	82976839.38134816
0.7178387091317702	85266262.07453325
0.7179583489166254	87882782.96584834
0.7180780086414448	90499739.9439807
0.7181976883095517	93117133.08160931
0.7183173879242699	95734962.45142777
0.718437107488924	98353228.12614182
0.7185568470068389	100971930.17846933
0.7186766064813399	103516156.54437599
0.7187963859157535	104187838.43660362
0.7189161853134061	104859632.27581325
0.719036004677625	105531538.08066283
0.7191558440117378	106203555.86981279
0.7192757033190732	106875685.66192855
0.7193955826029597	107547927.47567554
0.7195154818667269	108220281.32972538
0.7196354011137046	108574103.0889157
0.7197553403472235	107460889.17625178
0.7198752995706147	106347489.72793622
0.7199952787872098	105233904.71304516
0.720115278000341	104120134.1006517
0.7202352972133411	103006177.85982266
0.7203553364295432	101892035.95962185
0.7204753956522815	100777708.36910275
0.7205954748848902	99929006.89322199
0.7207155741307044	99666179.7192604
0.7208356933930594	99403308.74077028
0.7209558326752915	99140393.95045033
0.7210759919807375	98877435.34099832
0.7211961713127342	98614432.90511174
0.7213163706746197	98351386.63548544
0.7214365900697322	98088296.52481447
0.7215568295014103	97423542.19308427
0.721677088972994	96279476.30616444
0.7217973684878227	95135219.74159871
0.7219176680492374	93990772.46760419
0.7220379876605789	92846134.45239803
0.722158327325189	91701305.66418892
0.7222786870464099	90556286.07118237
0.7223990668275843	89411075.64157651
0.7225194666720555	88230213.85552263
0.7226398865831676	87024023.52354349
0.7227603265642646	85817632.15984525
0.722880786618692	84611039.73091713
0.7230012667497951	83404246.20325166
0.7231217669609201	82197251.54333143
0.7232422872554135	80990055.71763563
0.7233628276366229	79782658.69263345
0.7234833881078956	79829904.6422051
0.7236039686725803	80353574.38497113
0.7237245693340255	80877331.40602677
0.7238451900955812	81401175.71992023
0.7239658309605971	81925107.34119873
0.7240864919324239	82449126.2844148
0.7242071730144127	82973232.56412144
0.724327874209915	83497426.19487359
0.7244485955222832	83122602.89078753
0.7245693369548704	82599057.81614903
0.7246900985110294	82075425.48399885
0.7248108801941148	81551705.87979195
0.7249316820074803	81027898.98898607
0.7250525039544815	80504004.79703088
0.7251733460384739	79980023.28937696
0.7252942082628137	79459027.68058278
0.7254150906308574	80718671.52401653
0.7255359931459625	81978525.30809098
0.7256569158114868	83238589.06779651
0.7257778586307888	84498862.83812927
0.7258988216072273	85759346.65409005
0.7260198047441617	87020040.55068544
0.7261408080449525	88280944.5629324
0.72626183151296	89259782.24369827
0.7263828751515454	88362893.88246468
0.7265039389640706	87465856.03983773
0.726625022953898	86568668.69090311
0.7267461271243904	85671331.81074326
0.7268672514789111	84773845.37443729
0.7269883960208241	83876209.35705939
0.7271095607534942	82978423.73367798
0.7272307456802866	82067090.68730928
0.7273519508045666	81119415.08190963
0.7274731761297006	80171581.5305762
0.7275944216590555	79223590.00698423
0.7277156873959987	78275440.48480467
0.7278369733438982	77327132.9377032
0.727958279506122	76378667.33934644
0.7280796058860397	75430043.66338877
0.7282009524870207	75092290.58453663
0.7283223193124353	75658260.70643516
0.7284437063656539	76224325.15668619
0.7285651136500483	76790483.95101318
0.7286865411689898	77356737.10513805
0.7288079889258514	77923084.63478999
0.7289294569240056	78489526.55569556
0.7290509451668262	79056062.88358861
0.7291724536576875	79444629.67225067
0.7292939823999636	79685716.06138471
0.7294155313970303	79926842.6315841
0.7295371006522632	80168009.38954511
0.7296586901690385	80409216.34196559
0.7297802999507332	80650463.4955447
0.7299019300007252	80891750.85698338
0.7300235803223919	81133078.43298164
0.7301452509191123	80839913.32721964
0.7302669417942654	80299975.30293037
0.7303886529512311	79759947.28897022
0.7305103843933897	79219829.27034092
0.7306321361241218	78679621.23204228
0.7307539081468093	78139323.15906963
0.7308757004648336	77598935.0364193
0.7309975130815778	77058456.84908122
0.7311193460004248	76902080.77418433
0.7312411992247582	76832654.84429891
0.7313630727579622	76763217.34342521
0.7314849666034219	76693768.26963462
0.7316068807645224	76624307.62099844
0.7317288152446498	76554835.39558746
0.7318507700471907	76485351.59147221
0.7319727451755319	76415856.20672296
0.732094740633061	76111137.61538729
0.7322167564231665	75795778.93581428
0.7323387925492371	75480367.69646133
0.7324608490146619	75164903.88856858
0.732582925822831	74849387.50337444
0.7327050229771347	74533818.53211646
0.7328271404809642	74218196.96602961
0.7329492783377112	73854213.3493817
0.7330714365507675	73015236.07899044
0.7331936151235259	72176118.97905433
0.7333158140593796	71336862.02626917
0.7334380333617229	70497465.19732393
0.7335602730339499	69657928.46890683
0.7336825330794556	68818251.81770147
0.7338048135016354	67978435.2203892
0.7339271143038857	67201059.87461938
0.734049435489603	66633244.96877096
0.7341717770621846	66065335.4271048
0.7342941390250283	65497331.23384866
0.7344165213815324	64929232.373227194
0.734538924135096	64361038.829461455
0.7346613472891185	63792750.5867725
0.734783790847	63224367.62937623
0.7349062548121412	62697025.30513283
0.7350287391879431	62242303.52574661
0.7351512439778078	61787505.95939622
0.7352737691851374	61332632.59345199
0.735396314813335	60877683.41527971
0.7355188808658037	60422658.41224514
0.7356414673459482	59967557.57170914
0.7357640742571725	59512380.88103337
0.7358867016028818	59340664.32518365
0.7360093493864824	59448936.51692037
0.7361320176113801	59557226.75402224
0.736254706280982	59665535.03949695
0.7363774153986956	59773861.37635272
0.7365001449679286	59882205.76759774
0.7366228949920899	59990568.2162414
0.7367456654745885	60098948.72529315
0.7368684564188344	59821800.20371193
0.7369912678282374	59326702.39834793
0.7371140997062088	58831522.07668283
0.7372369520561599	58336259.22496364
0.7373598248815024	57840913.82943696
0.7374827181856494	57345485.87634352
0.7376056319720137	56849975.35192452
0.7377285662440091	56354382.24241805
0.7378515210050496	55629055.51271577
0.7379744962585505	54834512.88922572
0.738097492007927	54039837.84196529
0.7382205082565949	53245030.34886413
0.738343545007971	52450090.387847625
0.7384666022654723	51655017.93683681
0.7385896800325165	50859812.97375203
0.7387127783125219	50064475.47650573
0.7388358971089073	50215038.79696879
0.7389590364250921	50460516.706843734
0.7390821962644963	50706035.52970384
0.7392053766305403	50951595.272367395
0.7393285775266454	51197195.941654906
0.7394517989562333	51442837.544387534
0.7395750409227259	51688520.08738689
0.7396983034295463	51911071.87563004
0.739821586480118	51618189.00365
0.7399448900778645	51325257.31785855
0.7400682142262109	51032276.81011856
0.740191558928582	50739247.47229427
0.7403149241884034	50446169.29624724
0.7404383100091014	50153042.273837455
0.7405617163941028	49859866.39692412
0.7406851433468352	49500105.96485109
0.7408085908707264	48835900.780685954
0.7409320589692048	48171584.89565711
0.7410555476456997	47507158.29131355
0.7411790569036406	46842620.9492031
0.7413025867464579	46177972.85086876
0.7414261371775823	45513213.97785119
0.7415497082004452	44848344.311688624
0.7416732998184786	44290365.926730424
0.741796912035115	43961835.10159028
0.7419205448537874	43633249.5213127
0.7420441982779297	43304609.17677174
0.742167872310976	42975914.05883972
0.7422915669563612	42647164.15838806
0.7424152822175206	42318359.466286406
0.7425390180978901	41989499.97340294
0.7426627746009065	41691485.574849576
0.7427865517300065	41431090.70319391
0.7429103494886282	41170652.4323927
0.7430341678802096	40910170.75521322
0.7431580069081896	40649645.6644209
0.7432818665760077	40389077.15277974
0.7434057468871037	40128465.21305353
0.7435296478449182	39867809.83800418
0.7436535694528923	39457146.58001455
0.7437775117144678	38943759.618836045
0.7439014746330868	38430287.09316479
0.7440254582121922	37916728.988738805
0.7441494624552276	37403085.29129521
0.7442734873656368	36889355.98656882
0.7443975329468645	36375541.06029123
0.7445215992023557	35861640.49819266
0.7446456861355559	35375036.57091807
0.7447697937499119	34898438.44969781
0.7448939220488703	34421760.89545745
0.7450180710358784	33945003.89495846
0.7451422407143843	33468167.434959337
0.7452664310878367	32991251.502216436
0.7453906421596846	32514256.083485257
0.7455148739333779	32037181.165517464
0.7456391264123667	31750926.59672578
0.7457633996001021	31495148.151110824
0.7458876935000356	31239327.075754467
0.7460120081156189	30983463.363552712
0.7461363434503048	30727557.0073988
0.7462606995075466	30471608.0001853
0.7463850762907978	30215616.33480431
0.7465094738035127	29959591.9280127
0.7466338920491467	29706120.878835656
0.746758331031155	29452607.584483504
0.7468827907529935	29199052.037915926
0.7470072712181189	28945454.232090577
0.7471317724299886	28691814.15996421
0.7472562943920602	28438131.81449267
0.7473808371077922	28184407.18862999
0.7475054005806435	27918067.125927765
0.7476299848140736	27574237.003774635
0.7477545898115426	27230349.576601073
0.7478792155765113	26886404.83485623
0.7480038621124406	26542402.768988036
0.7481285294227926	26198343.369442273
0.7482532175110298	25854226.62666289
0.7483779263806148	25510052.53109353
0.7485026560350116	25165132.18093094
0.7486274064776842	24818289.882985536
0.748752177712097	24471389.777991112
0.7488769697417158	24124431.85631178
0.749001782570006	23777416.108312584
0.7491266162004343	23430342.524355493
0.7492514706364677	23083211.094800923
0.7493763458815739	22736021.81000774
0.7495012419392209	22398458.68165067
0.7496261588128773	22074761.22745656
0.7497510965060128	21751009.823686525
0.7498760550220971	21427204.46134932
0.7500010343646007	21103345.13145167
0.7501260345369949	20779431.82499888
0.750251055542751	20455464.53299538
0.7503760973853414	20131443.246443015
0.7505011600682389	19814247.518594
0.750626243594917	19502743.20196091
0.7507513479688495	19191186.967942186
0.7508764731935109	18879578.80788435
0.7510016192723765	18567918.713133093
0.7511267862089218	18256206.675033003
0.7512519740066232	17944442.68492645
0.7513771826689577	17632626.7341547
0.7515024121994025	17338012.685486987
0.7516276626014359	17051394.25895216
0.751752933878536	16764728.062680073
0.7518782260341824	16478014.088708512
0.7520035390718548	16191252.329074496
0.7521288729950334	15904442.775814023
0.7522542278071992	15617585.420961317
0.7523796035118337	15330680.256549329
0.7525050001124189	15056510.219811479
0.7526304176124378	14785074.492765306
0.7527558560153731	14513593.526431642
0.752881315324709	14242067.313269991
0.7530067955439299	13970495.845739383
0.7531322966765205	13698879.116297884
0.7532578187259665	13427217.117401393
0.7533833616957542	13155509.841505095
0.75350892558937	12903165.048829334
0.7536345104103016	12651690.807396162
0.7537601161620366	12400174.653589549
0.7538857428480638	12148616.580423724
0.7540113904718717	11897016.580912696
0.7541370590369503	11645374.648068473
0.7542627485467898	11393690.77490195
0.7543884590048808	11144665.134155883
0.7545141904147151	10922524.487392511
0.7546399427797842	10700346.81718837
0.7547657161035808	10478132.117372492
0.754891510389598	10255880.381773327
0.7550173256413296	10033591.604218137
0.7551431618622698	9811265.778533407
0.7552690190559135	9588902.898544446
0.7553948972257561	9369835.48477466
0.7555207963752938	9161917.597262293
0.755646716508023	8953965.056768794
0.755772657627441	8745977.857518474
0.7558986197370455	8537955.993734915
0.756024602840335	8329899.459640779
0.7561506069408084	8121808.249457628
0.7562766320419653	7913682.357405927
0.7564026781473054	7712008.022951805
0.75652874526033	7521714.137262879
0.7566548333845401	7331388.535926239
0.7567809425234375	7141031.213656111
0.7569070726805247	6950642.165165713
0.7570332238593047	6760221.385167259
0.7571593960632813	6569768.868371957
0.7572855892959586	6379284.609490512
0.7574118035608413	6204182.508188452
0.7575380388614347	6044131.149460129
0.7576642952012449	5884053.115505293
0.7577905725837782	5723948.401878361
0.7579168710125422	5563817.004132206
0.7580431904910444	5403658.917819699
0.7581695310227928	5243474.13849301
0.7582958926112967	5083262.661702897
0.7584222752600652	4934234.806685974
0.7585486789726085	4791622.016818006
0.7586751037524372	4648985.458151672
0.7588015496030628	4506325.1267252825
0.7589280165279966	4363641.018577271
0.7590545045307512	4220933.129744568
0.7591810136148396	4078201.4562637294
0.7593075437837755	3935445.994170433
0.7594340950410726	3807888.902640005
0.7595606673902461	3684727.0578228375
0.7596872608348112	3561544.68603141
0.7598138753782836	3438341.7838448198
0.75994051102418	3315118.347841083
0.7600671677760173	3191874.374598109
0.7601938456373134	3068609.860692833
0.7603205446115863	2945324.802701976
0.7604472647023548	2836844.81270924
0.7605740059131385	2729820.407128604
0.7607007682474575	2622778.1641469346
0.7608275517088319	2515718.080791672
0.7609543563007835	2408640.154088946
0.7610811820268336	2301544.381065168
0.7612080288905045	2194430.7587460913
0.7613348968953197	2087914.711620761
0.7614617860448022	1994008.1244990202
0.7615886963424764	1900085.8862792975
0.7617156277918667	1806147.9943532958
0.7618425803964988	1712194.4461118956
0.7619695541598982	1618225.2389458138
0.7620965490855914	1524240.3702452737
0.7622235651771058	1430239.8373998413
0.7623506024379685	1340239.1327457812
0.7624776608717082	1267823.780652426
0.7626047404818536	1195396.3593337187
0.7627318412719337	1122956.8667782492
0.762858963245479	1050505.3009739749
0.7629861064060198	978041.6599087268
0.7631132707570876	905565.9415698926
0.7632404563022137	833078.1439447335
0.7633676630449308	766471.3636966818
0.7634948909887717	712397.9327779697
0.7636221401372697	658315.4896208417
0.7637494104939593	604224.0327231364
0.7638767020623748	550123.5605826927
0.7640040148460518	496014.0716968309
0.7641313488485262	441895.5645628234
0.7642587040733344	387768.0376775655
0.7643860805240132	342756.43414909916
0.7645134782041005	308626.12299883185
0.7646408971171346	274490.1234633587
0.764768337266654	240348.43459464202
0.7648957986561985	206201.05544443626
0.7650232812893079	172047.98506437664
0.7651507851695227	137889.22250592
0.7652783103003843	103724.76682037453
0.7654058566854343	83752.28100382574
