#wavelength	surface flux
0.676892	94695.34118206201
0.678297	97213.79813051983
0.679702	99712.27649760076
0.681109	102216.61756767791
0.682517	104757.124410564
0.683926	107311.96573215815
0.685337	109857.34688519489
0.686749	112441.12873408945
0.688164	115022.81654857227
0.689581	117456.06053866562
0.691	118960.7456796367
0.692422	119074.79013636892
0.693847	122921.87779986548
0.695274	127554.96994719117
0.696705	130904.57112271321
0.698139	133417.81879900672
0.699576	136128.55802388728
0.701017	138614.917554126
0.702461	140513.58592151062
0.70391	144382.4492109065
0.705362	148176.87144300222
0.706819	150739.7253617094
0.70828	153437.9179559623
0.709745	156058.80362875914
0.711216	159648.9649508206
0.71269	162520.89035499358
0.71417	164940.29728707453
0.715655	165294.38146589216
0.717145	163796.77744516547
0.71864	169128.5859185382
0.72014	172477.1117106424
0.721647	174359.75775597407
0.723158	175631.29664857005
0.724676	176144.46086652495
0.726199	177199.92124724278
0.727728	180155.85378629147
0.729264	179191.49977590225
0.730805	181590.61766428946
0.732353	186471.19274459986
0.733907	187403.80661290063
0.735468	188693.10487917298
0.737035	188947.17076861358
0.738609	190354.1506821243
0.74019	190199.1673662998
0.741777	186636.6192141304
0.743372	183874.77558261668
0.744973	180799.06561931595
0.746582	174966.55163024465
0.748197	167557.41997699326
0.74982	158086.9206418408
0.751451	145984.9589745648
0.753088	131051.00934732429
0.754734	113622.0961090975
0.756386	93813.6028029957
0.758047	72112.01576880037
0.759715	50431.1714347143
0.76139	30036.473061449964
0.763074	13765.0856397646
0.764765	4124.2897926644355
0.766464	769.9715519365412
0.768172	1018.8316732182698
0.769887	1139.3499856353826
0.77161	7747.941087681291
0.773341	24837.61025054567
0.775081	50558.92014070855
0.776829	80341.49750995418
0.778585	100787.44516764043
0.780349	117611.78590906745
0.782121	170191.3085399375
0.783902	210187.73733104643
0.785691	241128.25864863326
0.787489	269228.9849574331
0.789295	293814.71841477737
0.79111	312891.7302543431
0.792933	263598.1820410811
0.794764	142983.76328294663
0.796604	325061.9223769574
0.798453	397366.27779335034
0.80031	418726.6394108696
0.802176	436495.03376400354
0.804051	452994.2071517291
0.805934	469213.1411789796
0.807826	482423.726175619
0.809727	485102.9866245078
0.811636	487983.28521377145
0.813554	498225.7701661662
0.81548	534053.9555380439
0.817416	552954.5102737034
0.81936	569891.2159413054
0.821313	581560.6381858176
0.823274	583731.1170655362
0.825244	613605.2382201672
0.827223	628086.6362659526
0.829211	632380.4676243806
0.831208	641084.5729710524
0.833213	664783.0515998012
0.835227	676822.7922213043
0.837249	678760.4689153965
0.83928	697230.5280015093
0.841321	732879.5917975464
0.843369	760271.0269800535
0.845427	778421.4217685434
0.847493	798723.6107053944
0.849567	813017.0357277709
0.851651	815928.6856416947
0.853742	845026.4905680321
0.855843	875820.4956424275
0.857952	895592.5534030728
0.86007	912988.8298462303
0.862196	918908.5009650992
0.864331	939073.092611297
0.866474	962469.2193292995
0.868626	981848.6287072536
0.870786	1006797.5545503235
0.872955	1028487.0979724398
0.875132	1038969.4426307697
0.877317	1056645.0616847542
0.879511	1058919.3891871509
0.881713	1072311.9534958254
0.883923	1085799.884786259
0.886142	1094144.3708679508
0.888369	1101349.7703895126
0.890604	1107572.842759144
0.892847	1053600.2927565253
0.895099	1060720.1344182882
0.897358	1124859.9795679701
0.899626	1205929.0741931496
0.901901	1249247.1036702944
0.904185	1300829.214900136
0.906476	1312222.3163426148
0.908776	1335126.4204366251
0.911083	1385742.9911448578
0.913398	1375124.7960051955
0.915721	1367723.0501523926
0.918051	1337642.3448432302
0.92039	1455566.108819832
0.922736	1466231.5090485227
0.925089	1332481.047154217
0.927451	1046443.5915019648
0.929819	756246.1615229291
0.932195	953130.4433228403
0.934579	900242.036409098
0.93697	1016890.7786173268
0.939369	1242159.733475074
0.941774	1262884.3008530054
0.944187	1002928.3275366952
0.946607	912628.7459950987
0.949035	1160239.7384369608
0.951469	1118527.6592521085
0.953911	1176427.5058357366
0.956359	1491581.4578267417
0.958814	1164845.32608268
0.961277	1029405.0248745203
0.963746	1086746.688939859
0.966222	1138268.90595962
0.968705	1137111.5996958008
0.971194	1567170.3355788016
0.97369	1752707.5122936463
0.976193	1661060.158928365
0.978702	1814056.1176593413
0.981217	1850931.9949144206
0.983739	1931489.5083558445
0.986268	1974410.4903846548
0.988802	2099666.3706137766
0.991343	2218535.103222756
0.99389	2255815.926728657
0.996444	2352656.7347123483
0.999003	2411171.4298368627
1.00157	2437985.381570279
1.00414	2489701.056619459
1.00672	2570428.027247442
1.0093	2633093.867903026
1.01189	2695246.2254669634
1.01448	2781362.7379659084
1.01708	2834211.7288292283
1.01969	2879846.425042242
1.0223	2909133.698951632
1.02492	2865926.2833249266
1.02754	2941227.3311272427
1.03017	2856046.0468401364
1.0328	3085601.2174257687
1.03544	3161584.3659351636
1.03808	3214104.537175108
1.04073	3266917.1563404123
1.04339	3316408.8854142656
1.04604	3361595.971175324
1.04871	3375876.075786232
1.05138	3408519.390400585
1.05405	3483697.5726799574
1.05673	3550297.8736121985
1.05941	3602251.6593644847
1.0621	3646766.858117515
1.06479	3694191.7111761547
1.06749	3736868.5588461766
1.07019	3747224.62644834
1.07289	3807344.840150126
1.0756	3876024.8084063674
1.07832	3907014.5423472393
1.08104	3967266.593373808
1.08376	4026257.508177945
1.08649	4038815.8559459094
1.08922	3986130.501679344
1.09195	3922666.0985552375
1.09469	3868278.862339989
1.09743	3896829.5534387473
1.10018	2978593.8555197697
1.10293	2186066.914511288
1.10568	1737033.9813483648
1.10844	2747577.7872879608
1.1112	2348103.377347322
1.11396	1753195.0592169918
1.11673	1751800.0924351497
1.1195	1700652.045255368
1.12228	1203787.78528548
1.12505	1888638.7296995881
1.12783	1892932.0609712978
1.13062	2016105.9192210839
1.13341	1018790.8568063921
1.1362	1865209.655793962
1.13899	2704653.7060526926
1.14178	2355159.1082232767
1.14458	2836788.3368241675
1.14738	3272302.8339774455
1.15019	1986706.2256034194
1.153	725132.3550733972
1.1558	987944.5983905592
1.15862	1102907.8796830566
1.16143	1223609.041517307
1.16425	1943261.0905993031
1.16707	2766948.131677322
1.16989	2294263.3607024485
1.17271	2662416.116717924
1.17554	3528852.315241725
1.17837	4150573.550839783
1.1812	4375307.621825655
1.18403	4962887.155635175
1.18686	4935381.523563805
1.1897	4952154.022739562
1.19253	5509457.049670338
1.19537	5780096.804455879
1.19822	5929693.2773181815
1.20106	6109670.6282077255
1.2039	5999478.795009052
1.20675	6216088.794776104
1.2096	6321608.778782373
1.21245	6321698.572170639
1.2153	6561061.282189465
1.21815	6697943.211916499
1.221	6796870.772762225
1.22385	6933783.5144213755
1.22671	7078600.045418665
1.22957	7155104.268243592
1.23242	7171782.73915807
1.23528	7279040.746411484
1.23814	7408142.635167016
1.241	7491869.842422021
1.24387	7572581.843554419
1.24673	7632790.6093658265
1.24959	7672354.827983725
1.25245	7682940.69029306
1.25532	7854568.187216114
1.25818	7960226.98006534
1.26105	7938035.7888026135
1.26392	7965938.341362643
1.26678	8036802.676059667
1.26965	8045211.83154084
1.27252	8027779.8217150355
1.27538	8201311.439552238
1.27825	8216171.918687282
1.28112	8084609.661961234
1.28399	8250582.564153543
1.28686	8128344.696679084
1.28973	7825726.810164256
1.2926	7670469.253402973
1.29546	7923226.0598413
1.29833	8093124.682839438
1.3012	7624089.596555172
1.30407	7578961.34372119
1.30694	7476893.824131732
1.30981	7726300.467517259
1.31267	7346085.348943331
1.31554	7931385.172975519
1.31841	8528409.127523426
1.32128	7708142.069866175
1.32414	6570550.754485793
1.32701	6318583.666225023
1.32987	4925705.340811891
1.33274	2617093.6247397372
1.3356	1617522.509608061
1.33847	498417.4239131917
1.34133	135140.57660501671
1.34419	358725.5316568386
1.34705	497054.7905437732
1.34991	209410.50503269292
1.35277	77149.23585179196
1.35563	139108.33663561707
1.35849	143047.7123707956
1.36135	47756.80888908769
1.3642	129661.14457306692
1.36706	137982.14400138403
1.36991	101228.2026037772
1.37277	392501.90020792524
1.37562	902251.3102253254
1.37847	1069164.3587218546
1.38132	365915.3411159773
1.38417	30223.917875191033
1.38701	70449.65005771269
1.38986	54045.08150044263
1.39271	71983.39064050847
1.39555	121773.46150546373
1.39839	103003.16288211996
1.40123	237821.93602392415
1.40407	451686.86910253664
1.40691	639632.3420546014
1.40974	292341.10409220395
1.41258	71392.16886783886
1.41541	219096.33206347266
1.41824	277901.23134481703
1.42107	129803.54549778109
1.4239	86033.41091482883
1.42673	223928.14694397416
1.42955	400255.49763859087
1.43237	288477.0206127878
1.43519	600387.8435403024
1.43801	375348.92299084313
1.44083	466153.7314958634
1.44365	795021.6619256322
1.44646	937365.5054776118
1.44927	2000771.7203325531
1.45208	2637561.500250681
1.45489	1971166.6724256806
1.45769	2517850.962937085
1.4605	2926982.262011133
1.4633	3105860.1143980827
1.4661	3302402.580561187
1.4689	2179542.3124774033
1.47169	2319924.9482896924
1.47449	2128553.6342249387
1.47728	2016038.7054852475
1.48007	2127533.6717539746
1.48286	3428691.5338518904
1.48564	4503440.733733875
1.48842	4613776.676488141
1.4912	4769182.285477624
1.49398	4472125.664893583
1.49676	3706860.9151306152
1.49953	4712681.910541534
1.5023	5916064.960890373
1.50507	5828310.324247385
1.50784	5372497.706383603
1.51061	5756403.507302704
1.51337	6279002.248137364
1.51613	7084364.361382022
1.51888	7943003.093746229
1.52164	9198704.287344858
1.52439	10017872.755849112
1.52714	9491932.927371604
1.52989	9266251.960178955
1.53263	9954021.368482586
1.53538	10705149.54519539
1.53812	10875242.691961598
1.54086	10849193.164992785
1.54359	10918161.454594987
1.54632	11546583.602315292
1.54905	11596233.082297487
1.55178	12195235.20456451
1.5545	12106323.744606212
1.55723	11619777.938248428
1.55995	11806857.677443448
1.56266	12249598.569038088
1.56538	13116355.342736525
1.56809	13580563.755462507
1.5708	13470697.975901434
1.57351	12818449.539757198
1.57621	12184509.372551946
1.57891	10906556.287037779
1.58161	11840709.044478906
1.5843	13872354.56096021
1.587	14290111.932024399
1.58969	14190927.32145261
1.59238	13973710.936210284
1.59506	13497541.318666494
1.59774	12978240.73597664
1.60042	12530274.09991604
1.6031	12546009.086075677
1.60577	12848764.27425509
1.60844	12880724.37291691
1.61111	12454579.60222415
1.61378	11837769.596982827
1.61644	11488555.423942761
1.6191	10862063.795780819
1.62176	10018080.084400179
1.62441	9448140.724005492
1.62707	8877670.085788047
1.62971	7712263.461940193
1.63236	7177106.514348811
1.635	9301939.572626455
1.63764	12333653.550408809
1.64028	13296023.960376356
1.64292	12989294.903932374
1.64555	11514348.45602042
1.64818	9023517.80761267
1.65081	8882433.77947268
1.65343	10873654.989197792
1.65605	11575102.985463712
1.65867	11818160.812165078
1.66128	11367128.722319072
1.6639	9302485.235442635
1.66651	5420557.369130187
1.66911	4506643.360669503
1.67172	7710671.236525982
1.67432	10163284.896422725
1.67692	9865509.029439198
1.67951	8570781.433834326
1.68211	8712528.463889036
1.6847	8893903.52715645
1.68728	7973389.995539668
1.68987	7581066.832740959
1.69245	6905471.946322488
1.69503	5105095.840965446
1.6976	4103777.325433854
1.70018	5026375.254470956
1.70275	5019495.001954604
1.70531	5435652.909489307
1.70788	6641658.811243921
1.71044	6615234.637806944
1.713	7398260.840860198
1.71556	8108612.909937688
1.71811	8643967.934507288
1.72066	9558988.093347419
1.72321	9325694.34144935
1.72575	8835036.184183108
1.7283	8533230.080828225
1.73084	8010292.870282881
1.73337	7351481.674294812
1.73591	6929416.208271316
1.73844	6947171.0340469275
1.74097	7172221.635956817
1.74349	6741925.849960274
1.74602	6049743.386012885
1.74854	5735859.434255944
1.75105	5130359.643959818
1.75357	4232252.746726644
1.75608	5103630.170943683
1.75859	6969607.900937302
1.7611	7513858.862483143
1.7636	7059149.842599562
1.7661	5428610.915382283
1.7686	4202099.579208714
1.7711	3062893.2398989582
1.77359	2006403.2866381619
1.77608	1145054.01486435
1.77857	780817.5355983853
1.78105	972506.916292719
1.78354	1189693.7382406082
1.78602	914289.3948154994
1.78849	642367.2926530726
1.79097	874995.7450959558
1.79344	1332939.724931396
1.79591	2060071.9622616596
1.79837	2899655.7201713584
1.80084	1762346.7435109324
1.8033	586545.2699953187
1.80576	235999.2398626421
1.80821	160757.6791801872
1.81067	531584.9352506557
1.81312	834221.4278379653
1.81557	434456.99105511804
1.81801	223035.42860035173
1.82046	591238.2209544318
1.8229	895083.5792106596
1.82533	572058.9168230168
1.82777	170178.26583293406
1.8302	90863.14802900991
1.83263	191602.17966340398
1.83506	371178.9989174579
1.83749	662286.1248493616
1.83991	792393.248361905
1.84233	594876.2091409838
1.84475	537616.5451033679
1.84716	690378.4372558817
1.84957	1017792.3452879313
1.85198	1062728.2451040428
1.85439	531461.2080849769
1.8568	326879.62587680004
1.8592	422865.4563839401
1.8616	313519.26854932785
1.864	140501.00164757433
1.86639	97471.17972377557
1.86878	158901.14370144924
1.87118	329263.67207506765
1.87356	561404.6814206146
1.87595	777767.1129847987
1.87833	1508216.9408334536
1.88071	2637181.532566073
1.88309	2563320.959479829
1.88547	1841626.9965223772
1.88784	1575607.9131633535
1.89021	1418946.2582701365
1.89258	2518059.406804206
1.89494	3462761.0086279092
1.89731	2160577.7085026996
1.89967	692394.6987430532
1.90203	145591.48479334448
1.90439	107125.68056516213
1.90674	193471.49193588615
1.90909	211967.5178254821
1.91144	132363.61842879804
1.91379	58194.467269385605
1.91613	56667.176773683335
1.91848	114990.4484226095
1.92082	185687.66625938777
1.92315	184763.8429032537
1.92549	131440.8096681792
1.92782	153123.15704613118
1.93015	242871.99681632724
1.93248	330973.69299554755
1.93481	355419.12119580596
1.93713	314101.2094598089
1.93945	347276.0576334039
1.94177	493907.17575525225
1.94409	601119.9545945892
1.94641	649190.5329619446
1.94872	865587.572364111
1.95103	1103397.4784373988
1.95334	709239.1378942886
1.95564	446674.48794630304
1.95795	519820.8936478284
1.96025	541379.2110655642
1.96255	560852.6247300191
1.96484	719896.913486819
1.96714	1142490.8219718717
1.96943	1732555.977177863
1.97172	2093230.4788749695
1.97401	1892198.6054673109
1.97629	2044384.9447180685
1.97858	2662144.5808632704
1.98086	3058469.5891332263
1.98314	3518546.4887435962
1.98541	3810895.981611979
1.98769	3483623.358934966
1.98996	2657479.185525143
1.99223	2569024.011288409
1.9945	3206595.7042567222
1.99677	3013105.5998234856
1.99903	2925965.431564278
2.00129	3678357.1697054496
2.00355	4802977.893621016
2.00581	5538558.895521766
2.00806	5939735.8946582945
2.01031	7263167.095413917
2.01256	7752650.5696925
2.01481	6829114.162961097
2.01706	5840059.151805873
2.0193	5897858.825251688
2.02154	7101720.391941052
2.02378	8289601.480026765
2.02602	8496636.80078378
2.02825	8967100.980361752
2.03049	9626309.289806187
2.03272	10301281.657052873
2.03494	10882877.289124634
2.03717	11388771.064932154
2.03939	11936257.416864116
2.04162	12904060.491600543
2.04384	13812070.299649203
2.04605	14744523.960438065
2.04827	15490653.48411985
2.05048	15333728.394398913
2.05269	14129737.23528676
2.0549	13854685.04266204
2.05711	14378925.597751291
2.05931	15192802.820085686
2.06151	15828023.432042394
2.06371	16335573.002749141
2.06591	16659821.58024386
2.06811	16910220.23211371
2.0703	17055355.441719495
2.07249	17022952.959462933
2.07468	16691573.882076725
2.07686	16594002.047350986
2.07905	16775581.447316578
2.08123	16964577.247459922
2.08341	17034328.606811997
2.08559	17022971.30143636
2.08776	17109499.10567596
2.08994	17043444.741029207
2.09211	16814391.122025367
2.09428	16535346.163896346
2.09645	16533690.110930758
2.09861	16480698.354968194
2.10077	16338700.092887096
2.10293	16130377.720983652
2.10509	15884512.448515108
2.10725	15633531.762545165
2.1094	15745985.136600465
2.11155	15819872.46640232
2.1137	15654572.067713099
2.11585	15064572.488384228
2.11799	14631857.818718914
2.12013	14412618.864945594
2.12227	14385343.369634239
2.12441	14507920.273692315
2.12655	14606972.990748435
2.12868	14578654.457030918
2.13081	14572700.915045284
2.13294	14571061.739671288
2.13507	14220594.444128064
2.13719	13570381.898819098
2.13931	13019007.152480144
2.14143	12540374.585628036
2.14355	11769141.347447766
2.14567	11358452.927035218
2.14778	11060214.89197582
2.14989	10730516.584625944
2.152	10105723.239743419
2.1541	10307098.76467461
2.15621	10595892.967288192
2.15831	10651818.22637742
2.16041	9835448.328460123
2.16251	9413834.595895035
2.1646	9161318.278843468
2.1667	9055293.808722831
2.16879	9264476.305215545
2.17087	9502018.291418517
2.17296	9666063.859800337
2.17504	9699958.879129624
2.17713	9511143.416034695
2.1792	9144844.217913922
2.18128	8660322.008075885
2.18336	8106209.944348857
2.18543	7542011.431478312
2.1875	6975769.749727802
2.18957	6349923.27065372
2.19163	5418998.7865306735
2.1937	4169904.0144665274
2.19576	2956590.268067127
2.19782	1950977.3968401416
2.19987	1508683.7340096585
2.20193	1298037.5299428653
2.20398	1276952.6606745801
2.20603	1379402.9482739004
2.20808	1562682.155599746
2.21012	1771402.8210439957
2.21217	1983206.4514508448
2.21421	2060250.4396774196
2.21625	2004799.7898939513
2.21828	1836022.4716519201
2.22032	1737726.7168710986
2.22235	1676450.5000212835
2.22438	1598314.1802158684
2.22641	1388233.3199614075
2.22843	1153267.156161861
2.23046	949449.1000098797
2.23248	825215.9724860261
2.2345	783825.9142304411
2.23651	753808.2267431247
2.23853	725050.8276066689
2.24054	635628.8222699759
2.24255	534655.0669052283
2.24456	431499.8839303268
2.24657	447065.4413224729
2.24857	524589.8377680703
2.25057	635197.0310945894
2.25257	678751.3166344732
2.25457	719289.8557840728
2.25656	757532.8409013265
2.25856	793736.8168543176
2.26055	740974.4347805027
2.26254	645809.502971285
2.26453	545417.7096009236
2.26651	489306.6853731326
2.2685	469973.5213530099
2.27048	521235.2197822414
2.27246	596652.213661797
2.27443	667609.0307746971
2.27641	680778.1576536825
2.27838	648309.9699368827
2.28036	598377.4127666209
2.28233	566005.9114996198
2.28429	540594.561203831
2.28626	516092.1977985247
2.28823	475792.50235086714
2.29019	454370.700612327
2.29215	447793.5320929854
2.29411	475171.03435872897
2.29607	500343.83919267403
2.29802	523594.06325384555
2.29998	552873.7092837412
2.30193	632602.7035648256
2.30388	770158.8226462496
2.30583	1058449.6827998492
2.30778	1353384.2199409097
2.30972	1635198.4979860699
2.31167	1626060.3863282239
2.31361	1449734.361494291
2.31555	980119.7101691
2.31749	631557.2442039711
2.31943	372801.6758069053
2.32137	366244.1285319265
2.32331	372861.76574840053
2.32524	389882.56291951216
2.32718	380614.06137073954
2.32911	374107.420936295
2.33104	372112.08641272364
2.33297	364439.6356603331
2.3349	354394.8319590492
2.33683	340751.66128389875
2.33876	327525.427647658
2.34068	313756.1369294799
2.34261	287443.4099667594
2.34453	262963.5498497117
2.34646	240288.94037866846
2.34838	254981.83828559125
2.3503	290028.30678681674
2.35223	365939.23918338923
2.35415	439871.6124868631
2.35607	511674.0343923543
2.35799	563139.9767923721
2.35991	614200.458339452
2.36183	664771.5905812508
2.36375	636849.64151531
2.36566	570616.3066976647
2.36758	421010.26099625806
2.3695	302968.9300487676
2.37142	205161.39061021872
2.37334	220022.0096628418
2.37526	244477.27981199595
2.37718	283940.49237777916
2.3791	326468.99213910155
2.38101	372278.85767172294
2.38293	436585.3854723209
2.38485	493692.98141530115
2.38677	543450.0890404908
2.3887	526613.2029222359
2.39062	501295.5426334893
2.39254	480077.4542849704
2.39446	487007.7716152058
2.39639	512112.01252661744
2.39831	544375.548842344
2.40024	560575.651770133
2.40216	546033.449877624
2.40409	564009.3853155631
2.40602	603443.3899491813
2.40795	739413.0149469397
2.40989	859542.2043076892
2.41182	958808.68329469
2.41376	1005264.3817404667
2.4157	1054591.0962072932
2.41764	1169843.4956178972
2.41958	1249837.6338297604
2.42152	1301163.8400389205
2.42347	1168622.3711484526
2.42542	1069090.9338326505
