#wavelength	surface flux
0.676892	295995.04205361
0.678297	302904.0319653915
0.679702	309398.2101701764
0.681109	315925.6396068333
0.682517	323126.66216821806
0.683926	330259.87213035976
0.685337	337132.95940754924
0.686749	344072.55599300016
0.688164	350971.333223765
0.689581	357566.1785319801
0.691	362164.44320865255
0.692422	365435.8466000447
0.693847	375162.83324704925
0.695274	385798.6131301369
0.696705	394179.8480395398
0.698139	401319.6135467011
0.699576	408760.1087112874
0.701017	415928.9171480111
0.702461	422150.9827666154
0.70391	431271.2620425443
0.705362	440446.0816582262
0.706819	447725.7276804139
0.70828	455218.85721901077
0.709745	462665.96564288356
0.711216	471597.27226807445
0.71269	479434.12185632467
0.71417	486623.056581774
0.715655	490520.75492367987
0.717145	491711.0543181861
0.71864	503529.0546071013
0.72014	512032.226976603
0.721647	518248.7469019677
0.723158	524279.10745252337
0.724676	529047.3219762425
0.726199	534225.4517089416
0.727728	542203.9879110632
0.729264	543766.1740064423
0.730805	550176.9345211548
0.732353	560152.4228225648
0.733907	564308.644402724
0.735468	568588.7528639149
0.737035	571045.2981477146
0.738609	575468.4114677898
0.74019	576526.7737846213
0.741777	571545.0268074418
0.743372	567029.9979132273
0.744973	560907.1556238364
0.746582	549067.6324876078
0.748197	532791.7757121729
0.74982	510731.94293140917
0.751451	481341.042495774
0.753088	442872.05712188705
0.754734	395130.80811215326
0.756386	337489.30773215945
0.758047	269516.35221023456
0.759715	196543.60751842152
0.76139	122567.29815823074
0.763074	58169.43767915177
0.764765	17148.321838850417
0.766464	2554.886763247174
0.768172	3516.8676910151808
0.769887	4367.145347420908
0.77161	32233.632528756138
0.773341	101300.14983874792
0.775081	195679.4029146799
0.776829	296188.8818024142
0.778585	359631.6154107109
0.780349	406560.3241901812
0.782121	558257.8189821966
0.783902	665766.2583703246
0.785691	742728.7589436192
0.787489	809464.4820250316
0.789295	866986.7591266525
0.79111	910270.9078470404
0.792933	777891.7176679417
0.794764	432965.3928095709
0.796604	914088.2720353933
0.798453	1096388.9038903133
0.80031	1142116.8991586028
0.802176	1180850.3595143426
0.804051	1216789.9588016674
0.805934	1251078.7411145514
0.807826	1280988.171098402
0.809727	1295415.137814262
0.811636	1311906.462834633
0.813554	1339230.064207194
0.81548	1399790.8313802371
0.817416	1434684.5650110564
0.81936	1466580.4868799536
0.821313	1499355.1892969303
0.823274	1515619.2280618446
0.825244	1568223.096262326
0.827223	1599820.6231203086
0.829211	1618409.3985825672
0.831208	1644528.4856081915
0.833213	1687894.7504988688
0.835227	1716203.4426989339
0.837249	1732019.2322053881
0.83928	1768526.1678481214
0.841321	1827995.91458568
0.843369	1875859.231031939
0.845427	1913220.6191195361
0.847493	1953443.3568582116
0.849567	1982688.4409800894
0.851651	1991201.099193261
0.853742	2049632.1507698745
0.855843	2110803.975348935
0.857952	2152198.823333043
0.86007	2187356.625030056
0.862196	2169380.810213361
0.864331	2218168.9543134365
0.866474	2272935.6312056165
0.868626	2319040.335486921
0.870786	2363585.1706727827
0.872955	2407732.5625862363
0.875132	2438042.3072893657
0.877317	2482216.1929927887
0.879511	2491495.5450222623
0.881713	2536142.196096515
0.883923	2587198.151877118
0.886142	2615539.1360759367
0.888369	2644156.439358125
0.890604	2657234.036970957
0.892847	2594366.477653359
0.895099	2641092.7122470085
0.897358	2749213.7920071892
0.899626	2857727.2873209533
0.901901	2931880.6264303266
0.904185	3015404.5128008337
0.906476	3054241.061918131
0.908776	3102630.569689158
0.911083	3179889.9406747925
0.913398	3187573.723367653
0.915721	3193217.6250159475
0.918051	3179390.1134671126
0.92039	3339941.919798026
0.922736	3372923.778703564
0.925089	3211114.6738182874
0.927451	2809036.2619252857
0.929819	2349537.982917548
0.932195	2718219.047315506
0.934579	2701476.280131367
0.93697	2899878.085532581
0.939369	3223828.239661723
0.941774	3282537.9559469805
0.944187	2935778.4571085274
0.946607	2830968.8120585084
0.949035	3202218.9714057273
0.951469	3138671.977110493
0.953911	3258033.5034114886
0.956359	3691653.5137946038
0.958814	3241113.2732235603
0.961277	3055280.7673654137
0.963746	3153861.8377106274
0.966222	3251765.9458202138
0.968705	3241324.669363876
0.971194	3872688.1136477753
0.97369	4180874.6524149245
0.976193	4085253.7538989224
0.978702	4298099.875274749
0.981217	4373793.830489942
0.983739	4488872.715724852
0.986268	4572180.728335377
0.988802	4745327.00966053
0.991343	4912199.052618188
0.99389	4980438.30905739
0.996444	5123467.586329612
0.999003	5206454.160535228
1.00157	5256224.953273958
1.00414	5344866.758301281
1.00672	5479050.605539864
1.0093	5584489.45754658
1.01189	5695628.420814479
1.01448	5835874.430138694
1.01708	5927754.50968119
1.01969	6015604.042448137
1.0223	6069962.896476322
1.02492	6034589.600795342
1.02754	6158634.684357782
1.03017	6067242.081161372
1.0328	6401961.204759726
1.03544	6525557.48483462
1.03808	6616444.577775375
1.04073	6708398.012801457
1.04339	6796684.506299466
1.04604	6880430.79087542
1.04871	6922612.504121612
1.05138	6988744.56657137
1.05405	7117418.327072682
1.05673	7228647.12780349
1.05941	7318039.053904028
1.0621	7398805.476151142
1.06479	7484698.670715362
1.06749	7567952.652175513
1.07019	7609612.705667919
1.07289	7714183.75060756
1.0756	7826707.4578130115
1.07832	7893355.321780827
1.08104	7998071.572653148
1.08376	8094429.918443308
1.08649	8141127.558102143
1.08922	8103174.885398587
1.09195	8034283.733460975
1.09469	7999439.569787582
1.09743	8070790.763325015
1.10018	6879464.292570108
1.10293	5774349.920810575
1.10568	5053775.276246767
1.10844	6565716.7738327915
1.1112	6016119.026783807
1.11396	5193423.414405796
1.11673	5154077.394586533
1.1195	5262600.2910112105
1.12228	4496164.822900709
1.12505	5838250.606800902
1.12783	5892632.378039173
1.13062	5938731.1614497155
1.13341	3794587.67318096
1.1362	5276081.810898603
1.13899	6996493.718459759
1.14178	6625482.620966331
1.14458	7274908.164630793
1.14738	7935815.317589605
1.15019	6041528.064264419
1.153	3585558.480850283
1.1558	4320371.841791591
1.15862	4529133.483080875
1.16143	4722011.376884213
1.16425	6043478.854318258
1.16707	7424743.434014118
1.16989	6635397.555672413
1.17271	7117423.099505759
1.17554	8378613.718813079
1.17837	9237185.002209827
1.1812	9558279.3336538
1.18403	10344720.84717114
1.18686	10301944.0297222
1.1897	10317027.717381326
1.19253	11036868.391843064
1.19537	11385511.761175923
1.19822	11564350.695101589
1.20106	11824259.62599313
1.2039	11678514.798472967
1.20675	11961746.239515914
1.2096	12118199.775961742
1.21245	12156333.543556696
1.2153	12496448.900152687
1.21815	12691396.309845844
1.221	12840337.624708004
1.22385	13022336.228134247
1.22671	13215019.412781626
1.22957	13337827.11963302
1.23242	13399894.721580217
1.23528	13556654.328896109
1.23814	13729067.066508386
1.241	13850168.206915809
1.24387	13971327.886721822
1.24673	14080624.056507949
1.24959	14122010.046322186
1.25245	14028988.266773941
1.25532	14387290.867102135
1.25818	14575250.57231
1.26105	14580618.454903673
1.26392	14631862.172501575
1.26678	14739740.329216165
1.26965	14790782.993698776
1.27252	14798292.103117207
1.27538	15023531.999043254
1.27825	15083004.317366472
1.28112	14986024.999672145
1.28399	15193362.819667669
1.28686	15119057.881529769
1.28973	14831386.63483332
1.2926	14710963.010330122
1.29546	15031296.503458608
1.29833	15244018.718008459
1.3012	14794595.118557846
1.30407	14764069.997573642
1.30694	14701827.851821212
1.30981	15088899.367317962
1.31267	14792021.39054316
1.31554	15380010.154934848
1.31841	15904772.91352816
1.32128	15116392.93668788
1.32414	13869782.72177265
1.32701	13449186.481014771
1.32987	11657347.668696601
1.33274	7512562.432376881
1.3356	5179135.923120976
1.33847	2120804.183974751
1.34133	849223.5480171108
1.34419	1907086.3723951727
1.34705	2576910.347072908
1.34991	1524311.638834352
1.35277	730592.429486593
1.35563	910208.2895326532
1.35849	1068231.0948701405
1.36135	561536.1964012743
1.3642	1151558.9253572715
1.36706	1212838.5296356934
1.36991	1016624.3447437193
1.37277	2510016.165959145
1.37562	4392539.926193281
1.37847	4918352.186624391
1.38132	2051267.3496265253
1.38417	340523.2951104429
1.38701	718501.7862614321
1.38986	572313.5902109699
1.39271	675971.0633540032
1.39555	1028631.4142943955
1.39839	731777.1678373178
1.40123	1384121.260368505
1.40407	2523338.926268781
1.40691	3394719.2420219765
1.40974	1857559.759574865
1.41258	603680.9765685187
1.41541	1393559.7194343721
1.41824	1809507.9803444762
1.42107	1107407.4082302926
1.4239	752610.0817870556
1.42673	1589470.6668248111
1.42955	2478710.577158422
1.43237	1583966.0567793446
1.43519	2520685.634974139
1.43801	1851721.4695465362
1.44083	2308539.8591794013
1.44365	3549391.6671437933
1.44646	3794561.069145543
1.44927	6340772.204667906
1.45208	7715565.923083802
1.45489	6243771.331561497
1.45769	7508586.565055929
1.4605	8318707.02241518
1.4633	8538794.875020128
1.4661	9077129.3160753
1.4689	7006054.845582355
1.47169	7369139.777592376
1.47449	7236243.850201141
1.47728	7376817.425382485
1.48007	7398596.806560414
1.48286	9641894.53638729
1.48564	11462978.124214191
1.48842	11387949.595529795
1.4912	11616937.913634202
1.49398	11239233.183179546
1.49676	10205438.786516905
1.49953	12041534.702368094
1.5023	13843168.942211352
1.50507	13700570.808650935
1.50784	12963225.869113496
1.51061	13385650.069230048
1.51337	14099139.0827699
1.51613	15119291.117889753
1.51888	16318019.213496929
1.52164	18049248.019726217
1.52439	18976153.919757597
1.52714	18208152.315717485
1.52989	17933629.626995448
1.53263	18817242.01202221
1.53538	19836786.870212004
1.53812	19948187.921056077
1.54086	19783683.49291755
1.54359	19896203.620780494
1.54632	20685734.8297664
1.54905	20814328.600182783
1.55178	21555003.44035075
1.5545	21429468.925196815
1.55723	20832537.336218894
1.55995	20985129.853356767
1.56266	21553987.738303214
1.56538	22603499.057994265
1.56809	23144128.24624497
1.5708	23047974.162352663
1.57351	22398421.364855934
1.57621	21825940.245483793
1.57891	20645055.248380624
1.58161	21717666.78806434
1.5843	23766904.242303018
1.587	24170498.40418525
1.58969	24101873.64197853
1.59238	23986566.319893345
1.59506	23594279.958964758
1.59774	23144415.809167206
1.60042	22899150.41220667
1.6031	23074568.502973113
1.60577	23403387.58435284
1.60844	23487978.03030565
1.61111	23163351.930316888
1.61378	22677102.608231045
1.61644	22542153.17657844
1.6191	22059990.74453699
1.62176	21422158.61971138
1.62441	21242707.99210021
1.62707	20814087.245096043
1.62971	19674088.18927172
1.63236	19214204.162674863
1.635	21188911.344623245
1.63764	23871759.37644877
1.64028	24714389.816679794
1.64292	24543944.341474533
1.64555	23473033.819018934
1.64818	21397358.877785757
1.65081	21238150.07855409
1.65343	22971653.107567478
1.65605	23617481.581133645
1.65867	23761861.914527908
1.66128	23260352.891128838
1.6639	20706277.671749096
1.66651	15652708.133556154
1.66911	15172991.723670688
1.67172	19596066.758686095
1.67432	22562552.476217534
1.67692	22491544.611319274
1.67951	21362912.102176826
1.68211	21536192.77949548
1.6847	21737783.600637045
1.68728	20876680.80634306
1.68987	20324904.985651333
1.69245	19207198.346889924
1.69503	16650141.037570111
1.6976	15267425.745513795
1.70018	16887113.508935463
1.70275	16887704.641760107
1.70531	17177700.012019385
1.70788	18718832.71273945
1.71044	18539609.890257858
1.713	19266389.070190065
1.71556	20127655.676558472
1.71811	20767728.499224998
1.72066	21682825.192633945
1.72321	21393851.095091444
1.72575	20916026.41931649
1.7283	20442864.55251372
1.73084	19543433.57454001
1.73337	18473979.200123772
1.73591	17694265.619301155
1.73844	17463796.003516857
1.74097	17550266.09522686
1.74349	16618140.844205324
1.74602	15328112.5802957
1.74854	14711279.52530774
1.75105	13453027.22550379
1.75357	11611011.995235726
1.75608	13143088.125638075
1.75859	16716185.38213041
1.7611	18127447.9690778
1.7636	17462013.389306713
1.7661	14362007.959500805
1.7686	11730410.944008743
1.7711	9402897.094182651
1.77359	7012571.120054642
1.77608	4517457.297902152
1.77857	3359114.3189119534
1.78105	4036764.619802091
1.78354	4765320.7223746665
1.78602	3786902.466816473
1.78849	2909655.098389235
1.79097	3709757.4961038623
1.79344	4988872.828542571
1.79591	6204473.315453407
1.79837	7616017.523049638
1.80084	4996930.631664718
1.8033	2518450.6097665178
1.80576	1263171.66759477
1.80821	847089.5672838175
1.81067	2350943.783514609
1.81312	3641740.5798331867
1.81557	2048357.5305367957
1.81801	1112573.971210888
1.82046	2516850.79452644
1.8229	3826419.617289901
1.82533	2655192.729891138
1.82777	976037.6122054289
1.8302	686049.6707769955
1.83263	1281382.5256226142
1.83506	2071396.3293281135
1.83749	3155485.5032956847
1.83991	3731151.252541385
1.84233	3057556.6048562895
1.84475	2831956.7415639856
1.84716	3177488.9599757465
1.84957	3821563.727056973
1.85198	3641867.8017938593
1.85439	1927615.2761941047
1.8568	1415137.476170512
1.8592	1837477.3177658406
1.8616	1431493.112071523
1.864	795839.2728723498
1.86639	762740.2070439452
1.86878	1192888.2787487614
1.87118	2022760.6997395232
1.87356	3032650.822588936
1.87595	3598734.6193726202
1.87833	5090998.018782675
1.88071	7643910.220363344
1.88309	7430957.756974359
1.88547	5826475.27189713
1.88784	5371192.226794431
1.89021	4975268.2161729215
1.89258	7551703.791626418
1.89494	9467986.50235765
1.89731	6277557.209727867
1.89967	2617757.096497817
1.90203	1001587.9350521009
1.90439	946278.0139539307
1.90674	1576996.3949543177
1.90909	1731605.5239998237
1.91144	1130006.3902048878
1.91379	538617.3178950291
1.91613	481492.166918107
1.91848	840859.0755109662
1.92082	1266742.5702787337
1.92315	1238168.015412339
1.92549	909500.8231524599
1.92782	1040791.8509301249
1.93015	1518333.050386483
1.93248	1914856.460331386
1.93481	1975724.8707911032
1.93713	1717055.5198682155
1.93945	1721501.568942387
1.94177	2198965.6423019636
1.94409	2557746.0392458984
1.94641	2590710.477637731
1.94872	3075267.305469629
1.95103	3718613.8738693665
1.95334	2526266.3870676095
1.95564	1801275.3915986242
1.95795	2128904.884284607
1.96025	2239333.6472496223
1.96255	2280310.1302371165
1.96484	2689026.616372645
1.96714	3770842.139231605
1.96943	5216527.629931222
1.97172	6028395.226152567
1.97401	5537366.116216158
1.97629	5931792.512062504
1.97858	7338512.718792416
1.98086	8152019.581739818
1.98314	9065224.077399323
1.98541	9661357.851429854
1.98769	8974454.914093606
1.98996	7185337.305480445
1.99223	6843144.083241411
1.9945	7998134.659297137
1.99677	7625521.5738996025
1.99903	7508946.641969069
2.00129	9041749.308605358
2.00355	11187617.265246667
2.00581	12362666.396069638
2.00806	12706714.146714963
2.01031	14747326.935418004
2.01256	15752846.745510736
2.01481	14487623.699478965
2.01706	12947156.968133032
2.0193	12998993.975259326
2.02154	14991452.74214712
2.02378	17160328.472161327
2.02602	17672199.597120073
2.02825	18159920.302992087
2.03049	18911438.791218
2.03272	19887358.40203727
2.03494	20861080.341646183
2.03717	21546254.196362894
2.03939	21919121.78429629
2.04162	22925653.895024717
2.04384	23891044.945433304
2.04605	24940763.67109648
2.04827	25876887.93082611
2.05048	25883592.936679352
2.05269	24591294.918016817
2.0549	24328824.83051866
2.05711	24915974.924614985
2.05931	25808291.374172237
2.06151	26519371.034097347
2.06371	27112936.050140128
2.06591	27516998.83060261
2.06811	27830787.986628506
2.0703	27992383.78540294
2.07249	27928631.905679204
2.07468	27560927.146015383
2.07686	27500856.999181435
2.07905	27735168.542006098
2.08123	28006839.665415064
2.08341	28193868.881788794
2.08559	28326533.04995267
2.08776	28462695.909077365
2.08994	28380153.096919134
2.09211	28129374.126735963
2.09428	27868612.343388036
2.09645	27955527.291978966
2.09861	27970497.273054987
2.10077	27874597.614889637
2.10293	27670917.129290342
2.10509	27384081.574451346
2.10725	27117895.57591645
2.1094	27425522.121884927
2.11155	27743351.19887661
2.1137	27793055.714447215
2.11585	27317520.165426724
2.11799	26959605.623751834
2.12013	26857212.84737026
2.12227	26950065.632215213
2.12441	27157633.294970114
2.12655	27262971.48234141
2.12868	27250157.8772472
2.13081	27263144.50161638
2.13294	27286584.163026854
2.13507	26990002.1006832
2.13719	26388866.27135835
2.13931	25870347.69103009
2.14143	25433902.072938625
2.14355	24800237.045022175
2.14567	24465515.916650217
2.14778	24207482.040025223
2.14989	23895916.827956118
2.152	23289310.487321313
2.1541	23455978.195170484
2.15621	23695320.050241522
2.15831	23716126.979165006
2.16041	22950540.31218071
2.16251	22589220.22798891
2.1646	22358837.4851961
2.1667	22227514.265812553
2.16879	22370826.48760274
2.17087	22472731.143584557
2.17296	22468060.04436834
2.17504	22322130.221161466
2.17713	22067613.155762155
2.1792	21690427.22752435
2.18128	21197310.142550156
2.18336	20580026.193813927
2.18543	19866976.061563417
2.1875	19106778.186484337
2.18957	18190698.406954113
2.19163	16636605.426701637
2.1937	14269297.70978468
2.19576	11766727.667006338
2.19782	9423896.037050191
2.19987	8168029.3121033665
2.20193	7433256.827444389
2.20398	7133924.602611851
2.20603	7129198.14994893
2.20808	7533647.728838626
2.21012	8158022.496633229
2.21217	8966286.347712733
2.21421	9409711.47917034
2.21625	9415069.32760877
2.21828	9035727.333477104
2.22032	8852229.670819411
2.22235	8684284.578383923
2.22438	8372547.62483963
2.22641	7512718.021612864
2.22843	6575110.48740945
2.23046	5771777.60202398
2.23248	5293501.547780817
2.2345	5162280.739740546
2.23651	5063329.320258841
2.23853	4950221.888511548
2.24054	4481878.121546192
2.24255	3953825.9208333483
2.24456	3416063.5684300754
2.24657	3507539.4951222125
2.24857	3895895.339166706
2.25057	4440679.437820189
2.25257	4648427.576571429
2.25457	4833053.542244049
2.25656	5003180.228407273
2.25856	5169542.926552462
2.26055	4903792.478692488
2.26254	4407424.181474177
2.26453	3784561.0557693355
2.26651	3409524.8411776945
2.2685	3243623.6664146
2.27048	3487446.8433959396
2.27246	3862476.0221985253
2.27443	4215786.748306159
2.27641	4264546.134046199
2.27838	4084748.4513162533
2.28036	3811525.0100129526
2.28233	3599330.22106491
2.28429	3419392.1072009783
2.28626	3249533.7159253084
2.28823	3046437.9621775323
2.29019	2932725.0347681516
2.29215	2886401.9666333096
2.29411	2968707.645927136
2.29607	3051231.7649968914
2.29802	3133680.6760173296
2.29998	3248739.7143267123
2.30193	3471781.118929444
2.30388	3818901.8403356518
2.30583	4442572.686521692
2.30778	5073467.022037391
2.30972	5671390.1516169775
2.31167	5634971.79878412
2.31361	5183169.127452365
2.31555	3941067.6515711993
2.31749	2917882.912294878
2.31943	2096063.6530431737
2.32137	2006257.7400582647
2.32331	1975095.3561162006
2.32524	1990550.518590641
2.32718	1953882.9082299503
2.32911	1942733.2867827592
2.33104	1969311.4518907748
2.33297	1973887.6710135622
2.3349	1968063.662818588
2.33683	1944547.5340450443
2.33876	1913995.2419235958
2.34068	1875622.2562800662
2.34261	1771589.9513984688
2.34453	1674043.2791986642
2.34646	1582763.1387915078
2.34838	1655957.247231175
2.3503	1822050.6131246248
2.35223	2177019.1586744864
2.35415	2523291.5998509577
2.35607	2859646.2897613086
2.35799	3097465.409985939
2.35991	3338447.971823152
2.36183	3583248.4804341127
2.36375	3487290.1839901414
2.36566	3204394.4686663887
2.36758	2488700.653070333
2.3695	1887492.716831869
2.37142	1359673.1647970905
2.37334	1402093.1387741938
2.37526	1477152.3675253734
2.37718	1601634.4421389764
2.3791	1715971.5998592137
2.38101	1844978.8186455085
2.38293	2111450.9428197416
2.38485	2389818.2656740067
2.38677	2680331.212443608
2.3887	2710008.1446029665
2.39062	2687881.238856607
2.39254	2626227.004936928
2.39446	2631530.3664483754
2.39639	2680006.4348313655
2.39831	2756220.8507972676
2.40024	2779580.725433353
2.40216	2702073.916281801
2.40409	2740202.7604934126
2.40602	2853531.7086777813
2.40795	3296373.867364569
2.40989	3686578.8482643943
2.41182	4007561.0360137597
2.41376	4176183.514472545
2.4157	4350891.221404914
2.41764	4706329.149405455
2.41958	4930970.453519379
2.42152	5049263.100828322
2.42347	4613750.973473808
