#wavelength	surface flux
0.8	232077996.31593582
0.8002000000000001	237074688.77467757
0.8004000500000003	233587531.80689025
0.8006001500125003	230013795.1995864
0.8008003000500035	226439165.15813047
0.8010005001250161	222863641.45916247
0.8012007502500472	219287223.87927496
0.8014010504376099	220890648.1715887
0.8016014007002193	224229861.5948465
0.8018018010503944	227569909.8214601
0.8020022515006572	230910793.06013188
0.8022027520635323	234252511.51961043
0.8024033027515483	236942075.85538647
0.8026039035772362	238992408.26891333
0.8028045545531306	241043253.2655437
0.8030052556917691	243094610.97342423
0.803206007005692	245146481.52072987
0.8034068085074435	246799876.71505702
0.8036076602095705	247335262.4700711
0.8038085621246229	247870782.07152355
0.8040095142651542	248406435.55287665
0.8042105166437206	248942222.94759992
0.8044115692728815	249391038.67602673
0.8046126721651998	246093400.7178674
0.8048138253332411	242794938.3502212
0.8050150287895745	239495651.36698002
0.805216282546772	236195539.5619939
0.8054175866174087	232894602.72905827
0.8056189410140631	230178431.25686455
0.8058203457493168	227627340.86069226
0.8060218008357541	225075612.6919242
0.8062233062859632	222523246.5911127
0.8064248621125346	219970242.39877772
0.806626468328063	218342984.1917787
0.8068281249451449	217510971.16069654
0.8070298319763813	216678750.12635556
0.8072315894343755	215846321.03675663
0.8074333973317341	215013683.839885
0.8076352556810671	214998280.12802452
0.8078371644949874	216950591.1007478
0.8080391237861113	218903390.15121475
0.8082411335670578	220856677.4014431
0.8084431938504498	222810452.97348604
0.8086453046489125	224744933.72605383
0.8088474659750746	226311569.17833808
0.8090496778415686	227878596.2894875
0.809251940261029	229446015.15741357
0.8094542532460944	231013825.88005796
0.8096566168094059	232582028.55538124
0.8098590309636085	231427728.91742158
0.8100614957213493	229635825.04546794
0.8102640110952797	227843473.19754606
0.8104665770980536	226050673.2616615
0.8106691937423283	224257425.1257923
0.8108718610407639	222886880.10535914
0.8110745790060241	221839554.1355856
0.8112773476507757	220791966.33431876
0.8114801669876885	219744116.63610184
0.8116830370294355	218696004.97546098
0.8118859577886929	218749444.4893599
0.8120889292781401	221091411.56455538
0.8122919515104597	223433964.1315195
0.8124950244983374	225777102.3366255
0.8126981482544621	228120826.32628244
0.8129013227915257	230520580.30558637
0.8131045481222237	233555777.17147273
0.8133078242592543	236591732.83657587
0.8135111512153191	239628447.49059448
0.813714529003123	242665921.32327694
0.8139179576353739	245704154.52441812
0.8141214371247829	245356741.23123702
0.8143249674840641	244352559.99238783
0.814528548725935	243348127.7082295
0.8147321808631167	242343444.31599882
0.8149358639083326	241338509.75292036
0.8151395978743097	238385424.73650777
0.8153433827737784	234115519.0092111
0.8155472186194719	229844545.80548415
0.8157511054241268	225572504.85845706
0.815955043200483	221299395.90119028
0.8161590319612831	216722554.76827943
0.8163630717192736	211589974.72446352
0.8165671624872033	206456111.53564236
0.8167713042778252	201320964.88101894
0.8169754971038948	196184534.4397293
0.8171797409781707	190336510.94966704
0.8173840359134155	178816409.18706116
0.8175883819223938	167293427.3990279
0.8177927790178745	155767564.86554107
0.8179972272126291	144238820.86641783
0.8182017265194322	132707194.68130645
0.8184062769510622	130254831.73622808
0.8186108785203001	129199463.56986193
0.8188155312399301	128143831.5614556
0.8190202351227402	127087935.64504601
0.819224990181521	126031775.75465798
0.8194297964290664	133013311.83100525
0.8196346538781738	144841459.427627
0.8198395625416434	156672564.06114322
0.8200445224322789	168506626.4708228
0.820249533562887	180343647.39610133
0.8204545959462778	189948467.23181027
0.8206597095952644	195958258.03891855
0.8208648745226633	201969551.29373324
0.8210700907412941	207982347.3718607
0.8212753582639793	213996646.6490016
0.8214806771035456	219766397.7194189
0.8216860472728215	224021612.47721598
0.8218914687846397	228277891.0387027
0.822096941651836	232535233.669832
0.822302465887249	236793640.6366166
0.8225080415037209	241053112.20514518
0.8227136685140968	245625019.95795965
0.8229193469312254	250233417.83975565
0.8231250767679583	254842967.82102364
0.8233308580371503	259453670.1897844
0.8235366907516598	264065525.23414075
0.8237425749243477	267464847.86589736
0.8239485105680789	270221745.7429717
0.824154497695721	272979332.8445136
0.824360536320145	275737609.34283143
0.8245666264542252	278496575.4102737
0.8247727681108388	279964779.992747
0.8249789613028664	279583750.4024402
0.8251852060431922	279202625.5547355
0.825391502344703	278821405.42581904
0.8255978502202894	278440089.99187
0.8258042496828445	278361491.9360534
0.8260107007452654	279753505.4674837
0.8262172034204517	281145867.0022954
0.8264237577213068	282538576.6274912
0.8266303636607373	283931634.4300938
0.8268370212516525	285325040.4971465
0.8270437305069654	285482654.4536993
0.8272504914395923	285543711.470493
0.8274573040624523	285604783.7515409
0.8276641683884679	285665871.300659
0.8278710844305652	285726974.12166446
0.8280780522016729	287792293.9584478
0.8282850717147234	290774247.02912515
0.8284921429826521	293756945.58806705
0.8286992660183978	296740389.8216511
0.8289064408349024	299724579.9162914
0.8291136674451112	303259344.43572336
0.8293209458619727	307488298.67847914
0.8295282760984382	311718310.15979
0.829735658167463	315949379.14397603
0.8299430920820048	320181505.8954027
0.8301505778550254	323610242.40849936
0.8303581154994891	323829047.4871938
0.8305657050283641	324047907.26715815
0.8307733464546212	324266821.7620673
0.8309810397912352	324485790.98560053
0.8311887850511829	324704814.9514392
0.8313965822474458	328413612.8556647
0.8316044313930077	332285314.2863579
0.8318123325008561	336157983.6424124
0.8320202855839813	340031621.1658041
0.8322282906553774	343906227.0985769
0.8324363477280413	347824164.23705786
0.8326444568149735	351760135.87470627
0.8328526179291771	355697091.50525945
0.8330608310836596	359635031.37472624
0.8332690962914304	363573955.72915524
0.8334774135655034	365087543.43892926
0.833685782918895	363891228.89030504
0.8338942043646247	362694615.2630444
0.834102677915716	361497702.4823761
0.834311203585195	360300490.4735136
0.8345197813860912	360800636.05200887
0.8347284113314379	367015378.51800114
0.8349370934342709	373231674.6696064
0.8351458277076294	379449524.89524204
0.8353546141645565	385668929.5834445
0.8355634528180977	391889889.1228163
0.8357723436813022	384564333.7075585
0.8359812867672226	377069662.7571907
0.8361902820889144	369573118.13908905
0.8363993296594368	362074699.38483065
0.8366084294918518	354574406.0258812
0.8368175815992247	348587102.79784137
0.8370267859946247	343120037.87974244
0.8372360426911234	337651606.1954157
0.8374453517017962	332181807.4031684
0.8376547130397217	326710641.16122365
0.8378641267179816	326477241.14290005
0.8380735927496613	331442365.6350243
0.8382831111478488	336408731.4082687
0.8384926819256358	341376338.7729537
0.8387023050961173	346345188.0394842
0.8389119806723914	349291803.9475595
0.8391217086675596	346544435.06204826
0.8393314890947265	343796379.33431774
0.8395413219670003	341047636.592655
0.8397512072974922	338298206.665305
0.8399611450993165	335564218.91618884
0.8401711353855914	333630534.64924306
0.8403811781694378	331696366.9612311
0.8405912734639802	329761715.7312967
0.8408014212823464	327826580.83855385
0.8410116216376671	325890962.1620881
0.8412218745430766	323773850.4395526
0.8414321800117124	321603542.76384217
0.8416425380567154	319432692.5112117
0.8418529486912297	317261299.5460176
0.8420634119284025	315089363.732584
0.8422739277813847	321171426.6311126
0.8424844962633302	334527581.5864887
0.842695117387396	347887075.5805867
0.8429057911667428	361249909.44818366
0.8431165176145345	374616084.024254
0.8433272967439382	382697582.73356616
0.8435381285681244	377882160.9855591
0.8437490131002665	373065535.3821161
0.8439599503535415	368247705.62227523
0.84417094034113	363428671.4049909
0.8443819830762154	358258117.2384178
0.8445930785719846	346029140.9684087
0.8448042268416277	333797107.45433885
0.8450154278983382	321562015.931892
0.8452266817553128	309323865.6365655
0.8454379884257517	297082655.80366373
0.8456493479228583	298515289.96174294
0.845860760259839	303241845.20737714
0.846072225449904	307969582.09182274
0.8462837435062666	312698500.9104904
0.8464953144421433	317428601.9588655
0.8467069382707537	321083100.5015739
0.8469186150053215	323899191.80730635
0.847130344659073	326715987.135866
0.8473421272452377	329533486.663255
0.8475539627770492	332351690.5655287
0.8477658512677435	333925978.4810816
0.8479777927305605	332857872.151056
0.8481897871787432	331789498.7944482
0.848401834625538	330720858.34450054
0.8486139350841944	329651950.73444116
0.8488260885679657	328430534.44228876
0.8490382950901076	325353043.5032819
0.8492505546638802	322274783.19153875
0.8494628673025462	319195753.3147187
0.8496752330193721	316115953.6804249
0.8498876518276269	313035384.09622675
0.8501001237405839	314046007.81495863
0.8503126487715191	315873711.95980024
0.850525226933712	317701873.0306771
0.8507378582404455	319530491.1418216
0.8509505427050057	321359566.40749496
0.8511632803406821	328207195.04577535
0.8513760711607672	338493012.5247081
0.8515889151785576	348781401.4580265
0.8518018124073523	359072362.4885697
0.8520147628604541	369365896.2593644
0.8522277665511693	379156997.4774335
0.8524408234928071	388016599.0354538
0.8526539336986805	396878415.49386597
0.8528670971821053	405742447.4063933
0.8530803139564007	414608695.3268883
0.8532935840348901	422479249.2551363
0.8535069074308987	421923906.2580398
0.8537202841577566	421368424.4251934
0.8539337142287962	420812803.72188884
0.8541471976573534	420257044.1134088
0.8543607344567677	419701145.5650265
0.8545743246403821	417176696.675323
0.8547879682215422	414339010.4505509
0.8550016652135977	411500614.80422294
0.8552154156299011	408661509.5589833
0.8554292194838088	405821694.5374303
0.8556430767886797	400564825.52234596
0.855856987557877	393839502.0084717
0.8560709518047664	387112497.16372335
0.8562849695427177	380383810.56776124
0.8564990407851035	373653441.80014825
0.8567131655452999	369025914.20590717
0.8569273438366862	367845562.15361345
0.8571415756726455	366664915.0133064
0.8573558610665638	365483972.7112138
0.8575702000318304	364302735.173547
0.8577845925818384	366459779.4106856
0.857999038729984	389471345.3189687
0.8582135384896665	412488664.11872375
0.858428091874289	435511737.24818
0.8586426988972576	458540566.1459124
0.8588573595719821	481575152.25087714
0.8590720739118751	472557487.16242635
0.8592868419303532	459757832.5085735
0.8595016636408359	446954977.9410571
0.8597165390567462	434148922.65990305
0.8599314681915105	421339665.8649255
0.8601464510585584	409469924.33284396
0.860361487671323	398097603.2745084
0.8605765780432408	386722439.1359115
0.8607917221877518	375344431.2062707
0.8610069201182988	363963578.7746505
0.8612221718483286	343140670.2770777
0.8614374773912907	308704656.1986132
0.8616528367606385	274260033.1166385
0.8618682499698288	239806798.87887147
0.8620837170323213	205344951.3325507
0.8622992379615795	176269901.76154673
0.8625148127710699	173887417.44573957
0.8627304414742627	171504337.50885326
0.8629461240846313	169120661.80198234
0.8631618606156526	166736390.17618454
0.8633776510808066	164351522.48248067
0.8635934954935769	191177961.03361574
0.8638093938674504	220405658.6728725
0.8640253462159173	249640663.23653814
0.8642413525524714	278882976.55134404
0.8644574128906095	308132600.44447255
0.8646735272438323	303465319.3270139
0.8648896956256433	283021170.2951369
0.8651059180495498	262571910.22600085
0.8653221945290621	242117537.84186703
0.8655385250776946	221658051.86460856
0.8657549097089641	213609943.66458663
0.8659713484363913	221455663.48797306
0.8661878412735006	229303344.741319
0.866404388233819	237152987.9149772
0.8666209893308775	245004593.49942517
0.8668376445782103	251081288.0629827
0.8670543539893549	249907177.31021705
0.8672711175778525	248732773.0297624
0.8674879353572469	247558075.14823893
0.8677048073410862	246383083.59224463
0.8679217335429217	245207798.2883606
0.8681387139763074	239475906.36331353
0.8683557486548015	233516235.4536187
0.8685728375919655	227555074.62618914
0.8687899808013633	221592423.5085657
0.8690071782965637	215628281.72815514
0.869224430091138	210519300.03618765
0.8694417361986609	205757611.35817906
0.8696590966327107	200994732.25800198
0.869876511406869	196230662.43804964
0.8700939805347206	191465401.6006446
0.8703115040298544	187902045.01293474
0.870529081905862	185713283.85934848
0.8707467141763385	183523975.51547453
0.8709644008548827	181334119.84451473
0.8711821419550964	179143716.70963854
0.8713999374905854	178250608.96984288
0.871617787474958	181836584.43285188
0.8718356919218269	185423456.3897299
0.8720536508448075	189011225.06459737
0.8722716642575187	192599890.68163145
0.8724897321735832	196189453.46507138
0.8727078546066265	198502275.11590427
0.8729260315702784	200796237.89906302
0.873144263078171	203090774.17291507
0.8733625491439405	205385884.08083582
0.8735808897812266	207681567.76623446
0.8737992850036719	206662031.90569437
0.874017734824923	204467841.63606018
0.8742362392586293	202273102.8188595
0.874454798318444	200077815.3169546
0.8746734120180236	197881978.99317443
0.8748920803710283	196404006.91260865
0.875110803391121	195647602.15208822
0.8753295810919689	194891008.29037723
0.875548413487242	194134225.28020084
0.8757673005906139	193377253.07427186
0.8759862424157616	194589487.82310852
0.8762052389763657	201500566.47016677
0.8764242902861098	208413372.88688198
0.8766433963586814	215327907.50520325
0.8768625572077712	222244170.7571812
0.8770817728470732	229155739.94528806
0.8773010432902849	235567535.26706332
0.8775203685511077	241980933.53767824
0.8777397486432454	248395935.15785283
0.8779591835804065	254812540.52844024
0.8781786733763015	261230750.0503618
0.8783982180446457	252596504.17612335
0.878617817599157	239481798.2876619
0.8788374720535569	226363813.72273457
0.8790571814215703	213242549.66166925
0.8792769457169257	200118005.2845884
0.879496764953355	192479443.23376969
0.8797166391445934	189774179.93640605
0.8799365683043796	187068240.32321787
0.8801565524464557	184361624.22512645
0.8803765915845676	181654331.47300798
0.8805966857324639	182358797.11223933
0.880816834903897	191634453.12061688
0.881037039112623	200912428.0430002
0.8812572983724012	210192722.45911324
0.8814776126969944	219475336.9488344
0.8816979821001687	228243948.7381275
0.8819184065956938	224860414.01906717
0.8821388861973429	221476033.4163236
0.8823594209188923	218090806.7184326
0.882580010774122	214704733.71386865
0.8828006557768155	211317814.1910517
0.8830213559407598	218008963.11792657
0.8832421112797452	227236734.30791003
0.8834629218075651	236466812.4406854
0.8836837875380171	245699198.09299675
0.8839047084849018	254933891.84172267
0.884125684662023	252094383.26685646
0.8843467160831886	239576383.59867427
0.8845678027622095	227055254.430575
0.8847889447129001	214530994.9801814
0.8850101419490785	202003604.46492743
0.8852313944845657	199930732.82711267
0.885452702333187	220747857.77070606
0.8856740655087704	241570186.9955323
0.8858954840251476	262397721.80265915
0.8861169578961539	283230463.4934781
0.886338487135628	301284719.98907465
0.886560071757412	282299749.7534515
0.8867817117753515	263310033.27527002
0.8870034072032955	244315569.3679604
0.8872251580550963	225316356.84469622
0.8874469643446101	206312394.5182895
0.8876688260856963	205299788.07803258
0.8878907432922178	208011453.43788064
0.8881127159780409	210723796.71406686
0.8883347441570356	213436818.07607543
0.8885568278430749	216150517.69342166
0.8887789670500358	215873898.2429517
0.8890011617917983	213475474.8451587
0.8892234120822464	211076451.84151518
0.8894457179352669	208676829.08212268
0.8896680793647509	206276606.41703844
0.8898904963845921	205677222.28257477
0.8901129690086883	208514880.54378882
0.8903354972509405	211353248.21956745
0.8905580811252535	214192325.48726726
0.8907807206455347	217032112.52428013
0.8910034158256963	219558174.84195167
0.8912261666796527	219274777.42559382
0.8914489732213227	218991309.15988183
0.8916718354646282	218707770.0271031
0.8918947534234944	218424160.00954148
0.8921177271118502	218140479.08947563
0.8923407565436284	220995082.2852973
0.8925638417327644	224362350.17419794
0.8927869826931977	227730459.88007194
0.8930101794388711	231099411.61337215
0.8932334319837308	234469205.58460516
0.8934567403417267	239612465.17660487
0.8936801045268123	245858487.22066873
0.8939035245529441	252106070.77023935
0.8941270004340824	258355216.21569985
0.894350532184191	264605923.94752008
0.8945741198172371	267814973.20072776
0.8947977633471915	265978005.43652034
0.8950214627880284	264140578.4303719
0.8952452181537254	262302692.06747308
0.8954690294582639	260464346.2329824
0.8956928967156286	258452571.94400457
0.8959168199398075	255317788.3743672
0.8961407991447926	252182221.10883662
0.8963648343445789	249045869.95148975
0.896588925553165	245908734.7063553
0.8968130727845534	242770815.17740917
0.8970372760527496	251885658.07039338
0.8972615353717629	262535945.15531194
0.8974858507556059	273188894.81200296
0.8977102222182949	283844507.7061053
0.8979346497738496	294502784.50343704
0.8981591334362931	300367903.5082498
0.8983836732196523	303611766.30998975
0.8986082691379572	306856440.0774279
0.8988329212052417	310101925.01330805
0.8990576294355432	313348221.3204249
0.8992823938429022	308920499.0859461
0.8995072144413631	293080172.8604042
0.8997320912449734	277235886.5533116
0.8999570242677847	261387639.17464593
0.9001820135238516	245535429.7341345
0.9004070590272328	232373284.07364768
0.9006321607919896	233330855.6350038
0.9008573188321878	234288666.58925125
0.9010825331618959	235246716.99623677
0.9013078037951865	236205006.9158242
0.9015331307461353	237163536.40789104
0.9017585140288219	240069138.42002153
0.9019839536573292	243143152.59545696
0.9022094496457435	246217935.27443403
0.9024350020081551	249293486.64908433
0.9026606107586572	252369806.91157728
0.902886275911347	257131397.81425637
0.9031119974803249	262706226.11879516
0.9033377754796951	268282448.13041016
0.903563609923565	273860064.19752556
0.903789500826046	279439074.6686615
0.9040154482012526	283425059.6311852
0.904241452063303	285346608.8578598
0.9044675124263188	287268638.4718407
0.9046936293044254	289191148.5932247
0.9049198027117517	291114139.3421401
0.9051460326624297	291481944.39249253
0.9053723191705955	285225451.76201
0.9055986622503881	278967395.0083757
0.9058250619159507	272707773.7405528
0.9060515181814298	266446587.56740898
0.9062780310609752	260183836.09772623
0.9065046005687405	262190861.59392413
0.906731226718883	264659822.59877962
0.9069579095255627	267129400.8438831
0.907184649002944	269599596.48354805
0.907411445165195	272070409.6721254
0.9076382980264862	266056476.9750996
0.907865207600993	256517085.01205882
0.9080921739028933	246975308.20103008
0.9083191969463691	237431145.94580013
0.9085462767456058	227884597.6500017
0.9087734133147922	232254240.28007185
0.9090006066681211	252701104.93004736
0.909227856819788	273153081.29615843
0.9094551637839932	293610170.6563892
0.9096825275749393	314072374.2889535
0.9099099482068329	327262498.8146252
0.9101374256938848	314592644.87388605
0.9103649600503083	301919623.4696677
0.9105925512903209	289243433.81010073
0.9108201994281437	276564075.1031056
0.9110479044780008	263881546.55644822
0.9112756664541204	266033073.87732363
0.911503485370734	268524760.5788708
0.9117313612420768	271017070.20209336
0.9119592940823873	273510002.9027209
0.912187283905908	276003558.8365245
0.9124153307268845	275485235.752894
0.9126434345595664	273873420.80045587
0.9128715954182063	272261202.8942812
0.9130998133170609	270648581.93362916
0.9133280882703902	269035557.8177371
0.913556420292458	268649969.76630056
0.9137848093975312	269530574.13860273
0.9140132555998806	270411398.6619979
