#wavelength	surface flux
0.8	60263.11689434553
0.8002000000000001	60523.56716289851
0.8004000500000003	60977.7740479753
0.8006001500125003	61434.05095967159
0.8008003000500035	61890.44194059585
0.8010005001250161	62346.94701926555
0.8012007502500472	62803.56622420425
0.8014010504376099	63080.26097510749
0.8016014007002193	63296.71746611903
0.8018018010503944	63513.22807125331
0.8020022515006572	63729.792804038974
0.8022027520635323	63946.41167800765
0.8024033027515483	64165.011295779346
0.8026039035772362	64385.5535456734
0.8028045545531306	64606.15093112994
0.8030052556917691	64826.80346593294
0.803206007005692	65047.51116386946
0.8034068085074435	65309.31675715229
0.8036076602095705	65686.2365619027
0.8038085621246229	66063.250596604
0.8040095142651542	66440.35888481421
0.8042105166437206	66817.56145009634
0.8044115692728815	67193.04457617093
0.8046126721651998	67490.60942655097
0.8048138253332411	67788.2486681434
0.8050150287895745	68085.96231954648
0.805216282546772	68383.75039936232
0.8054175866174087	68681.61292619798
0.8056189410140631	68946.50833802315
0.8058203457493168	69202.11706335281
0.8060218008357541	69457.78969086349
0.8062233062859632	69713.52623653115
0.8064248621125346	69969.32671633507
0.806626468328063	70297.2438103484
0.8068281249451449	70687.12740557408
0.8070298319763813	71077.10847169903
0.8072315894343755	71467.18703309022
0.8074333973317341	71857.36311412191
0.8076352556810671	72102.97414265347
0.8078371644949874	72000.41954813618
0.8080391237861113	71897.83931497023
0.8082411335670578	71795.23343674604
0.8084431938504498	71692.6019070522
0.8086453046489125	71578.37087300741
0.8088474659750746	71248.62699549858
0.8090496778415686	70918.80068201994
0.809251940261029	70588.89191196316
0.8094542532460944	70258.90066471358
0.8096566168094059	69928.82691965257
0.8098590309636085	69712.16986287812
0.8100614957213493	69522.02405792636
0.8102640110952797	69331.83071652333
0.8104665770980536	69141.58982678487
0.8106691937423283	68951.30137682392
0.8108718610407639	68838.94569836513
0.8110745790060241	68786.1894068457
0.8112773476507757	68733.41992625334
0.8114801669876885	68680.63725329084
0.8116830370294355	68627.84138466013
0.8118859577886929	68471.71011256459
0.8120889292781401	68100.93507085189
0.8122919515104597	67730.0673353788
0.8124950244983374	67359.10688297183
0.8126981482544621	66988.0536904518
0.8129013227915257	66646.58272075203
0.8131045481222237	66644.80951121525
0.8133078242592543	66643.03585837608
0.8135111512153191	66641.26176212372
0.813714529003123	66639.48722234728
0.8139179576353739	66637.7122389359
0.8141214371247829	68532.40902679172
0.8143249674840641	70795.33734965601
0.814528548725935	73058.83140459967
0.8147321808631167	75322.89133306012
0.8149358639083326	77587.51727650198
0.8151395978743097	78912.57884198273
0.8153433827737784	79602.78003930932
0.8155472186194719	80293.15378693498
0.8157511054241268	80983.70012799744
0.815955043200483	81674.41910564562
0.8161590319612831	82194.58825600913
0.8163630717192736	82402.05926474642
0.8165671624872033	82609.58214123567
0.8167713042778252	82817.15689844426
0.8169754971038948	83024.78354934225
0.8171797409781707	83143.17923392078
0.8173840359134155	82548.83169066801
0.8175883819223938	81954.33556053012
0.8177927790178745	81359.69080635936
0.8179972272126291	80764.89739099989
0.8182017265194322	80169.95527728718
0.8184062769510622	81355.5786757972
0.8186108785203001	82815.5240469929
0.8188155312399301	84275.83440452944
0.8190202351227402	85736.50983965698
0.819224990181521	87197.55044364238
0.8194297964290664	87791.00264564446
0.8196346538781738	87861.44568042725
0.8198395625416434	87931.90632596871
0.8200445224322789	88002.38458667159
0.820249533562887	88072.8804669396
0.8204545959462778	88268.12686410017
0.8206597095952644	88664.17629667277
0.8208648745226633	89060.32474160382
0.8210700907412941	89456.57222364604
0.8212753582639793	89852.91876755837
0.8214806771035456	89933.61407330578
0.8216860472728215	88068.92285918628
0.8218914687846397	86203.76547226314
0.822096941651836	84338.14179599233
0.822302465887249	82472.0517138035
0.8225080415037209	80605.49510909314
0.8227136685140968	81186.36871719729
0.8229193469312254	82045.27499719657
0.8231250767679583	82904.39600376613
0.8233308580371503	83763.73179058687
0.8235366907516598	84623.28241135494
0.8237425749243477	85801.92768508218
0.8239485105680789	87149.87950145992
0.824154497695721	88498.16830579088
0.824360536320145	89846.79418232318
0.8245666264542252	91195.75721532454
0.8247727681108388	92226.1292551694
0.8249789613028664	92799.99363069546
0.8251852060431922	93374.0014723159
0.825391502344703	93948.15281589648
0.8255978502202894	94522.44769731347
0.8258042496828445	95075.40831503358
0.8260107007452654	95524.1985429407
0.8262172034204517	95973.10096840435
0.8264237577213068	96422.11561947447
0.8266303636607373	96871.24252420757
0.8268370212516525	97320.48171066663
0.8270437305069654	96566.59758129255
0.8272504914395923	95718.49993674793
0.8274573040624523	94870.19026779199
0.8276641683884679	94021.66852141955
0.8278710844305652	93172.9346446095
0.8280780522016729	93292.91206569094
0.8282850717147234	93855.8126101693
0.8284921429826521	94418.85387978322
0.8286992660183978	94982.03590971498
0.8289064408349024	95545.35873515382
0.8291136674451112	95648.30139251008
0.8293209458619727	95170.57588246565
0.8295282760984382	94692.73094104433
0.829735658167463	94214.7665383871
0.8299430920820048	93736.68264462984
0.8301505778550254	93236.5835911806
0.8303581154994891	92648.96760697405
0.8305657050283641	92061.20471877087
0.8307733464546212	91473.29488984607
0.8309810397912352	90885.2380834631
0.8311887850511829	90297.0342628797
0.8313965822474458	92180.9185145388
0.8316044313930077	94180.02324683119
0.8318123325008561	96179.62775530851
0.8320202855839813	98179.73216491198
0.8322282906553774	100180.33660061801
0.8324363477280413	100739.95734921473
0.8326444568149735	100719.38169509117
0.8328526179291771	100698.8008970541
0.8330608310836596	100678.21495381747
0.8332690962914304	100657.62386409508
0.8334774135655034	100499.40529233309
0.833685782918895	100187.41849913516
0.8338942043646247	99875.35370923912
0.834102677915716	99563.21090314539
0.834311203585195	99250.99006135039
0.8345197813860912	99387.56072673667
0.8347284113314379	101035.10245830414
0.8349370934342709	102683.05607530357
0.8351458277076294	104331.42168070524
0.8353546141645565	105980.19937751103
0.8355634528180977	107629.38926874031
0.8357723436813022	105079.01046586805
0.8359812867672226	102476.13500465096
0.8361902820889144	99872.60882456988
0.8363993296594368	97268.43176294302
0.8366084294918518	94663.60365704984
0.8368175815992247	95017.84407559186
0.8370267859946247	96391.53092948643
0.8372360426911234	97765.56120509405
0.8374453517017962	99139.93498827046
0.8376547130397217	100514.65236489246
0.8378641267179816	101350.77647055841
0.8380735927496613	101652.3440554306
0.8382831111478488	101953.98703219883
0.8384926819256358	102255.70541971108
0.8387023050961173	102557.49923682048
0.8389119806723914	102806.73162635138
0.8391217086675596	102907.88895518436
0.8393314890947265	103009.07157334949
0.8395413219670003	103110.27948716916
0.8397512072974922	103211.51270296735
0.8399611450993165	103346.68366588134
0.8401711353855914	105165.96801329775
0.8403811781694378	106985.70718180054
0.8405912734639802	108805.9012850959
0.8408014212823464	110626.55043691794
0.8410116216376671	112447.6547510277
0.8412218745430766	113901.68680637339
0.8414321800117124	115249.14603949111
0.8416425380567154	116596.94213741776
0.8418529486912297	117945.07518436921
0.8420634119284025	119293.54526458128
0.8422739277813847	119990.57037827237
0.8424844962633302	120113.52444062516
0.842695117387396	120236.50924149336
0.8429057911667428	120359.5247885618
0.8431165176145345	120482.57108951706
0.8433272967439382	120638.84887903783
0.8435381285681244	120876.1515177019
0.8437490131002665	121113.51348202559
0.8439599503535415	121350.93478684021
0.84417094034113	121588.4154469812
0.8443819830762154	121836.82059315123
0.8445930785719846	122304.1665285198
0.8448042268416277	122771.62930037193
0.8450154278983382	123239.20893791698
0.8452266817553128	123706.90547037138
0.8454379884257517	124174.71892695893
0.8456493479228583	124781.49088233875
0.845860760259839	125421.84924350589
0.846072225449904	126062.36769426332
0.8462837435062666	126703.04627463355
0.8464953144421433	127343.88502464927
0.8467069382707537	127757.85104496736
0.8469186150053215	127994.95535312727
0.847130344659073	128232.1189373643
0.8473421272452377	128469.34181249714
0.8475539627770492	128706.62399334901
0.8477658512677435	129040.42306180052
0.8479777927305605	129579.12052192522
0.8481897871787432	130117.95265641481
0.848401834625538	130656.91949893832
0.8486139350841944	131196.02108317215
0.8488260885679657	131717.99910502823
0.8490382950901076	132029.7346106556
0.8492505546638802	132341.54805015956
0.8494628673025462	132653.43944302326
0.8496752330193721	132965.40880873566
0.8498876518276269	133277.45616678905
0.8501001237405839	133170.51103120937
0.8503126487715191	132979.88532638588
0.850525226933712	132789.2119651363
0.8507378582404455	132598.49093554635
0.8509505427050057	132407.72222569893
0.8511632803406821	132434.0966795045
0.8513760711607672	132609.21369187738
0.8515889151785576	132784.37448350363
0.8518018124073523	132959.57906532765
0.8520147628604541	133134.82744829703
0.8522277665511693	133521.09418418788
0.8524408234928071	134297.6293980495
0.8526539336986805	135074.35874571477
0.8528670971821053	135851.28227571704
0.8530803139564007	136628.40003660085
0.8532935840348901	137400.35442058815
0.8535069074308987	138127.2536476274
0.8537202841577566	138854.33459947404
0.8539337142287962	139581.5973215587
0.8541471976573534	140309.04185932342
0.8543607344567677	141036.66825822272
0.8545743246403821	141620.13560209257
0.8547879682215422	142180.82581835668
0.8550016652135977	142741.6562071748
0.8552154156299011	143302.62680359013
0.8554292194838088	143863.73764265497
0.8556430767886797	144278.04505983772
0.855856987557877	144603.23572049613
0.8560709518047664	144928.50767881953
0.8562849695427177	145253.8609551326
0.8564990407851035	145579.29556976486
0.8567131655452999	145902.95202887402
0.8569273438366862	146223.64252606223
0.8571415756726455	146544.4131958748
0.8573558610665638	146865.26405835492
0.8575702000318304	147186.19513355035
0.8577845925818384	147515.58620341064
0.857999038729984	147897.4027009709
0.8582135384896665	148279.3146526555
0.858428091874289	148661.32208232803
0.8586426988972576	149043.42501385786
0.8588573595719821	149425.62347112072
0.8590720739118751	149714.64663298934
0.8592868419303532	149992.7451393297
0.8595016636408359	150270.9131702966
0.8597165390567462	150549.1507432712
0.8599314681915105	150827.45787563908
0.8601464510585584	151067.82442683305
0.860361487671323	151288.07554315726
0.8605765780432408	151508.38172226047
0.8607917221877518	151728.74297790864
0.8610069201182988	151949.15932387067
0.8612221718483286	152067.6971168195
0.8614374773912907	152039.31338281432
0.8616528367606385	152010.92255287565
0.8618682499698288	151982.52462522947
0.8620837170323213	151954.1195981014
0.8622992379615795	152016.9999218743
0.8625148127710699	152531.66733562236
0.8627304414742627	153046.4634162239
0.8629461240846313	153561.3881958457
0.8631618606156526	154076.44170666244
0.8633776510808066	154591.6239808568
0.8635934954935769	154936.22673585097
0.8638093938674504	155266.92237222302
0.8640253462159173	155597.70068250416
0.8642413525524714	155928.56168736285
0.8644574128906095	156259.50540747266
0.8646735272438323	156667.41030456216
0.8648896956256433	157111.1677831643
0.8651059180495498	157555.03620113616
0.8653221945290621	157999.01558621204
0.8655385250776946	158443.10596613484
0.8657549097089641	158965.40157620359
0.8659713484363913	159587.8055129284
0.8661878412735006	160210.3650506377
0.866404388233819	160833.08022823132
0.8666209893308775	161455.95108461907
0.8668376445782103	162014.58295191746
0.8670543539893549	162310.52698935775
0.8672711175778525	162606.54501280762
0.8674879353572469	162902.637040763
0.8677048073410862	163198.80309172548
0.8679217335429217	163495.04318420088
0.8681387139763074	163604.2018341749
0.8683557486548015	163704.09036526675
0.8685728375919655	163804.00386849148
0.8687899808013633	163903.9423500918
0.8690071782965637	164003.90581631265
0.869224430091138	164673.61693388084
0.8694417361986609	165575.31490956616
0.8696590966327107	166477.23830974524
0.869876511406869	167379.3871907744
0.8700939805347206	168281.76160902338
0.8703115040298544	169109.5641560583
0.870529081905862	169852.05851334185
0.8707467141763385	170594.73849421446
0.8709644008548827	171337.60414508224
0.8711821419550964	172080.6555123623
0.8713999374905854	172747.74082220852
0.871617787474958	173152.1665498884
0.8718356919218269	173556.6933840006
0.8720536508448075	173961.32134982132
0.8722716642575187	174366.05047263327
0.8724897321735832	174770.88077772612
0.8727078546066265	175033.31721053564
0.8729260315702784	175293.65143484983
0.873144263078171	175554.05074271985
0.8733625491439405	175814.51515041685
0.8735808897812266	176075.04467421587
0.8737992850036719	175988.91539517618
0.874017734824923	175779.96066706427
0.8742362392586293	175570.95370027042
0.874454798318444	175361.89448173487
0.8746734120180236	175152.78299839472
0.8748920803710283	175035.3416580053
0.875110803391121	175010.04325027726
0.8753295810919689	174984.73851794726
0.875548413487242	174959.4274594342
0.8757673005906139	174934.11007315648
0.8759862424157616	175110.60461320536
0.8762052389763657	175871.1139240306
0.8764242902861098	176631.81336218305
0.8766433963586814	177392.70297519522
0.8768625572077712	178153.7828106109
0.8770817728470732	178907.28258703992
0.8773010432902849	179054.28306072374
0.8775203685511077	179201.32028452618
0.8777397486432454	179348.3942676344
0.8779591835804065	179495.50501923857
0.8781786733763015	179642.65254853046
0.8783982180446457	179349.65902964683
0.878617817599157	178925.64758400785
0.8788374720535569	178501.53013550764
0.8790571814215703	178077.30665764541
0.8792769457169257	177652.9771239137
0.879496764953355	176577.6771624009
0.8797166391445934	174916.93857984734
0.8799365683043796	173255.784812648
0.8801565524464557	171594.2157570069
0.8803765915845676	169932.23130910032
0.8805966857324639	169187.52258542945
0.880816834903897	170747.59291752893
0.881037039112623	172308.05326721206
0.8812572983724012	173868.90373198243
0.8814776126969944	175430.1444093697
0.8816979821001687	176876.0645331353
0.8819184065956938	175598.4929269653
0.8821388861973429	174320.60192789242
0.8823594209188923	173042.391456071
0.882580010774122	171763.8614316322
0.8828006557768155	170485.0117746866
0.8830213559407598	170038.06282028547
0.8832421112797452	169800.3140106412
0.8834629218075651	169562.50576379464
0.8836837875380171	169324.6380648863
0.8839047084849018	169086.7108990532
0.884125684662023	169347.84822487985
0.8843467160831886	170009.03495429197
0.8845678027622095	170670.38698038645
0.8847889447129001	171331.9043444876
0.8850101419490785	171993.5870879296
0.8852313944845657	172429.8389223602
0.885452702333187	172372.3971235837
0.8856740655087704	172314.9409643575
0.8858954840251476	172257.47044109151
0.8861169578961539	172199.98555019472
0.886338487135628	171999.6767618923
0.886560071757412	169898.89343284693
0.8867817117753515	167797.58490796934
0.8870034072032955	165695.75105595958
0.8872251580550963	163593.3917454893
0.8874469643446101	161490.5068451901
0.8876688260856963	162423.79988831142
0.8878907432922178	163985.81099572207
0.8881127159780409	165548.21260590857
0.8883347441570356	167111.00481649954
0.8885568278430749	168674.1877251415
0.8887789670500358	170058.16702770954
0.8890011617917983	171315.09278974312
0.8892234120822464	172572.33278321777
0.8894457179352669	173829.88708668976
0.8896680793647509	175087.75577873862
0.8898904963845921	175535.454261782
0.8901129690086883	174436.83857299612
0.8903354972509405	173337.94823028834
0.8905580811252535	172238.78316499403
0.8907807206455347	171139.34330843488
0.8910034158256963	169995.42804788283
0.8912261666796527	168456.20814362986
0.8914489732213227	166916.60343440037
0.8916718354646282	165376.61382399208
0.8918947534234944	163836.23921618267
0.8921177271118502	162295.47951472225
0.8923407565436284	159398.01830808696
0.8925638417327644	156278.58066515866
0.8927869826931977	153158.36316281863
0.8930101794388711	150037.3656061032
0.8932334319837308	146915.58779999908
0.8934567403417267	143677.41572713124
0.8936801045268123	140366.5937301597
0.8939035245529441	137054.9440276911
0.8941270004340824	133742.46641279562
0.894350532184191	130429.16067849727
0.8945741198172371	130828.03077460268
0.8947977633471915	137384.5750813963
0.8950214627880284	143942.75852426633
0.8952452181537254	150502.58151299317
0.8954690294582639	157064.04445747117
0.8956928967156286	162709.41449817526
0.8959168199398075	162400.43388488487
0.8961407991447926	162091.37602644108
0.8963648343445789	161782.2409035327
0.896588925553165	161473.02849684373
0.8968130727845534	161163.73878705307
0.8970372760527496	160685.11901316463
0.8972615353717629	160185.20265791236
0.8974858507556059	159685.16132357123
0.8977102222182949	159184.99497889666
0.8979346497738496	158684.70359263563
0.8981591334362931	163123.96533114993
0.8983836732196523	170265.73074203153
0.8986082691379572	177409.28159426115
0.8988329212052417	184554.61833420384
0.8990576294355432	191701.74140833766
0.8992823938429022	196521.91129249323
0.8995072144413631	197880.74582014186
0.8997320912449734	199239.92005642195
0.8999570242677847	200599.4340862608
0.9001820135238516	201959.28799460718
0.9004070590272328	203027.79582008926
0.9006321607919896	202567.45300505473
0.9008573188321878	202106.99510431598
0.9010825331618959	201646.42208910227
0.9013078037951865	201185.73393063465
0.9015331307461353	200724.9306001277
0.9017585140288219	200833.73747895448
0.9019839536573292	200991.64348580517
0.9022094496457435	201149.58896915748
0.9024350020081551	201307.57393888079
0.9026606107586572	201465.5984048465
0.902886275911347	204267.80152393263
0.9031119974803249	208345.36431176512
0.9033377754796951	212423.94649029465
0.903563609923565	216503.54831436696
0.903789500826046	220584.17003889804
0.9040154482012526	223176.06471044067
0.904241452063303	223838.76992397965
0.9044675124263188	224501.6408138219
0.9046936293044254	225164.67742138647
0.9049198027117517	225827.87978810328
0.9051460326624297	226339.94523230474
0.9053723191705955	226207.8564994234
0.9055986622503881	226075.73474435892
0.9058250619159507	225943.5799588557
0.9060515181814298	225811.39213465602
0.9062780310609752	225679.17126350038
0.9065046005687405	219972.33708539515
0.906731226718883	213953.08684784186
0.9069579095255627	207932.33179773705
0.907184649002944	201910.07155886924
0.907411445165195	195886.3057549356
0.9076382980264862	198925.38983323178
0.907865207600993	205729.6438681431
0.9080921739028933	212535.5989665611
0.9083191969463691	219343.25555375265
0.9085462767456058	226152.61405509428
0.9087734133147922	229896.2910942805
0.9090006066681211	230098.03774073304
0.909227856819788	230299.8348238469
0.9094551637839932	230501.68235623185
0.9096825275749393	230703.5803504998
0.9099099482068329	231260.5592326722
0.9101374256938848	233079.46160490435
0.9103649600503083	234898.8187027287
0.9105925512903209	236718.63063982714
0.9108201994281437	238538.89752991177
0.9110479044780008	240359.61948671687
0.9112756664541204	242022.77657755662
0.911503485370734	243682.73240666362
0.9117313612420768	245343.1032247279
0.9119592940823873	247003.8891354962
0.912187283905908	248665.09024274274
0.9124153307268845	244752.59242673768
0.9126434345595664	238816.03883885965
0.9128715954182063	232878.0011125902
0.9130998133170609	226938.47887688625
0.9133280882703902	220997.4717606237
0.913556420292458	219476.71225589397
0.9137848093975312	222515.77095186568
0.9140132555998806	225555.58941251104
0.9142417589137806	228596.1678277717
