#wavelength	surface flux
0.8	1498713.7460633295
0.8002000000000001	1506262.0464839924
0.8004000500000003	1514269.1774090992
0.8006001500125003	1522282.9256954764
0.8008003000500035	1530298.6774189258
0.8010005001250161	1538316.4330803098
0.8012007502500472	1546336.1931805976
0.8014010504376099	1553120.3606710497
0.8016014007002193	1559491.6668341549
0.8018018010503944	1565864.5658238009
0.8020022515006572	1572239.0580381972
0.8022027520635323	1578615.1438756415
0.8024033027515483	1585008.4833359008
0.8026039035772362	1591418.7669300504
0.8028045545531306	1597830.6530950987
0.8030052556917691	1604244.1422316914
0.803206007005692	1610659.2347405627
0.8034068085074435	1617250.5470461512
0.8036076602095705	1624332.9815074096
0.8038085621246229	1631417.1865772775
0.8040095142651542	1638503.1626984172
0.8042105166437206	1645590.910313585
0.8044115692728815	1652650.0533001632
0.8046126721651998	1658404.4114710346
0.8048138253332411	1664160.2082314442
0.8050150287895745	1669917.4439410493
0.805216282546772	1675676.1189595803
0.8054175866174087	1681436.2336468627
0.8056189410140631	1687261.4805639933
0.8058203457493168	1693106.212816773
0.8060218008357541	1698952.4062526082
0.8062233062859632	1704800.0612368053
0.8064248621125346	1710649.1781347445
0.806626468328063	1717092.2435729492
0.8068281249451449	1724045.793800182
0.8070298319763813	1731001.08241498
0.8072315894343755	1737958.1098519266
0.8074333973317341	1744916.876545735
0.8076352556810671	1750650.8822769895
0.8078371644949874	1753433.929632003
0.8080391237861113	1756217.672748856
0.8082411335670578	1759002.1118014862
0.8084431938504498	1761787.2469638826
0.8086453046489125	1764529.093485229
0.8088474659750746	1766452.7049704797
0.8090496778415686	1768376.7973586046
0.809251940261029	1770301.370769825
0.8094542532460944	1772226.4253244
0.8096566168094059	1774151.9611426112
0.8098590309636085	1777001.8585087012
0.8100614957213493	1780068.7100452387
0.8102640110952797	1783136.3282946607
0.8104665770980536	1786204.7134486465
0.8106691937423283	1789273.8656989217
0.8108718610407639	1793031.5413444154
0.8110745790060241	1797316.047406158
0.8112773476507757	1801601.6245944197
0.8114801669876885	1805888.2731769774
0.8116830370294355	1810175.9934216782
0.8118859577886929	1813944.0464923591
0.8120889292781401	1816631.4436863288
0.8122919515104597	1819319.5127295968
0.8124950244983374	1822008.2537901255
0.8126981482544621	1824697.6670359191
0.8129013227915257	1827502.5654988142
0.8131045481222237	1831622.790029852
0.8133078242592543	1835744.0446170229
0.8135111512153191	1839866.3295178395
0.813714529003123	1843989.6449898817
0.8139179576353739	1848113.9912907928
0.8141214371247829	1863137.1947951107
0.8143249674840641	1880277.4258838245
0.814528548725935	1897421.9420302997
0.8147321808631167	1914570.7443058349
0.8149358639083326	1931723.8337819339
0.8151395978743097	1942943.5400210752
0.8153433827737784	1950154.3111918815
0.8155472186194719	1957366.885055478
0.8157511054241268	1964581.262062539
0.815955043200483	1971797.4426638568
0.8161590319612831	1977961.5927058859
0.8163630717192736	1982196.2603299445
0.8165671624872033	1986431.9866209046
0.8167713042778252	1990668.7718434415
0.8169754971038948	1994906.6162622862
0.8171797409781707	1998452.625979998
0.8173840359134155	1996467.933507269
0.8175883819223938	1994482.7448614242
0.8177927790178745	1992497.0599184167
0.8179972272126291	1990510.878554173
0.8182017265194322	1988524.2006445902
0.8184062769510622	1994816.0879307191
0.8186108785203001	2002383.5732734608
0.8188155312399301	2009952.950487528
0.8190202351227402	2017524.220045907
0.819224990181521	2025097.382421671
0.8194297964290664	2035086.852700765
0.8196346538781738	2046534.1044725485
0.8198395625416434	2057984.2180572704
0.8200445224322789	2069437.1941703933
0.820249533562887	2080893.033527541
0.8204545959462778	2090466.992612108
0.8206597095952644	2097009.900225771
0.8208648745226633	2103554.4435663424
0.8210700907412941	2110100.623042748
0.8212753582639793	2116648.4390640156
0.8214806771035456	2121309.5007803813
0.8216860472728215	2114336.9368946753
0.8218914687846397	2107362.6298679975
0.822096941651836	2100386.5792645593
0.822302465887249	2093408.784648474
0.8225080415037209	2086429.2455837314
0.8227136685140968	2094215.252619339
0.8229193469312254	2103679.602318398
0.8231250767679583	2113146.318104885
0.8233308580371503	2122615.400570314
0.8235366907516598	2132086.8503063656
0.8237425749243477	2142465.3856109674
0.8239485105680789	2153326.031838062
0.824154497695721	2164189.3932267064
0.824360536320145	2175055.4704556996
0.8245666264542252	2185924.264204
0.8247727681108388	2195621.019425
0.8249789613028664	2203637.7275315328
0.8251852060431922	2211656.439815099
0.825391502344703	2219677.1567767323
0.8255978502202894	2227699.8789176135
0.8258042496828445	2235198.5107100373
0.8260107007452654	2240143.9947458985
0.8262172034204517	2245090.7151527638
0.8264237577213068	2250038.672239732
0.8266303636607373	2254987.866315974
0.8268370212516525	2259938.297690733
0.8270437305069654	2259738.6056240844
0.8272504914395923	2259136.318247871
0.8274573040624523	2258533.880299814
0.8276641683884679	2257931.2917422703
0.8278710844305652	2257328.552537587
0.8280780522016729	2261416.4222334656
0.8282850717147234	2267649.45141672
0.8284921429826521	2273884.0388572644
0.8286992660183978	2280120.184944674
0.8289064408349024	2286357.8900686004
0.8291136674451112	2290553.653786958
0.8293209458619727	2292173.714295781
0.8295282760984382	2293794.179819729
0.829735658167463	2295415.05046006
0.8299430920820048	2297036.3263180493
0.8301505778550254	2298891.5263528023
0.8303581154994891	2301679.232332186
0.8305657050283641	2304467.6352380672
0.8307733464546212	2307256.7352446723
0.8309810397912352	2310046.532526284
0.8311887850511829	2312837.0272572106
0.8313965822474458	2325408.415594789
0.8316044313930077	2338436.8974097962
0.8318123325008561	2351468.636345269
0.8320202855839813	2364503.63321547
0.8322282906553774	2377541.888834889
0.8324363477280413	2383511.9593376084
0.8326444568149735	2386636.583676639
0.8328526179291771	2389761.9891717513
0.8330608310836596	2392888.176018242
0.8332690962914304	2396015.14441144
0.8334774135655034	2398504.7203178294
0.833685782918895	2400282.0570473294
0.8338942043646247	2402059.8381110104
0.834102677915716	2403838.0636199582
0.834311203585195	2405616.7336852825
0.8345197813860912	2409698.1027363543
0.8347284113314379	2421530.095462573
0.8349370934342709	2433365.0461869673
0.8351458277076294	2445202.955649028
0.8353546141645565	2457043.824588474
0.8355634528180977	2468887.6537451497
0.8357723436813022	2459569.242348869
0.8359812867672226	2449987.1650402783
0.8361902820889144	2440402.692212365
0.8363993296594368	2430815.8232662426
0.8366084294918518	2421226.55760288
0.8368175815992247	2427121.505590187
0.8370267859946247	2438351.6751969014
0.8372360426911234	2449584.6523460145
0.8374453517017962	2460820.4377394137
0.8376547130397217	2472059.0320791597
0.8378641267179816	2479747.5440394497
0.8380735927496613	2483912.585658587
0.8382831111478488	2488078.668538127
0.8384926819256358	2492245.7929383847
0.8387023050961173	2496413.959119746
0.8389119806723914	2500535.997523999
0.8391217086675596	2504526.315154949
0.8393314890947265	2508517.6303653046
0.8395413219670003	2512509.943404463
0.8397512072974922	2516503.254521884
0.8399611450993165	2520687.612499238
0.8401711353855914	2534310.7587534515
0.8403811781694378	2547937.3107942245
0.8405912734639802	2561567.269473011
0.8408014212823464	2575200.635641474
0.8410116216376671	2588837.410151477
0.8412218745430766	2600487.994205032
0.8414321800117124	2611562.594182424
0.8416425380567154	2622639.9628098146
0.8418529486912297	2633720.1007793653
0.8420634119284025	2644803.008783399
0.8422739277813847	2651939.950109998
0.8424844962633302	2655599.684792879
0.842695117387396	2659260.334409426
0.8429057911667428	2662921.899188377
0.8431165176145345	2666584.379358525
0.8433272967439382	2670401.5049066683
0.8435381285681244	2674594.574245133
0.8437490131002665	2678788.6918509314
0.8439599503535415	2682983.857986129
0.84417094034113	2687180.072912863
0.8443819830762154	2691499.9733706745
0.8445930785719846	2698291.4761236315
0.8448042268416277	2705084.6767522725
0.8450154278983382	2711879.57568107
0.8452266817553128	2718676.173334599
0.8454379884257517	2725474.470137542
0.8456493479228583	2732594.885699594
0.845860760259839	2739794.242156198
0.846072225449904	2746995.3984519155
0.8462837435062666	2754198.355036709
0.8464953144421433	2761403.1123606525
0.8467069382707537	2767022.6004658174
0.8469186150053215	2771406.4208016633
0.847130344659073	2775791.337092594
0.8473421272452377	2780177.349612593
0.8475539627770492	2784564.458635727
0.8477658512677435	2789496.2043029736
0.8479777927305605	2795583.318239447
0.8481897871787432	2801671.9539544033
0.848401834625538	2807762.1118282913
0.8486139350841944	2813853.792241644
0.8488260885679657	2819744.7021834133
0.8490382950901076	2823171.2002223735
0.8492505546638802	2826598.5548858456
0.8494628673025462	2830026.7663879823
0.8496752330193721	2833455.8349429993
0.8498876518276269	2836885.7607651507
0.8501001237405839	2828545.526059124
0.8503126487715191	2817853.5043672076
0.850525226933712	2807158.8096698746
0.8507378582404455	2796461.4412988666
0.8509505427050057	2785761.39858576
0.8511632803406821	2779059.3839171417
0.8513760711607672	2775095.4427417973
0.8515889151785576	2771130.5105811525
0.8518018124073523	2767164.5871874713
0.8520147628604541	2763197.672312944
0.8522277665511693	2767769.4256527745
0.8524408234928071	2788135.390747164
0.8526539336986805	2808506.4473328325
0.8528670971821053	2828882.596682649
0.8530803139564007	2849263.8400697787
0.8532935840348901	2869375.5550367413
0.8535069074308987	2887172.9601907097
0.8537202841577566	2904974.814695982
0.8539337142287962	2922781.1196648823
0.8541471976573534	2940591.876210014
0.8543607344567677	2958407.085444285
0.8545743246403821	2968194.9595415997
0.8547879682215422	2976709.740725119
0.8550016652135977	2985226.6506039333
0.8552154156299011	2993745.6897102175
0.8554292194838088	3002266.8585762843
0.8556430767886797	3009206.256203548
0.855856987557877	3015185.685503911
0.8560709518047664	3021166.609661596
0.8562849695427177	3027149.0290503222
0.8564990407851035	3033132.944043897
0.8567131655452999	3039035.945820602
0.8569273438366862	3044805.393130503
0.8571415756726455	3050576.2828022325
0.8573558610665638	3056348.6151963817
0.8575702000318304	3062122.3906736234
0.8577845925818384	3068004.685326774
0.857999038729984	3074557.2850229274
0.8582135384896665	3081111.5228690035
0.858428091874289	3087667.399274541
0.8586426988972576	3094224.9146491783
0.8588573595719821	3100784.069402661
0.8590720739118751	3106016.5680267434
0.8592868419303532	3111093.7647178057
0.8595016636408359	3116172.2307080408
0.8597165390567462	3121251.966314771
0.8599314681915105	3126332.9718554053
0.8601464510585584	3130148.484744437
0.860361487671323	3133292.562605628
0.8605765780432408	3136437.4264862826
0.8607917221877518	3139583.07658291
0.8610069201182988	3142729.5130920606
0.8612221718483286	3135360.1121871555
0.8614374773912907	3112827.7321867505
0.8616528367606385	3090289.7190913516
0.8618682499698288	3067746.0714926645
0.8620837170323213	3045196.7879820815
0.8622992379615795	3026563.130787654
0.8625148127710699	3027329.64660965
0.8627304414742627	3028096.3540606024
0.8629461240846313	3028863.2531884173
0.8631618606156526	3029630.344041014
0.8633776510808066	3030397.626666324
0.8635934954935769	3061600.6314255814
0.8638093938674504	3095306.292402599
0.8640253462159173	3129020.3797948593
0.8642413525524714	3162742.895708967
0.8644574128906095	3196473.8422520463
0.8646735272438323	3201856.3254937674
0.8648896956256433	3194053.4119663415
0.8651059180495498	3186248.5477105337
0.8653221945290621	3178441.732238669
0.8655385250776946	3170632.9650629256
0.8657549097089641	3173237.0626292517
0.8659713484363913	3189175.0663362993
0.8661878412735006	3205117.0545442807
0.866404388233819	3221063.0282493127
0.8666209893308775	3237012.988447763
0.8668376445782103	3250729.0209293873
0.8670543539893549	3255314.414403531
0.8672711175778525	3259900.9542260463
0.8674879353572469	3264488.640683512
0.8677048073410862	3269077.474062594
0.8679217335429217	3273667.454650024
0.8681387139763074	3281452.8755953764
0.8683557486548015	3289398.9272272117
0.8685728375919655	3297346.9653719645
0.8687899808013633	3305296.990526236
0.8690071782965637	3313249.0031868066
0.869224430091138	3318808.2113214917
0.8694417361986609	3323394.371205501
0.8696590966327107	3327981.67762948
0.869876511406869	3332570.1308800653
0.8700939805347206	3337159.731243961
0.8703115040298544	3342373.632704978
0.870529081905862	3348301.2825887185
0.8707467141763385	3354230.414384928
0.8709644008548827	3360161.0284640864
0.8711821419550964	3366093.125196761
0.8713999374905854	3372388.801250689
0.871617787474958	3379935.771178099
0.8718356919218269	3387484.6278479975
0.8720536508448075	3395035.371732064
0.8722716642575187	3402588.0033020973
0.8724897321735832	3410142.5230300264
0.8727078546066265	3416859.1456832644
0.8729260315702784	3423564.671596785
0.873144263078171	3430271.873891777
0.8733625491439405	3436980.7529873434
0.8735808897812266	3443691.3093026862
0.8737992850036719	3446551.8835966294
0.874017734824923	3448048.9785143672
0.8742362392586293	3449546.4477058337
0.874454798318444	3451044.2912645983
0.8746734120180236	3452542.5092842523
0.8748920803710283	3455568.1587092676
0.875110803391121	3460129.111173495
0.8753295810919689	3464691.203875841
0.875548413487242	3469254.4371013627
0.8757673005906139	3473818.811135191
0.8759862424157616	3480523.4065832896
0.8762052389763657	3493419.2080373866
0.8764242902861098	3506318.233441838
0.8766433963586814	3519220.4836026444
0.8768625572077712	3532125.959325995
0.8770817728470732	3544928.097343407
0.8773010432902849	3549413.1818158943
0.8775203685511077	3553899.387559506
0.8777397486432454	3558386.714854548
0.8779591835804065	3562875.1639814195
0.8781786733763015	3567364.735220567
0.8783982180446457	3563824.7603288186
0.878617817599157	3557894.926662239
0.8788374720535569	3551963.6105372454
0.8790571814215703	3546030.8115832224
0.8792769457169257	3540096.5294294604
0.879496764953355	3535235.0780539094
0.8797166391445934	3531338.2904772772
0.8799365683043796	3527440.5287037506
0.8801565524464557	3523541.7924897806
0.8803765915845676	3519642.0815917538
0.8805966857324639	3522146.205989585
0.880816834903897	3540737.919616684
0.881037039112623	3559334.2811721964
0.8812572983724012	3577935.291818097
0.8814776126969944	3596540.9527166663
0.8816979821001687	3614708.078141584
0.8819184065956938	3622447.0513871396
0.8821388861973429	3630187.9593760143
0.8823594209188923	3637930.802591879
0.882580010774122	3645675.581518544
0.8828006557768155	3653422.296639945
0.8830213559407598	3661954.3682354023
0.8832421112797452	3670685.6108795474
0.8834629218075651	3679419.036334348
0.8836837875380171	3688154.645145515
0.8839047084849018	3696892.437858886
0.884125684662023	3697290.77005461
0.8843467160831886	3691004.4387439364
0.8845678027622095	3684716.5358504355
0.8847889447129001	3678427.06098121
0.8850101419490785	3672136.013743268
0.8852313944845657	3673544.7743721916
0.885452702333187	3691811.2648079633
0.8856740655087704	3710082.321866341
0.8858954840251476	3728357.9466889785
0.8861169578961539	3746638.1404178133
0.886338487135628	3762836.278334157
0.886560071757412	3751270.886559802
0.8867817117753515	3739702.603437504
0.8870034072032955	3728131.42824442
0.8872251580550963	3716557.360257551
0.8874469643446101	3704980.3987536784
0.8876688260856963	3714223.038755314
0.8878907432922178	3727777.4717674283
0.8881127159780409	3741335.2933877874
0.8883347441570356	3754896.5044635674
0.8885568278430749	3768461.105842103
0.8887789670500358	3776878.392056925
0.8890011617917983	3781644.007282924
0.8892234120822464	3786410.8139127316
0.8894457179352669	3791178.8122441927
0.8896680793647509	3795948.00257524
0.8898904963845921	3797320.4281626153
0.8901129690086883	3792209.805377612
0.8903354972509405	3787097.9049369134
0.8905580811252535	3781984.7265211004
0.8907807206455347	3776870.2698106905
0.8910034158256963	3770807.693685314
0.8912261666796527	3756281.7198912264
0.8914489732213227	3741752.1146036857
0.8916718354646282	3727218.876914809
0.8918947534234944	3712682.005916524
0.8921177271118502	3698141.500700499
0.8923407565436284	3681451.7120080865
0.8925638417327644	3664407.7372796964
0.8927869826931977	3647359.5015576184
0.8930101794388711	3630307.003776611
0.8932334319837308	3613250.242871161
0.8934567403417267	3602333.146632346
0.8936801045268123	3595231.049671161
0.8939035245529441	3588127.177185741
0.8941270004340824	3581021.528732196
0.894350532184191	3573914.10386654
0.8945741198172371	3589871.4431501916
0.8947977633471915	3644085.878563499
0.8950214627880284	3698313.8675856576
0.8952452181537254	3752555.413605039
0.8954690294582639	3806810.5200109584
0.8956928967156286	3854663.9045768566
0.8959168199398075	3860896.3341436675
0.8961407991447926	3867130.3218178716
0.8963648343445789	3873365.8679889943
0.896588925553165	3879602.973046656
0.8968130727845534	3885841.637380583
0.8970372760527496	3884984.519033612
0.8972615353717629	3883239.165952084
0.8974858507556059	3881493.3765322855
0.8977102222182949	3879747.1506651323
0.8979346497738496	3878000.488241512
0.8981591334362931	3901480.095288567
0.8983836732196523	3938761.4646540214
0.8986082691379572	3976052.154361793
0.8988329212052417	4013352.1667419914
0.8990576294355432	4050661.5041253176
0.8992823938429022	4075505.7058917508
0.8995072144413631	4081808.177561566
0.8997320912449734	4088112.224849296
0.8999570242677847	4094417.848148846
0.9001820135238516	4100725.047854222
0.9004070590272328	4107127.130233017
0.9006321607919896	4114019.9543537428
0.9008573188321878	4120914.5016805055
0.9010825331618959	4127810.772644097
0.9013078037951865	4134708.7676754305
0.9015331307461353	4141608.487205518
0.9017585140288219	4151953.1987128183
0.9019839536573292	4162597.0739137195
0.9022094496457435	4173243.6100834133
0.9024350020081551	4183892.8078871616
0.9026606107586572	4194544.667990358
0.902886275911347	4210573.913572384
0.9031119974803249	4229198.156832758
0.9033377754796951	4247827.0561539475
0.903563609923565	4266460.612699959
0.903789500826046	4285098.82763512
0.9040154482012526	4297121.424568193
0.904241452063303	4300571.035624509
0.9044675124263188	4304021.509083587
0.9046936293044254	4307472.84516103
0.9049198027117517	4310925.044072494
0.9051460326624297	4315691.382695817
0.9053723191705955	4326051.150446545
0.9055986622503881	4336413.508139201
0.9058250619159507	4346778.45642128
0.9060515181814298	4357145.995940437
0.9062780310609752	4367516.127344466
0.9065046005687405	4354670.773595851
0.906731226718883	4340526.940599373
0.9069579095255627	4326379.571644664
0.907184649002944	4312228.665847714
0.907411445165195	4298074.2223243015
0.9076382980264862	4311638.000278704
0.907865207600993	4336717.964799314
0.9080921739028933	4361804.199311047
0.9083191969463691	4386896.705381405
0.9085462767456058	4411995.484578292
0.9087734133147922	4428423.020543938
0.9090006066681211	4434832.022629154
0.909227856819788	4441242.626964884
0.9094551637839932	4447654.833951706
0.9096825275749393	4454068.643990273
0.9099099482068329	4461518.221630064
0.9101374256938848	4472645.098980846
0.9103649600503083	4483774.7580509605
0.9105925512903209	4494907.19953584
0.9108201994281437	4506042.424131103
0.9110479044780008	4517180.432532502
0.9112756664541204	4527851.2642146265
0.911503485370734	4538514.006275165
0.9117313612420768	4549179.414021218
0.9119592940823873	4559847.4881192045
0.912187283905908	4570518.229235719
0.9124153307268845	4559348.418268022
0.9126434345595664	4540248.002841728
0.9128715954182063	4521142.812311594
0.9130998133170609	4502032.84548382
0.9133280882703902	4482918.101164338
0.913556420292458	4480475.244417552
0.9137848093975312	4495230.66910686
0.9140132555998806	4509989.782652338
0.9142417589137806	4524752.585976203
