#wavelength	surface flux
0.6450077295303345	52962.6695917514
0.6472567915916443	55502.57751014759
0.6494921445846558	58384.55674807689
0.6517150402069092	61301.169664917164
0.6539263725280762	64060.83942482831
0.6561272740364075	66835.66458721383
0.6583186388015747	69596.62727237503
0.6605015397071838	72653.89100843194
0.6626768708229065	75746.35496421267
0.6648455858230591	78798.38228876365
0.6670085787773132	81699.41892619368
0.6691668033599854	79089.75687306302
0.6713210344314575	75417.30229327956
0.6734722256660461	90732.87756498785
0.6756211519241333	95090.28304679302
0.6777685880661011	98721.17724349475
0.6799154281616211	102287.15148607174
0.6820623278617859	105924.93223148581
0.6842101216316223	109657.4887009543
0.6863595843315125	113392.02036362713
0.688511312007904	117174.67805600997
0.6906660795211792	120345.86534291919
0.6928245425224304	121777.42510061471
0.6949873566627502	128276.56898393965
0.6971551775932312	133047.99970465197
0.6993286609649658	136971.30270612816
0.7015084028244019	140684.39654624838
0.7036949396133423	145281.84660063533
0.7058889269828796	150564.01471500195
0.7080909013748169	154743.68998507614
0.710301399230957	159249.25719432023
0.712520956993103	164301.6717360545
0.7147500514984131	168286.13737725615
0.7169892191886902	168151.9244726584
0.7192389369010925	175375.0151292396
0.7214996814727783	179535.25653863736
0.723771870136261	182861.56475993604
0.7260559797286987	185502.1658811722
0.7283523678779602	190000.892457177
0.7306615710258484	192918.71119663893
0.7329838871955872	200242.21376553908
0.7353196740150452	204217.29468038614
0.7376693487167358	208018.29538867692
0.7400332689285278	212320.78625370612
0.7424117922782898	211798.95088820803
0.7448052167892456	213088.1963978411
0.7472138404846191	210133.47722883537
0.7496379613876343	203939.41299807373
0.7520779371261597	191595.68594195225
0.7545340061187744	171525.27304319834
0.7570064663887024	140759.06522690327
0.7594954967498779	98907.00321216836
0.7620013952255249	49556.766131819415
0.7645244002342224	11078.158505910154
0.7670646905899048	1527.5262034532534
0.7696225643157959	1863.594680303661
0.7721980810165405	27301.687120322596
0.7747915983200073	89520.29798905725
0.7774031162261963	154611.46927808784
0.7800329327583313	182008.4953980476
0.7826811671257019	259109.0321321146
0.7853479981422424	303405.9379778233
0.7880334854125977	337558.08347870846
0.7907378077507019	364161.1809393468
0.7934610247612	263621.8466836258
0.7962033748626709	326957.71156359586
0.7989648580551147	435146.8667847443
0.801745593547821	456938.94017056754
0.8045456409454346	476125.35521628754
0.8073651194572449	494119.4838372193
0.8102040886878967	498856.4839635902
0.8130625486373901	505785.05667007813
0.8159406185150146	544945.8847321423
0.8188382983207703	564422.9911116833
0.8217556476593018	578552.1761165701
0.8246926665306091	600053.4217323732
0.8276493549346924	620080.3151139062
0.8306257724761963	629691.5473426082
0.8336219191551208	655938.1650315619
0.8366377949714661	664981.8502847946
0.8396733403205872	688023.7621123169
0.8427285552024841	730082.2322918994
0.8458034992218018	754898.7440725536
0.8488980531692505	780318.9181707486
0.8520121574401855	796169.1830651526
0.8551458716392517	831831.862619917
0.8582990765571594	858707.9200828862
0.8614717125892639	875812.2628990146
0.8646637797355652	898533.7018114511
0.8678751587867737	928081.6104503691
0.8711057901382446	959585.3910305055
0.8743556141853333	982599.0430628018
0.87762451171875	1004931.3899972122
0.8809124231338501	1014243.9390836174
0.8842192888259888	1042564.9187320138
0.8875449895858765	1055252.4949566494
0.8908893465995789	1068747.4197267524
0.894252359867096	1027870.5816948235
0.8976338505744934	1102318.3128717698
0.9010337591171265	1183276.4162615659
0.9044519662857056	1240775.745547204
0.9078882932662964	1256008.0661907922
0.9113426208496094	1315074.6608917227
0.914814829826355	1315670.6710234885
0.9183048605918884	1298417.3144223392
0.9218124747276306	1408079.660347696
0.925337553024292	1289490.698514666
0.9288799166679382	879224.7146448318
0.9324395060539246	1004701.4693824508
0.9360161423683167	1047455.0928253994
0.9396095871925354	1284078.45537204
0.943219780921936	1189177.7413231393
0.9468464851379395	1035823.645797995
0.9504896402359009	1262864.3110352077
0.9541489481925964	1282215.727333891
0.9578243494033813	1377551.0629492342
0.9615156054496765	1138500.886923277
0.9652225375175476	1248057.8158693016
0.9689450263977051	1253888.9960474584
0.9726828336715698	1735201.7293423365
0.9764357805252075	1677441.114753646
0.9802037477493286	1812860.578877111
0.983986496925354	1903804.9160082147
0.9877838492393494	1992358.1356134121
0.9915955662727356	2141324.27888383
0.9954215884208679	2221309.1321683703
0.9992615580558777	2309317.662270285
1.0031154155731201	2349553.7772802943
1.0069829225540161	2449831.239987309
1.0108637809753418	2532775.906266592
1.0147579908370972	2633482.2622012673
1.018665075302124	2700281.222240506
1.022585153579712	2746297.3218399878
1.0265177488327026	2761083.2075157557
1.0304628610610962	2708320.2394510964
1.0344202518463135	2968918.102648851
1.0383895635604858	3035369.593879876
1.0423706769943237	3108163.786321449
1.0463634729385376	3172605.3201053655
1.0503677129745483	3197951.518188863
1.0543830394744873	3296279.181042632
1.058409333229065	3378057.57207925
1.0624464750289917	3445742.5489000743
1.0664942264556885	3515371.6684534843
1.0705522298812866	3550620.217457957
1.0746204853057861	3653009.4601775864
1.0786986351013184	3707045.8517931146
1.0827864408493042	3792539.899891634
1.086883783340454	3835355.2137470124
1.0909905433654785	3778183.535106723
1.0951062440872192	3759422.660468213
1.0992310047149658	3401061.544916595
1.10336434841156	2352742.3634587335
1.1075061559677124	2581537.600114684
1.1116561889648438	2434634.9261296424
1.115814208984375	1907660.3974440284
1.1199802160263062	1823517.0651610612
1.124153733253479	2082844.093543115
1.1283347606658936	2311517.2305684946
1.1325229406356812	1693876.5989430465
1.1367181539535522	2529267.056924192
1.1409201622009277	2708021.327095897
1.145128846168518	3259353.1176477997
1.1493438482284546	2809785.706190674
1.1535650491714478	996141.2926418658
1.1577922105789185	1607329.6311909142
1.1620250940322876	1804907.3869215145
1.1662636995315552	3016806.4139582897
1.170507550239563	2694416.122742259
1.174756646156311	3613550.689830198
1.1790107488632202	4391811.806537653
1.1832695007324219	4848772.950732661
1.1875330209732056	4957445.297102324
1.191800832748413	5313737.648498692
1.1960728168487549	5656737.351137953
1.2003488540649414	5897454.0702414755
1.2046287059783936	5846286.723606004
1.2089121341705322	6101640.44175346
1.2131990194320679	6169490.744310548
1.2174891233444214	6415849.727406043
1.2217823266983032	6548266.571409993
1.2260783910751343	6727036.5771992635
1.230377197265625	6834102.427689764
1.2346785068511963	6928385.374940778
1.238982081413269	7087441.268231902
1.2432878017425537	7195691.694594932
1.2475954294204712	7282007.29987984
1.2519049644470215	7340893.629479728
1.256216049194336	7525268.8924778085
1.2605286836624146	7573556.5855399715
1.2648425102233887	7627102.1180472765
1.2691574096679688	7699713.89719287
1.2734732627868652	7747264.306184333
1.2777899503707886	7887719.023312521
1.2821072340011597	7833855.208894543
1.2864248752593994	7901139.760731316
1.2907428741455078	7626060.86825558
1.2950609922409058	7712515.6452313475
1.2993791103363037	7797129.35540118
1.303696870803833	7540247.906613826
1.3080145120620728	7586348.426003863
1.3123314380645752	7455208.372278684
1.3166478872299194	8118019.562261962
1.3209635019302368	7868818.443710646
1.3252781629562378	6818767.784797839
1.3295916318893433	5697454.058467462
1.3339040279388428	2925457.924516078
1.3382149934768677	857356.7307184557
1.3425244092941284	304937.90883260086
1.3468321561813354	850896.7320671484
1.3511382341384888	278382.1678946559
1.3554422855377197	231676.41192766788
1.3597444295883179	169073.22407262487
1.3640443086624146	247388.9996458731
1.3683418035507202	196740.0247079945
1.3726370334625244	666104.5498250016
1.3769296407699585	1666565.3105545815
1.381219506263733	650060.3755124883
1.3855066299438477	88446.61438033491
1.3897908926010132	114605.42715542042
1.3940720558166504	220941.39779415022
1.3983501195907593	191870.31146288692
1.4026249647140503	581556.6458575445
1.4068963527679443	1070137.2840919425
1.4111642837524414	237298.90930291498
1.4154287576675415	393025.41738799034
1.419689416885376	369730.3622100656
1.4239463806152344	169978.11599157535
1.4281994104385376	650448.2911049703
1.4324485063552856	490204.9436179958
1.436693549156189	819844.3830761416
1.440934419631958	784934.5401420235
1.4451709985733032	1188155.4399742843
1.449403166770935	2811810.9629596295
1.453631043434143	3073281.269492124
1.4578542709350586	3429622.563871871
1.4620729684829712	3598124.085512533
1.4662868976593018	4111302.142024812
1.4704961776733398	2935186.8973409208
1.4747005701065063	2986781.1163339326
1.4788999557495117	2853225.4322894365
1.4830944538116455	4573704.802789848
1.4872838258743286	5683954.383251143
1.491468071937561	5855286.847976034
1.4956470727920532	5002154.782387694
1.4998208284378052	6012091.0338659035
1.5039892196655273	7076008.399359568
1.5081522464752197	6491972.629229831
1.5123097896575928	7074806.995207485
1.5164618492126465	8094003.883656431
1.5206083059310913	9483208.094130967
1.5247491598129272	10624175.465822645
1.5288842916488647	9877897.126307353
1.5330137014389038	10664816.296451729
1.5371372699737549	11297500.093068115
1.541254997253418	11185579.320373828
1.545366883277893	11612027.64032191
1.5494728088378906	11945830.288097646
1.5535727739334106	12418895.177158974
1.5576666593551636	11773522.80290192
1.561754584312439	12038090.955421308
1.5658363103866577	13086913.384186631
1.5699119567871094	13430319.946601434
1.5739814043045044	12733960.694890533
1.5780447721481323	11471689.668350324
1.582101821899414	12285899.045372246
1.5861525535583496	14101800.649313563
1.5901970863342285	13998918.881775917
1.5942351818084717	13693863.34961281
1.5982669591903687	13092309.114369642
1.6022924184799194	12830931.947707396
1.606311559677124	13288098.33399409
1.6103241443634033	13058525.698743094
1.6143304109573364	12457299.61047879
1.6183301210403442	12056499.776048072
1.6223233938217163	11166901.954416312
1.6263102293014526	10647069.888918396
1.6302905082702637	9259602.19235629
1.634264349937439	10092493.03461647
1.638231635093689	13572462.466122316
1.6421923637390137	13845957.836489372
1.646146535873413	12178922.096280491
1.6500942707061768	10228613.46613534
1.6540353298187256	12552124.483782284
1.6579699516296387	13012675.86804048
1.661897897720337	12407262.747549659
1.6658192873001099	8057944.988997643
1.6697341203689575	7206505.76806001
1.6736423969268799	11691059.817357287
1.677544116973877	11347136.567324262
1.6814392805099487	10590946.2387896
1.6853278875350952	10691219.343254268
1.6892099380493164	9820363.233114388
1.6930854320526123	8783925.189634256
1.696954369544983	6389294.065930438
1.7008168697357178	7261664.548268172
1.7046726942062378	7114518.172043111
1.708522081375122	8884486.775258169
1.712364912033081	9128151.740094947
1.7162011861801147	10252836.886968361
1.7200311422348022	11406832.012415256
1.723854422569275	11105241.935460445
1.7276713848114014	10597842.80636136
1.731481909751892	9835383.972971132
1.7352858781814575	9005469.893000904
1.7390835285186768	8940302.160855964
1.7428747415542603	8778326.201280482
1.7466596364974976	7664789.778574155
1.7504380941390991	7022736.275154265
1.7542102336883545	5443510.813706505
1.7579760551452637	8214893.161502546
1.7617355585098267	9329556.811662057
1.7654887437820435	7529735.689061431
1.7692357301712036	5350336.196438658
1.7729763984680176	3321769.3329892755
1.776710867881775	1535406.9060642016
1.7804391384124756	1382569.4268730888
1.7841613292694092	1882171.3374713655
1.7878772020339966	1093496.316205437
1.7915871143341064	1533164.5351962917
1.7952908277511597	2635614.683728073
1.7989884614944458	3587554.1061307415
1.8026801347732544	1271014.6519705618
1.806365728378296	349899.98610902607
1.8100452423095703	694311.3822788335
1.8137187957763672	1180023.9150735566
1.817386507987976	288519.4720333944
1.8210482597351074	1129989.1809880028
1.8247040510177612	1142747.4698914804
1.828354001045227	232770.3857596776
1.8319982290267944	283327.98829930846
1.8356364965438843	732319.0900808867
1.8392690420150757	1386154.3103839688
1.8428958654403687	949586.9720032784
1.8465168476104736	1010031.8145712494
1.8501322269439697	1648680.8445672547
1.8537418842315674	934956.1268280414
1.8573459386825562	572474.5190620031
1.860944390296936	586004.0455161005
1.864537239074707	210737.41585824912
1.8681244850158691	229444.2062027583
1.871706247329712	671373.7068356329
1.8752825260162354	1099378.6210236093
1.8788533210754395	2538455.1958058607
1.8824186325073242	3634294.918828133
1.8859784603118896	2574148.761025829
1.8895330429077148	2152250.2429473717
1.8930821418762207	3773457.4720261754
1.8966259956359863	3564862.863431816
1.9001644849777222	608446.8843155152
1.9036977291107178	177600.67117989008
1.9072256088256836	413052.3132489997
1.9107483625411987	314216.41874866793
1.9142658710479736	100924.87746311832
1.9177782535552979	162846.90189265844
1.9212853908538818	329514.38695096463
1.9247875213623047	255560.06556065124
1.9282845258712769	295859.52420420945
1.9317764043807983	522913.1670854569
1.9352631568908691	602344.3326626123
1.9387450218200684	528118.0124426545
1.942221760749817	870566.2809368244
1.9456936120986938	936259.7575188659
1.9491604566574097	1369513.8897134296
1.952622413635254	1226383.6819707777
1.956079363822937	650105.9345186786
1.959531545639038	835412.3254646875
1.962978720664978	862966.6861973074
1.966421127319336	1383081.6523995067
1.9698586463928223	2575731.639309311
1.9732913970947266	2755481.9416983663
1.9767193794250488	3033983.928296841
1.9801424741744995	4132703.5259127025
1.9835609197616577	4916566.772761177
1.9869745969772339	5130897.286465629
1.990383505821228	3636624.998514645
1.9937876462936401	4057404.831280661
1.9971871376037598	3989544.955867408
2.000581979751587	4389177.125467042
2.003972291946411	6456676.589115071
2.007357597351074	7293753.000848131
2.0107386112213135	9085061.992145866
2.0141148567199707	8962252.509646948
2.017486572265625	7323708.822612714
2.0208535194396973	8615746.42076568
2.0242159366607666	10605768.39718943
2.027573823928833	10990680.697235752
2.0309269428253174	11773025.772151835
2.034275770187378	12946718.005048975
2.0376198291778564	13759887.842674816
2.040959596633911	14506529.96214802
2.044294595718384	15671916.607316827
2.0476250648498535	16979700.436985187
2.0509510040283203	16646552.208027499
2.054272413253784	15729009.053480173
2.057589530944824	16401316.167929167
2.0609018802642822	17290085.464195926
2.0642096996307373	17918628.9973573
2.0675129890441895	18290328.955703214
2.0708119869232178	18527971.8103603
2.074106216430664	18325416.861875992
2.0773961544036865	18166007.589150857
2.080681324005127	18504651.010825235
2.0839622020721436	18631560.91711442
2.087238311767578	18720837.78328304
2.090510129928589	18670190.54144935
2.0937774181365967	18308649.965650912
2.0970399379730225	18349105.169948213
2.1002981662750244	18262090.99225028
2.1035518646240234	17981606.971524373
2.1068007946014404	17629482.246306557
2.1100454330444336	17819816.067493968
2.1132853031158447	17927597.698088106
2.116520881652832	17260847.332240663
2.1197516918182373	16885445.223346297
2.1229779720306396	16945127.586206567
2.12619948387146	17118625.193537734
2.1294167041778564	17104517.861970294
2.132629156112671	17189809.252159514
2.1358368396759033	16689862.673335548
2.139039993286133	15861402.487283492
2.1422386169433594	15139190.087045824
2.145432472229004	14426030.27710917
2.1486217975616455	14041444.595885452
2.151806354522705	13284353.124779923
2.1549863815307617	13536519.490750214
2.1581614017486572	13779016.609337498
2.16133189201355	12780349.007190274
2.1644976139068604	12416653.212711247
2.167658567428589	12422310.345220476
2.1708147525787354	12749974.022353737
2.173966407775879	12895749.255471498
2.1771130561828613	12725921.443122927
2.1802549362182617	12201681.388494832
2.183391809463501	11412509.23696302
2.1865241527557373	10502455.685741583
2.1896514892578125	9430267.079881223
2.1927738189697266	7447573.7248198865
2.1958916187286377	4843337.45731899
2.1990041732788086	3045407.4572442714
2.2021119594573975	2392024.8489743187
2.2052149772644043	2402716.536035911
2.208312749862671	2765933.9944457184
2.2114057540893555	3309779.6622443157
2.214493751525879	3633047.717723862
2.217576742172241	3376092.4105654717
2.2206547260284424	3130676.9350216873
2.2237277030944824	3003111.21925659
2.2267956733703613	2451135.464887305
2.2298583984375	1802807.8902451335
2.2329163551330566	1490887.586501618
2.235969066619873	1415210.2277797177
2.2390167713165283	1316187.1175959625
2.2420592308044434	1064271.340862366
2.2450966835021973	855341.2864166347
2.248128890991211	976772.109515013
2.2511560916900635	1228308.3530044532
2.254178285598755	1327583.8535901404
2.257194995880127	1426700.5786413637
2.260206699371338	1400117.6480481275
2.2632133960723877	1123550.2415463238
2.266214609146118	892627.7371721097
2.2692108154296875	872233.0156485363
2.2722020149230957	1044405.0160658149
2.2751877307891846	1198767.3616127812
2.278168201446533	1162090.8340597015
2.2811436653137207	1034475.5533441632
2.284113883972168	949601.6706475037
2.287078857421875	868671.1081477896
2.290038824081421	792089.7984790225
2.2929933071136475	797569.9704972003
2.295942783355713	862770.2998624877
2.298887014389038	934519.2756132894
2.301826238632202	1077364.075643846
2.304760217666626	1436226.583058502
2.3076889514923096	1999577.7642439913
2.310612440109253	2404810.683935154
2.3135311603546143	2131318.545950102
2.3164443969726562	1206614.5351327306
2.319352865219116	615289.7462092065
2.322256088256836	592300.5802333384
2.3251543045043945	622837.5433392295
2.328047275543213	603070.8308090172
2.330935478210449	601762.077328206
2.3338186740875244	588763.0770099685
2.3366971015930176	564122.5674893444
2.3395702838897705	537191.0502552056
2.3424389362335205	489136.75222622335
2.3453025817871094	433928.9403543285
2.348161458969116	432613.77806631784
2.351015567779541	538023.4511092203
2.353865146636963	717995.9561669771
2.3567099571228027	881917.6946956285
2.3595502376556396	1008274.8987108531
2.3623859882354736	1114497.3235561217
2.3652172088623047	1018758.3180727491
2.368043899536133	657609.8908888185
2.370866537094116	401402.18790196197
2.3736846446990967	376459.7050796593
2.3764986991882324	443438.78408090654
2.3793084621429443	530066.3115402228
2.3821144104003906	646902.1154182536
2.384916305541992	786612.3706193896
2.387714147567749	869450.2789769449
2.3905084133148193	821505.2667098404
2.393299102783203	776170.6480400495
2.3960859775543213	826190.748665077
2.398869514465332	890399.4545564399
2.4016497135162354	880134.6525666491
2.4044265747070312	905332.5887862837
2.407200336456299	1077017.12866497
2.409970998764038	1339398.6181287295
2.4127390384674072	1524412.1522524194
2.415503978729248	1613767.004427907
2.418266534805298	1859561.6183115733
2.4210267066955566	1974432.5825341383
2.4237842559814453	1756273.5554625713
2.426539897918701	1643542.8249673746
2.429293394088745	1867526.7945455424
2.4320452213287354	2238170.838201184
2.4347951412200928	2344051.7470683446
2.4375438690185547	2247227.451163763
2.440291166305542	2283518.349336225
2.443037271499634	2174569.546288925
2.445782423019409	1859192.0566325858
2.4485268592834473	1561823.4947586139
2.451270818710327	1550207.5111717428
2.454014539718628	1896491.8560193863
2.4567582607269287	2199115.8550981665
2.4595019817352295	2225968.5967110954
2.4622461795806885	2392833.175955729
2.4649908542633057	2250539.815325507
2.4677364826202393	1772736.7258954672
2.4704833030700684	1214908.4160151486
2.473231554031372	877800.8561593576
2.4759814739227295	709237.8118667379
2.4787333011627197	674533.843224624
