#wavelength	surface flux
0.7	2866.434920676355
0.7001166666666666	2872.727865374596
0.7002333527777778	2878.6867222788087
0.700350058336574	2884.646572325836
0.7004667833462966	2890.607415681197
0.7005835278101878	2896.5692525104664
0.7007002917314895	2902.532082979198
0.7008170751134447	2908.4959072530073
0.7009338779592968	2914.460725497526
0.7010507002722901	2920.072820140992
0.7011675420556689	2925.255399163292
0.701284403312678	2930.438841948754
0.7014012840465635	2935.6231486413544
0.7015181842605713	2940.8083193850694
0.701635103957948	2945.9943543239046
0.701752043141941	2951.1812536018956
0.701869001815798	2956.3690173631067
0.7019859799827672	2962.1507680261516
0.7021029776460976	2968.3462620200216
0.7022199948090387	2974.5427885962317
0.7023370314748403	2980.7403479268687
0.7024540876467528	2986.9389401840594
0.702571163328027	2993.13856553995
0.7026882585219152	2999.3392241667493
0.7028053732316688	3005.5409162366445
0.7029225074605406	3012.64505839878
0.7030396612117841	3020.0984628263636
0.7031568344886527	3027.55310948802
0.7032740272944008	3035.008998590781
0.7033912396322832	3042.4661303417306
0.7035084715055552	3049.9245049479646
0.7036257229174727	3057.3841226166355
0.7037429938712924	3064.844983554925
0.7038602843702709	3071.978027106304
0.7039775944176659	3079.05644836777
0.7040949240167356	3086.1360493661155
0.7042122731707383	3093.2168302979567
0.7043296418829335	3100.2987913599577
0.7044470301565806	3107.381932748801
0.70456443799494	3114.4662546612035
0.7046818654012724	3121.551757293929
0.7047993123788394	3128.359056516614
0.7049167789309024	3135.1671696832423
0.7050342650607243	3141.9764175354085
0.7051517707715678	3148.786800262214
0.7052692960666963	3155.5983180528033
0.705386840949374	3162.4109710963553
0.7055044054228656	3169.2247595820922
0.7056219894904361	3175.956463368958
0.7057395931553511	3182.1604327667305
0.705857216420877	3188.3654361594076
0.7059748592902804	3194.571473719313
0.7060925217668288	3200.7785456188185
0.70621020385379	3206.986652030306
0.7063279055544321	3213.1957931261873
0.7064456268720246	3219.4059690789277
0.7065633678098366	3225.757031145325
0.7066811283711383	3232.494304172839
0.7067989085592001	3239.2327000791897
0.7069167083772933	3245.9722190515213
0.7070345278286895	3252.7128612770193
0.707152366916661	3259.4546269428893
0.7072702256444803	3266.1975162363624
0.7073881040154211	3272.9415293447273
0.7075060020327569	3279.9408591446468
0.7076239196997625	3287.311548352858
0.7077418570197124	3294.683466009264
0.7078598139958823	3302.056612318612
0.7079777906315483	3309.4309874856854
0.7080957869299869	3316.8065917152812
0.7082138028944751	3324.1834252122444
0.7083318385282908	3331.5614881814627
0.7084498938347124	3338.191375040897
0.708567968817018	3344.187005342566
0.7086860634784875	3350.183634915959
0.7088041778224007	3356.1812639276186
0.7089223118520377	3362.1798925441058
0.7090404655706796	3368.1795209320258
0.709158638981608	3374.1801492580175
0.709276832088105	3380.181777688731
0.7093950448934531	3387.3503503149086
0.7095132774009353	3395.0761689387955
0.7096315296138355	3402.8032751991227
0.7097498015354378	3410.531669310491
0.7098680931690269	3418.261351487537
0.7099864045178884	3425.992321944956
0.7101047355853081	3433.7245808974494
0.7102230863745722	3441.4581285597633
0.7103414568889679	3449.13900523663
0.7104598471317828	3456.80890109676
0.7105782571063047	3464.4800752728606
0.7106966868158224	3472.1525279779903
0.710815136263625	3479.826259425236
0.7109336054530023	3487.501269827728
0.7110520943872445	3495.1775593986176
0.7111706030696424	3502.8551283511065
0.7112891315034873	3510.0957481401792
0.7114076796920712	3517.3166655430846
0.7115262476386865	3524.538786432224
0.7116448353466263	3531.7621110081727
0.711763442819184	3538.986639471555
0.711882070059654	3546.2123720230206
0.7120007170713306	3553.4393088632405
0.7121193838575091	3560.6815794303284
0.7122380704214853	3568.072421371912
0.7123567767665555	3575.4644951204777
0.7124755028960166	3582.857800881339
0.7125942488131658	3590.252338859821
0.7127130145213015	3597.6481092613203
0.7128318000237216	3605.0451122911963
0.7129506053237256	3612.4433481549218
0.7130694304246129	3619.843494663929
0.7131882753296837	3627.2472436798566
0.7133071400422386	3634.652226653956
0.7134260245655789	3642.0584437918787
0.7135449289030065	3649.4658952993273
0.7136638530578235	3656.874581382023
0.7137827970333332	3664.2845022457427
0.7139017608328388	3671.695658096272
0.7140207444596443	3679.124325789339
0.7141397479170543	3686.5832675216943
0.7142587712083737	3694.0434524109946
0.7143778143369084	3701.5048806644495
0.7144968773059646	3708.9675524892814
0.7146159601188489	3716.431468092748
0.7147350627788687	3723.8966276821493
0.7148541852893318	3731.3630314648126
0.7149733276535467	3738.536191626603
0.7150924898748222	3745.413592176374
0.715211671956468	3752.2921389595717
0.7153308739017941	3759.171832167239
0.715450095714111	3766.052671990437
0.71556933739673	3772.9346586202732
0.7156885989529628	3779.8177922478803
0.7158078803861218	3786.7020730644354
0.7159271816995193	3791.6812653060883
0.7160465028964692	3795.5424458346492
0.7161658439802853	3799.404269893298
0.7162852049542819	3803.2667375892893
0.7164045858217744	3807.1298490298987
0.716523986586078	3810.993604322413
0.7166434072505089	3814.858003574141
0.716762847818384	3818.7230468924126
0.7168823082930204	3824.633383191378
0.7170017886777359	3831.1462315241565
0.7171212889758488	3837.660165331653
0.7172408091906781	3844.1751847947858
0.7173603493255433	3850.6912900944976
0.7174799093837642	3857.208481411756
0.7175994893686615	3863.7267589275702
0.7177190892835562	3870.246122822967
0.7178387091317702	3882.9576972654227
0.7179583489166254	3896.2928731123616
0.7180780086414448	3909.6302714886187
0.7181976883095517	3922.9698927646045
0.7183173879242699	3936.3117373108043
0.718437107488924	3949.6558054977654
0.7185568470068389	3963.0020976960955
0.7186766064813399	3976.133051797678
0.7187963859157535	3983.8266529552834
0.7189161853134061	3991.5215363797474
0.719036004677625	3999.2177022847836
0.7191558440117378	4006.915150884132
0.7192757033190732	4014.6138823915912
0.7193955826029597	4022.3138970209593
0.7195154818667269	4030.0151949861056
0.7196354011137046	4037.57410736195
0.7197553403472235	4044.472801159801
0.7198752995706147	4051.372644739948
0.7199952787872098	4058.27363829403
0.720115278000341	4065.1757820137045
0.7202352972133411	4072.079076090666
0.7203553364295432	4078.9835207166307
0.7204753956522815	4085.8891160833755
0.7205954748848902	4093.682656595101
0.7207155741307044	4103.432545833217
0.7208356933930594	4113.184060052856
0.7209558326752915	4122.937199524867
0.7210759919807375	4132.691964520135
0.7211961713127342	4142.448355309558
0.7213163706746197	4152.206372164127
0.7214365900697322	4161.966015354829
0.7215568295014103	4169.911474568437
0.721677088972994	4175.6916901013765
0.7217973684878227	4181.472869003561
0.7219176680492374	4187.25501143557
0.7220379876605789	4193.0381175579805
0.722158327325189	4198.822187531414
0.7222786870464099	4204.607221516506
0.7223990668275843	4210.3932196739315
0.7225194666720555	4217.728227469538
0.7226398865831676	4226.161596229366
0.7227603265642646	4234.596370550634
0.722880786618692	4243.03255066764
0.7230012667497951	4251.470136814661
0.7231217669609201	4259.909129226039
0.7232422872554135	4268.349528136146
0.7233628276366229	4276.791333779419
0.7234833881078956	4287.100972754544
0.7236039686725803	4298.120940064611
0.7237245693340255	4309.142744035878
0.7238451900955812	4320.166384974495
0.7239658309605971	4331.191863186588
0.7240864919324239	4342.219178978398
0.7242071730144127	4353.248332656174
0.724327874209915	4364.279324526206
0.7244485955222832	4368.016712004099
0.7245693369548704	4370.548482533417
0.7246900985110294	4373.0806750244865
0.7248108801941148	4375.613289547645
0.7249316820074803	4378.146326173214
0.7250525039544815	4380.6797849715595
0.7251733460384739	4383.213666013038
0.7252942082628137	4385.765063223061
0.7254150906308574	4398.221606686847
0.7255359931459625	4410.680226241211
0.7256569158114868	4423.140922232172
0.7257778586307888	4435.603695005804
0.7258988216072273	4448.068544908228
0.7260198047441617	4460.535472285622
0.7261408080449525	4473.004477484267
0.72626183151296	4485.064884632625
0.7263828751515454	4494.398122753695
0.7265039389640706	4503.732916414449
0.726625022953898	4513.069265874154
0.7267461271243904	4522.407171392105
0.7268672514789111	4531.746633227637
0.7269883960208241	4541.087651640133
0.7271095607534942	4550.430226889038
0.7272307456802866	4559.690452026836
0.7273519508045666	4568.725566916452
0.7274731761297006	4577.762187658546
0.7275944216590555	4586.800314504097
0.7277156873959987	4595.839947704124
0.7278369733438982	4604.8810875097
0.727958279506122	4613.923734171885
0.7280796058860397	4622.967887941859
0.7282009524870207	4630.937478678121
0.7283223193124353	4637.316769737701
0.7284437063656539	4643.697124012445
0.7285651136500483	4650.078541679579
0.7286865411689898	4656.46102291631
0.7288079889258514	4662.84456789993
0.7289294569240056	4669.229176807698
0.7290509451668262	4675.614849816959
0.7291724536576875	4682.912538113338
0.7292939823999636	4690.966263663248
0.7294155313970303	4699.021331500766
0.7295371006522632	4707.077741849588
0.7296586901690385	4715.135494933461
0.7297802999507332	4723.194590976179
0.7299019300007252	4731.255030201591
0.7300235803223919	4739.316812833518
0.7301452509191123	4749.957024027083
0.7302669417942654	4761.788512261639
0.7303886529512311	4773.621972410903
0.7305103843933897	4785.45740480353
0.7306321361241218	4797.294809768213
0.7307539081468093	4809.134187633744
0.7308757004648336	4820.975538728894
0.7309975130815778	4832.818863382574
0.7311193460004248	4846.738629598886
0.7312411992247582	4861.130348775152
0.7313630727579622	4875.524466571278
0.7314849666034219	4889.920983387051
0.7316068807645224	4904.3198996222845
0.7317288152446498	4918.7212156768965
0.7318507700471907	4933.12493195086
0.7319727451755319	4947.5310488441955
0.732094740633061	4956.822864395879
0.7322167564231665	4965.88587302274
0.7323387925492371	4974.9503921510395
0.7324608490146619	4984.016422032524
0.732582925822831	4993.083962918992
0.7327050229771347	5002.153015062263
0.7328271404809642	5011.2235787142345
0.7329492783377112	5020.203565258179
0.7330714365507675	5028.279717429625
0.7331936151235259	5036.357215626431
0.7333158140593796	5044.436060072927
0.7334380333617229	5052.516250993509
0.7335602730339499	5060.597788612583
0.7336825330794556	5068.680673154594
0.7338048135016354	5076.7649048440135
0.7339271143038857	5086.12476332431
0.734049435489603	5099.755891613182
0.7341717770621846	5113.389291756772
0.7342941390250283	5127.024964133712
0.7344165213815324	5140.66290912271
0.734538924135096	5154.303127102558
0.7346613472891185	5167.945618452053
0.734783790847	5181.59038355011
0.7349062548121412	5192.951174470147
0.7350287391879431	5200.272821603184
0.7351512439778078	5207.595689010758
0.7352737691851374	5214.919776896226
0.735396314813335	5222.245085463013
0.7355188808658037	5229.57161491455
0.7356414673459482	5236.899365454344
0.7357640742571725	5244.228337285889
0.7358867016028818	5253.184997754389
0.7360093493864824	5263.749433977426
0.7361320176113801	5274.315630939819
0.736254706280982	5284.88358893504
0.7363774153986956	5295.453308256607
0.7365001449679286	5306.024789198039
0.7366228949920899	5316.598032052971
0.7367456654745885	5327.173037115043
0.7368684564188344	5338.934605223925
0.7369912678282374	5351.367757893692
0.7371140997062088	5363.8029827555765
0.7372369520561599	5376.240280154949
0.7373598248815024	5388.679650437194
0.7374827181856494	5401.12109394784
0.7376056319720137	5413.564611032405
0.7377285662440091	5426.010202036487
0.7378515210050496	5437.159364214266
0.7379744962585505	5447.9197045079345
0.738097492007927	5458.681838191648
0.7382205082565949	5469.445765564304
0.738343545007971	5480.211486924852
0.7384666022654723	5490.979002572304
0.7385896800325165	5501.748312805681
0.7387127783125219	5512.519417924111
0.7388358971089073	5524.856577475744
0.7389590364250921	5537.35269230591
0.7390821962644963	5549.850889821889
0.7392053766305403	5562.35117037077
0.7393285775266454	5574.853534299751
0.7394517989562333	5587.3579819560655
0.7395750409227259	5599.864513686969
0.7396983034295463	5612.293160002259
0.739821586480118	5622.94488920727
0.7399448900778645	5633.59839370046
0.7400682142262109	5644.253673777765
0.740191558928582	5654.910729735071
0.7403149241884034	5665.569561868362
0.7404383100091014	5676.230170473678
0.7405617163941028	5686.892555847087
0.7406851433468352	5697.260870707284
0.7408085908707264	5706.277482101755
0.7409320589692048	5715.295596264787
0.7410555476456997	5724.315213446854
0.7411790569036406	5733.336333898444
0.7413025867464579	5742.358957870112
0.7414261371775823	5751.383085612444
0.7415497082004452	5760.40871737606
0.7416732998184786	5769.572484096323
0.741796912035115	5779.030877830227
0.7419205448537874	5788.490847963085
0.7420441982779297	5797.952394757631
0.742167872310976	5807.4155184766505
0.7422915669563612	5816.880219382958
0.7424152822175206	5826.346497739412
0.7425390180978901	5835.814353808922
0.7426627746009065	5847.098325719179
0.7427865517300065	5860.59622988441
0.7429103494886282	5874.09638370035
0.7430341678802096	5887.598787541915
0.7431580069081896	5901.103441784119
0.7432818665760077	5914.61034680205
0.7434057468871037	5928.119502970805
0.7435296478449182	5941.630910665582
0.7436535694528923	5954.251704844474
0.7437775117144678	5966.263408724067
0.7439014746330868	5978.277114554287
0.7440254582121922	5990.292822668824
0.7441494624552276	6002.310533401384
0.7442734873656368	6014.330247085731
0.7443975329468645	6026.3519640557015
0.7445215992023557	6038.375684645165
0.7446456861355559	6049.376437842196
0.7447697937499119	6060.001452269308
0.7448939220488703	6070.628237532156
0.7450180710358784	6081.256793925872
0.7451422407143843	6091.887121745655
0.7452664310878367	6102.519221286751
0.7453906421596846	6113.153092844425
0.7455148739333779	6123.78873671403
0.7456391264123667	6134.725059367071
0.7457633996001021	6145.710998185272
0.7458876935000356	6156.6987679932945
0.7460120081156189	6167.688369096265
0.7461363434503048	6178.679801799424
0.7462606995075466	6189.673066408043
0.7463850762907978	6200.668163227415
0.7465094738035127	6211.665248427433
0.7466338920491467	6222.704939765271
0.746758331031155	6233.746471051676
0.7468827907529935	6244.789842593282
0.7470072712181189	6255.835054696812
0.7471317724299886	6266.882107669028
0.7472562943920602	6277.9310018167325
0.7473808371077922	6288.981737446804
0.7475054005806435	6300.06730205589
0.7476299848140736	6311.3579024111605
0.7477545898115426	6322.65038453316
0.7478792155765113	6333.944748735515
0.7480038621124406	6345.240995331895
0.7481285294227926	6356.539124636039
0.7482532175110298	6367.839136961745
0.7483779263806148	6379.141032622823
0.7485026560350116	6390.370874058859
0.7486274064776842	6401.402477047266
0.748752177712097	6412.435918636152
0.7488769697417158	6423.471199131992
0.749001782570006	6434.508318841235
0.7491266162004343	6445.547278070427
0.7492514706364677	6456.588077126161
0.7493763458815739	6467.630716315082
0.7495012419392209	6478.417540107606
0.7496261588128773	6488.835750734714
0.7497510965060128	6499.255697730266
0.7498760550220971	6509.677381383646
0.7500010343646007	6520.100801984305
0.7501260345369949	6530.525959821735
0.750251055542751	6540.952855185459
0.7503760973853414	6551.381488365085
0.7505011600682389	6561.508676238707
0.750626243594917	6571.384400760975
0.7507513479688495	6581.261771237316
0.7508764731935109	6591.140787942072
0.7510016192723765	6601.021451149615
0.7511267862089218	6610.90376113435
0.7512519740066232	6620.787718170753
0.7513771826689577	6630.673322533334
0.7515024121994025	6640.086615092996
0.7516276626014359	6649.280490025726
0.751752933878536	6658.475897270928
0.7518782260341824	6667.672837084007
0.7520035390718548	6676.871309720394
0.7521288729950334	6686.071315435547
0.7522542278071992	6695.272854484988
0.7523796035118337	6704.475927124274
0.7525050001124189	6713.116687241486
0.7526304176124378	6721.636263510557
0.7527558560153731	6730.157259708994
0.752881315324709	6738.679676073474
0.7530067955439299	6747.203512840684
0.7531322966765205	6755.728770247344
0.7532578187259665	6764.255448530241
0.7533833616957542	6772.783547926185
0.75350892558937	6780.615317533395
0.7536345104103016	6788.415582182816
0.7537601161620366	6796.217146876343
0.7538857428480638	6804.020011830659
0.7540113904718717	6811.824177262457
0.7541370590369503	6819.629643388493
0.7542627485467898	6827.436410425554
0.7543884590048808	6835.091521231437
0.7545141904147151	6841.222599773079
0.7546399427797842	6847.354700161136
0.7547657161035808	6853.487822565925
0.754891510389598	6859.621967157781
0.7550173256413296	6865.757134107072
0.7551431618622698	6871.893323584185
0.7552690190559135	6878.030535759544
0.7553948972257561	6883.688502228632
0.7555207963752938	6887.735330898451
0.755646716508023	6891.782834039713
0.755772657627441	6895.8310117648325
0.7558986197370455	6899.87986418624
0.756024602840335	6903.929391416384
0.7561506069408084	6907.979593567733
0.7562766320419653	6912.030470752777
0.7564026781473054	6914.92290003538
0.75652874526033	6915.776064068672
0.7566548333845401	6916.62937029597
0.7567809425234375	6917.482818740972
0.7569070726805247	6918.336409427382
0.7570332238593047	6919.190142378906
0.7571593960632813	6920.044017619255
0.7572855892959586	6920.898035172146
0.7574118035608413	6920.070256544793
0.7575380388614347	6917.596844612915
0.7576642952012449	6915.123020445715
0.7577905725837782	6912.6487839744905
0.7579168710125422	6910.174135130516
0.7580431904910444	6907.699073845067
0.7581695310227928	6905.223600049407
0.7582958926112967	6902.747713674777
0.7584222752600652	6896.354149997571
0.7585486789726085	6887.709201681405
0.7586751037524372	6879.0628125405165
0.7588015496030628	6870.414982334754
0.7589280165279966	6861.765710823975
0.7590545045307512	6853.114997767943
0.7591810136148396	6844.462842926403
0.7593075437837755	6835.809246059043
0.7594340950410726	6820.512206464163
0.7595606673902461	6803.285530118913
0.7596872608348112	6786.0559826609215
0.7598138753782836	6768.823563611706
0.75994051102418	6751.588272492633
0.7600671677760173	6734.350108825054
0.7601938456373134	6717.109072130183
0.7603205446115863	6699.865161929207
0.7604472647023548	6669.503008949774
0.7605740059131385	6637.832129520125
0.7607007682474575	6606.15597161054
0.7608275517088319	6574.474534341374
0.7609543563007835	6542.787816832593
0.7610811820268336	6511.095818204247
0.7612080288905045	6479.3985375761895
0.7613348968953197	6446.459004282828
0.7614617860448022	6388.134092362393
0.7615886963424764	6329.7994596232265
0.7617156277918667	6271.455104445326
0.7618425803964988	6213.1010252081805
0.7619695541598982	6154.737220291178
0.7620965490855914	6096.363688073399
0.7622235651771058	6037.980426933517
0.7623506024379685	5972.726455159294
0.7624776608717082	5877.38918304769
0.7626047404818536	5782.036021390728
0.7627318412719337	5686.666967540322
0.762858963245479	5591.282018847546
0.7629861064060198	5495.881172663314
0.7631132707570876	5400.464426337951
0.7632404563022137	5305.031777221621
0.7633676630449308	5189.165454459208
0.7634948909887717	5029.817171231607
0.7636221401372697	4870.442329957008
0.7637494104939593	4711.040926208713
0.7638767020623748	4551.612955560024
0.7640040148460518	4392.158413582711
0.7641313488485262	4232.677295848408
0.7642587040733344	4073.1695979276356
0.7643860805240132	3873.702665015816
0.7645134782041005	3626.5508650795728
0.7646408971171346	3379.357873176571
0.764768337266654	3132.1236824416756
0.7648957986561985	2884.8482860082445
0.7650232812893079	2637.531677008774
0.7651507851695227	2390.173848574468
0.7652783103003843	2142.7747938354532
0.7654058566854343	1930.531584621835
0.7655334243282153	1742.2407309805958
0.7656610132322699	1553.9184955306616
