#wavelength	surface flux
0.7	143785174.96549952
0.7001166666666666	147538521.05849072
0.7002333527777778	147881351.4375399
0.700350058336574	148224238.95498544
0.7004667833462966	148567183.6203501
0.7005835278101878	148910185.44315994
0.7007002917314895	149253244.43293968
0.7008170751134447	149596360.59921768
0.7009338779592968	149939533.95152324
0.7010507002722901	149490570.1836414
0.7011675420556689	148077483.77357912
0.701284403312678	146664161.84911743
0.7014012840465635	145250604.37099963
0.7015181842605713	143836811.29996908
0.701635103957948	142422782.59676105
0.701752043141941	141008518.2221027
0.701869001815798	139594018.1367132
0.7019859799827672	135707724.44601372
0.7021029776460976	130100717.9402368
0.7022199948090387	124492776.93336846
0.7023370314748403	118883901.26966815
0.7024540876467528	113274090.79335809
0.702571163328027	107663345.34864455
0.7026882585219152	102051664.77967528
0.7028053732316688	96439048.93061924
0.7029225074605406	95212188.69323996
0.7030396612117841	95679026.57144135
0.7031568344886527	96145942.25595586
0.7032740272944008	96612935.75975083
0.7033912396322832	97080007.09579666
0.7035084715055552	97547156.27706471
0.7036257229174727	98014383.31652981
0.7037429938712924	98481688.22716859
0.7038602843702709	100291785.74153444
0.7039775944176659	102329919.18102406
0.7040949240167356	104368392.30942106
0.7042122731707383	106407205.1833384
0.7043296418829335	108446357.85940252
0.7044470301565806	110485850.39424567
0.70456443799494	112525682.8445097
0.7046818654012724	114565855.26685002
0.7047993123788394	115121790.3729806
0.7049167789309024	115676114.51657614
0.7050342650607243	116230531.04752982
0.7051517707715678	116785039.9812384
0.7052692960666963	117339641.33310232
0.705386840949374	117894335.11852464
0.7055044054228656	118449121.35291211
0.7056219894904361	118867311.96703912
0.7057395931553511	118416934.05286424
0.705857216420877	117966481.07570332
0.7059748592902804	117515953.02304645
0.7060925217668288	117065349.88238037
0.70621020385379	116614671.6411909
0.7063279055544321	116163918.28696181
0.7064456268720246	115713089.80717298
0.7065633678098366	115563301.42038217
0.7066811283711383	116242764.9369449
0.7067989085592001	116922341.69742708
0.7069167083772933	117602031.72070222
0.7070345278286895	118281835.02564836
0.707152366916661	118961751.63114545
0.7072702256444803	119641781.55607602
0.7073881040154211	120321924.81932831
0.7075060020327569	120288367.62799598
0.7076239196997625	119215243.98004478
0.7077418570197124	118141941.47815332
0.7078598139958823	117068460.09251161
0.7079777906315483	115994799.79330459
0.7080957869299869	114920960.55071518
0.7082138028944751	113846942.33491924
0.7083318385282908	112772745.11608656
0.7084498938347124	113028277.42258902
0.708567968817018	114411375.9676659
0.7086860634784875	115794705.02916855
0.7088041778224007	117178264.64551592
0.7089223118520377	118562054.85513084
0.7090404655706796	119946075.69644655
0.709158638981608	121330327.20790412
0.709276832088105	122714809.42794718
0.7093950448934531	123521282.06263718
0.7095132774009353	124052120.0568474
0.7096315296138355	124583046.52405687
0.7097498015354378	125114061.47901072
0.7098680931690269	125645164.93645656
0.7099864045178884	126176356.91114597
0.7101047355853081	126707637.41783106
0.7102230863745722	127239006.47126691
0.7103414568889679	125312446.52819993
0.7104598471317828	122827045.9917086
0.7105782571063047	120341231.22179644
0.7106966868158224	117855002.1494227
0.710815136263625	115368358.70553742
0.7109336054530023	112881300.82107659
0.7110520943872445	110393828.42696923
0.7111706030696424	107905941.45412806
0.7112891315034873	107782090.99853982
0.7114076796920712	107771034.67582859
0.7115262476386865	107759976.51039691
0.7116448353466263	107748916.50193767
0.711763442819184	107737854.65014368
0.711882070059654	107726790.95470773
0.7120007170713306	107715725.41532253
0.7121193838575091	107887482.80000328
0.7122380704214853	109966084.3461714
0.7123567767665555	112045032.32592842
0.7124755028960166	114124326.79701643
0.7125942488131658	116203967.81718138
0.7127130145213015	118283955.44418873
0.7128318000237216	120364289.73579416
0.7129506053237256	122444970.74978447
0.7130694304246129	123790679.5820439
0.7131882753296837	122565678.56929591
0.7133071400422386	121340473.38971217
0.7134260245655789	120115064.00926599
0.7135449289030065	118889450.39392269
0.7136638530578235	117663632.50964415
0.7137827970333332	116437610.32238312
0.7139017608328388	115211383.79809117
0.7140207444596443	114498782.84605485
0.7141397479170543	114702684.74935028
0.7142587712083737	114906620.63629597
0.7143778143369084	115110590.51255633
0.7144968773059646	115314594.3837961
0.7146159601188489	115518632.25568101
0.7147350627788687	115722704.13387792
0.7148541852893318	115926810.02405444
0.7149733276535467	117069339.46427156
0.7150924898748222	119158310.356305
0.715211671956468	121247629.41015421
0.7153308739017941	123337296.68384735
0.715450095714111	125427312.23541844
0.71556933739673	127517676.12291509
0.7156885989529628	129608388.40439273
0.7158078803861218	131699449.1379204
0.7159271816995193	130454924.91216913
0.7160465028964692	127252208.44293003
0.7161658439802853	124048958.18761283
0.7162852049542819	120845174.05725369
0.7164045858217744	117640855.96287085
0.716523986586078	114436003.81547363
0.7166434072505089	111230617.52605346
0.716762847818384	108024697.00558388
0.7168823082930204	106981199.57626723
0.7170017886777359	106573861.09642433
0.7171212889758488	106166454.72683506
0.7172408091906781	105758980.45618406
0.7173603493255433	105351438.2731545
0.7174799093837642	104943828.16642798
0.7175994893686615	104536150.12468351
0.7177190892835562	104128404.13659894
0.7178387091317702	106914853.27970235
0.7179583489166254	110022416.13485628
0.7180780086414448	113130496.91715513
0.7181976883095517	116239095.71291761
0.7183173879242699	119348212.60847968
0.718437107488924	122457847.69019173
0.7185568470068389	125568001.04441859
0.7186766064813399	128597684.1633893
0.7187963859157535	129602978.89213325
0.7189161853134061	130608441.16999862
0.719036004677625	131614071.0249104
0.7191558440117378	132619868.48479737
0.7192757033190732	133625833.57759574
0.7193955826029597	134631966.3312417
0.7195154818667269	135638266.7736808
0.7196354011137046	136270606.09809774
0.7197553403472235	135180494.7813361
0.7198752995706147	134090201.77935547
0.7199952787872098	132999727.06187376
0.720115278000341	131909070.59860584
0.7202352972133411	130818232.35926057
0.7203553364295432	129727212.31354374
0.7204753956522815	128636010.43115105
0.7205954748848902	127460231.21540025
0.7207155741307044	126098195.57551545
0.7208356933930594	124735932.92969306
0.7209558326752915	123373443.24009602
0.7210759919807375	122010726.46888225
0.7211961713127342	120647782.57820837
0.7213163706746197	119284611.53021722
0.7214365900697322	117921213.28705281
0.7215568295014103	116934675.94434448
0.721677088972994	116397903.84738931
0.7217973684878227	115861042.2884189
0.7219176680492374	115324091.25252135
0.7220379876605789	114787050.7247848
0.722158327325189	114249920.69029345
0.7222786870464099	113712701.13412996
0.7223990668275843	113175392.04137354
0.7225194666720555	112430436.16141917
0.7226398865831676	111538255.11304918
0.7227603265642646	110645925.36783993
0.722880786618692	109753446.90100455
0.7230012667497951	108860819.68775865
0.7231217669609201	107968043.70331043
0.7232422872554135	107075118.92286558
0.7233628276366229	106182045.32162246
0.7234833881078956	105972050.24304906
0.7236039686725803	106021415.23006038
0.7237245693340255	106070788.44456945
0.7238451900955812	106120169.8879477
0.7239658309605971	106169559.56156646
0.7240864919324239	106218957.46679755
0.7242071730144127	106268363.60501285
0.724327874209915	106317777.9775844
0.7244485955222832	106702302.13435198
0.7245693369548704	107142296.58841509
0.7246900985110294	107582364.37488654
0.7248108801941148	108022505.50599025
0.7249316820074803	108462719.99394765
0.7250525039544815	108903007.85098712
0.7251733460384739	109343369.08933616
0.7252942082628137	109786461.25313503
0.7254150906308574	111769485.4261573
0.7255359931459625	113752840.1032086
0.7256569158114868	115736525.33937337
0.7257778586307888	117720541.18974514
0.7258988216072273	119704887.70942473
0.7260198047441617	121689564.95352207
0.7261408080449525	123674572.9771635
0.72626183151296	125212218.30048995
0.7263828751515454	123774939.49136111
0.7265039389640706	122337421.13576438
0.726625022953898	120899663.19377415
0.7267461271243904	119461665.62545958
0.7268672514789111	118023428.39088456
0.7269883960208241	116584951.45010504
0.7271095607534942	115146234.76316775
0.7272307456802866	113814928.04324383
0.7273519508045666	112774187.40582502
0.7274731761297006	111733273.3116338
0.7275944216590555	110692185.73176025
0.7277156873959987	109650924.63728967
0.7278369733438982	108609489.99930167
0.727958279506122	107567881.78887679
0.7280796058860397	106526099.97708224
0.7282009524870207	106699122.70152235
0.7283223193124353	108669262.27120057
0.7284437063656539	110639730.1974697
0.7285651136500483	112610526.53506309
0.7286865411689898	114581651.33870868
0.7288079889258514	116553104.66315965
0.7289294569240056	118524886.56316018
0.7290509451668262	120496997.09347963
0.7291724536576875	121981428.71477108
0.7292939823999636	123061740.91669449
0.7294155313970303	124142233.17065372
0.7295371006522632	125222905.50665498
0.7296586901690385	126303757.9547114
0.7297802999507332	127384790.54484202
0.7299019300007252	128466003.30707379
0.7300235803223919	129547396.27142969
0.7301452509191123	129305333.33665167
0.7302669417942654	128452280.05786704
0.7303886529512311	127599084.60353568
0.7305103843933897	126745746.94996172
0.7306321361241218	125892267.07344615
0.7307539081468093	125038644.95028299
0.7308757004648336	124184880.55676778
0.7309975130815778	123330973.86918595
0.7311193460004248	123277828.49310748
0.7312411992247582	123405988.61677492
0.7313630727579622	123534170.10046294
0.7314849666034219	123662372.9477317
0.7316068807645224	123790597.16214159
0.7317288152446498	123918842.74725395
0.7318507700471907	124047109.70663056
0.7319727451755319	124175398.04383369
0.732094740633061	124447003.54686166
0.7322167564231665	124725105.53907092
0.7323387925492371	125003253.88161223
0.7324608490146619	125281448.58221054
0.732582925822831	125559689.64859235
0.7327050229771347	125837977.08848493
0.7328271404809642	126116310.90961775
0.7329492783377112	126277332.44872084
0.7330714365507675	125284620.8875468
0.7331936151235259	124291743.87444614
0.7333158140593796	123298701.38184442
0.7334380333617229	122305493.38215908
0.7335602730339499	121312119.84780669
0.7336825330794556	120318580.75119835
0.7338048135016354	119324876.0647425
0.7339271143038857	118279559.59293628
0.734049435489603	117061688.96239366
0.7341717770621846	115843615.35341239
0.7342941390250283	114625338.7321636
0.7344165213815324	113406859.06481172
0.734538924135096	112188176.3175135
0.7346613472891185	110969290.45642567
0.734783790847	109750201.44769388
0.7349062548121412	108879105.49464938
0.7350287391879431	108623315.428772
0.7351512439778078	108367482.73121648
0.7352737691851374	108111607.39487831
0.735396314813335	107855689.41265054
0.7355188808658037	107599728.77742615
0.7356414673459482	107343725.48209536
0.7357640742571725	107087679.51954886
0.7358867016028818	107509828.43019839
0.7360093493864824	108601868.44087973
0.7361320176113801	109694090.45822804
0.736254706280982	110786494.51257925
0.7363774153986956	111879080.63427427
0.7365001449679286	112971848.853654
0.7366228949920899	114064799.20107119
0.7367456654745885	115157931.70687959
0.7368684564188344	115319313.73739077
0.7369912678282374	114954013.9631594
0.7371140997062088	114588653.30563217
0.7372369520561599	114223231.75466168
0.7373598248815024	113857749.30010018
0.7374827181856494	113492205.93179563
0.7376056319720137	113126601.63959634
0.7377285662440091	112760936.4133483
0.7378515210050496	111549483.86680761
0.7379744962585505	110083376.07319203
0.738097492007927	108617023.92827788
0.7382205082565949	107150427.3913405
0.738343545007971	105683586.42164724
0.7384666022654723	104216500.97845756
0.7385896800325165	102749171.02102956
0.7387127783125219	101281596.5086068
0.7388358971089073	102824172.14376493
0.7389590364250921	104668954.9396165
0.7390821962644963	106514045.19926879
0.7392053766305403	108359442.97396165
0.7393285775266454	110205148.31495161
0.7394517989562333	112051161.2735002
0.7395750409227259	113897481.90087223
0.7396983034295463	115688518.43662302
0.739821586480118	116243172.25462049
0.7399448900778645	116797918.51491985
0.7400682142262109	117352757.23293094
0.740191558928582	117907688.42406112
0.7403149241884034	118462712.10372272
0.7404383100091014	119017828.28733106
0.7405617163941028	119573036.99030298
0.7406851433468352	119749035.54905467
0.7408085908707264	118189844.90329246
0.7409320589692048	116630394.39242338
0.7410555476456997	115070683.97313455
0.7411790569036406	113510713.60211031
0.7413025867464579	111950483.23602378
0.7414261371775823	110389992.83154249
0.7415497082004452	108829242.34532832
0.7416732998184786	107909664.78543757
0.741796912035115	108365934.14654072
0.7419205448537874	108822279.55253728
0.7420441982779297	109278701.0161015
0.742167872310976	109735198.54991005
0.7422915669563612	110191772.1666409
0.7424152822175206	110648421.87897441
0.7425390180978901	111105147.69959302
0.7426627746009065	111545363.9027949
0.7427865517300065	111965434.27259383
0.7429103494886282	112385574.6541215
0.7430341678802096	112805785.05904578
0.7431580069081896	113226065.4990375
0.7432818665760077	113646415.98576984
0.7434057468871037	114066836.53091626
0.7435296478449182	114487327.1461533
0.7436535694528923	113847371.77841707
0.7437775117144678	112481353.97582392
0.7439014746330868	111115108.50359908
0.7440254582121922	109748635.32379434
0.7441494624552276	108381934.39845909
0.7442734873656368	107015005.68963659
0.7443975329468645	105647849.15936151
0.7445215992023557	104280464.76966488
0.7446456861355559	103282985.62998283
0.7447697937499119	102421687.46751973
0.7448939220488703	101560245.7553631
0.7450180710358784	100698660.46958852
0.7451422407143843	99836931.58626622
0.7452664310878367	98975059.08146256
0.7453906421596846	98113042.93124236
0.7455148739333779	97250883.1116635
0.7456391264123667	97571872.06562524
0.7457633996001021	98082116.44000804
0.7458876935000356	98592445.85512084
0.7460120081156189	99102860.32513517
0.7461363434503048	99613359.86422808
0.7462606995075466	100123944.48657797
0.7463850762907978	100634614.20636415
0.7465094738035127	101146322.18066417
0.7466338920491467	101907452.31836551
0.746758331031155	102668709.31109056
0.7468827907529935	103430093.17998016
0.7470072712181189	104191603.94618127
0.7471317724299886	104953241.63084355
0.7472562943920602	105715006.25511941
0.7473808371077922	106476897.84016666
0.7475054005806435	107111691.69577017
0.7476299848140736	106962937.02264434
0.7477545898115426	106814157.55707294
0.7478792155765113	106665353.29492392
0.7480038621124406	106516524.23206465
0.7481285294227926	106367670.36436161
0.7482532175110298	106218791.68768045
0.7483779263806148	106069888.19788674
0.7485026560350116	105850729.35449322
0.7486274064776842	105441457.6681633
0.748752177712097	105032117.7698864
0.7488769697417158	104622709.64829226
0.749001782570006	104213233.29201168
0.7491266162004343	103803688.68967183
0.7492514706364677	103394075.82989809
0.7493763458815739	102984394.70131396
0.7495012419392209	102646084.07151209
0.7496261588128773	102410418.81470731
0.7497510965060128	102174714.28035955
0.7498760550220971	101938970.46192284
0.7500010343646007	101703187.35284968
0.7501260345369949	101467364.94659157
0.750251055542751	101231503.23659934
0.7503760973853414	100995602.21632196
0.7505011600682389	100658219.97620504
0.750626243594917	100236079.83628243
0.7507513479688495	99813869.33967048
0.7508764731935109	99391588.47464228
0.7510016192723765	98969237.2294698
0.7511267862089218	98546815.59242353
0.7512519740066232	98124323.55177093
0.7513771826689577	97701761.09577797
0.7515024121994025	97371096.03849253
0.7516276626014359	97083256.43905276
0.751752933878536	96795368.86634693
0.7518782260341824	96507433.31237888
0.7520035390718548	96219449.7691517
0.7521288729950334	95931418.22866748
0.7522542278071992	95643338.68292649
0.7523796035118337	95355211.12392773
0.7525050001124189	95033098.13040444
0.7526304176124378	94703550.82298684
0.7527558560153731	94373948.59101842
0.752881315324709	94044291.42534436
0.7530067955439299	93714579.31680924
0.7531322966765205	93384812.25625646
0.7532578187259665	93054990.23452683
0.7533833616957542	92725113.24246024
0.75350892558937	92119068.8561207
0.7536345104103016	91499939.86750215
0.7537601161620366	90880707.69071914
0.7538857428480638	90261372.30857274
0.7540113904718717	89641933.70386346
0.7541370590369503	89022391.85938685
0.7542627485467898	88402746.75793578
0.7543884590048808	87830300.57980803
0.7545141904147151	87729461.86744384
0.7546399427797842	87628606.34862776
0.7547657161035808	87527734.02055854
0.754891510389598	87426844.88043463
0.7550173256413296	87325938.925454
0.7551431618622698	87225016.15281424
0.7552690190559135	87124076.5597124
0.7553948972257561	86872642.39672206
0.7555207963752938	86116069.18479256
0.755646716508023	85359369.87732817
0.755772657627441	84602544.45331226
0.7558986197370455	83845592.89172558
0.756024602840335	83088515.17154549
0.7561506069408084	82331311.27174538
0.7562766320419653	81573981.17129463
0.7564026781473054	80829699.15537944
0.75652874526033	80108476.35660435
0.7566548333845401	79387133.35402909
0.7567809425234375	78665670.12762032
0.7569070726805247	77944086.65734091
0.7570332238593047	77222382.92314987
0.7571593960632813	76500558.90500244
0.7572855892959586	75778614.58285196
0.7574118035608413	75277175.84338441
0.7575380388614347	74991499.05556795
0.7576642952012449	74705774.6549534
0.7577905725837782	74420002.63360584
0.7579168710125422	74134182.98358753
0.7580431904910444	73848315.69696079
0.7581695310227928	73562400.76578663
0.7582958926112967	73276438.18212359
0.7584222752600652	72679353.63803907
0.7585486789726085	71903469.26641493
0.7586751037524372	71127455.58072856
0.7588015496030628	70351312.55942638
0.7589280165279966	69575040.18095554
0.7590545045307512	68798638.42375495
0.7591810136148396	68022107.2662615
0.7593075437837755	67245446.68690732
0.7594340950410726	66346561.72542165
0.7595606673902461	65412102.74282534
0.7596872608348112	64477488.017064326
0.7598138753782836	63542717.52218339
0.75994051102418	62607791.232219085
0.7600671677760173	61672709.12120719
0.7601938456373134	60737471.16317608
0.7603205446115863	59802077.33215249
0.7604472647023548	58646744.623968184
0.7605740059131385	57469372.95855415
0.7607007682474575	56291805.06452806
0.7608275517088319	55114040.90918891
0.7609543563007835	53936080.45982127
0.7610811820268336	52757923.683712766
0.7612080288905045	51579570.54814385
0.7613348968953197	50394045.4448044
0.7614617860448022	49065199.345474906
0.7615886963424764	47736131.771793716
0.7617156277918667	46406842.68685153
0.7618425803964988	45077332.05372743
0.7619695541598982	43747599.83549816
0.7620965490855914	42417645.995233506
0.7622235651771058	41087470.49599393
0.7623506024379685	39730032.11043655
0.7624776608717082	38253842.995822325
0.7626047404818536	36777407.849688925
0.7627318412719337	35300726.6310337
0.762858963245479	33823799.29884112
0.7629861064060198	32346625.812093027
0.7631132707570876	30869206.129762284
0.7632404563022137	29391540.21081914
0.7633676630449308	27885116.192395978
0.7634948909887717	26317748.901113395
0.7636221401372697	24750120.381950974
0.7637494104939593	23182230.591367215
0.7638767020623748	21614079.48582062
0.7640040148460518	20045667.02175465
0.7641313488485262	18476993.155611392
0.7642587040733344	16908057.843821995
0.7643860805240132	15424104.007585745
0.7645134782041005	14041623.256022666
0.7646408971171346	12658912.091000417
0.764768337266654	11275970.474117838
