#wavelength	surface flux
0.8	2462436.183524154
0.8002000000000001	2472655.3654468274
0.8004000500000003	2483201.8882408296
0.8006001500125003	2493754.328324676
0.8008003000500035	2504309.406518544
0.8010005001250161	2514867.1234819656
0.8012007502500472	2525427.4798746128
0.8014010504376099	2534563.7006896012
0.8016014007002193	2543224.279301015
0.8018018010503944	2551887.0230570817
0.8020022515006572	2560551.932499091
0.8022027520635323	2569219.0081684534
0.8024033027515483	2577850.627726672
0.8026039035772362	2586447.5362335914
0.8028045545531306	2595046.5939676375
0.8030052556917691	2603647.801466122
0.803206007005692	2612251.159266473
0.8034068085074435	2621038.930325595
0.8036076602095705	2630339.8066239175
0.8038085621246229	2639643.0081413076
0.8040095142651542	2648948.5354590826
0.8042105166437206	2658256.389158684
0.8044115692728815	2667523.9455042547
0.8046126721651998	2674960.4717466226
0.8048138253332411	2682398.8571205446
0.8050150287895745	2689839.1020908174
0.805216282546772	2697281.2071223306
0.8054175866174087	2704725.1726800976
0.8056189410140631	2712434.6824035477
0.8058203457493168	2720220.7589448546
0.8060218008357541	2728008.7820052872
0.8062233062859632	2735798.7520714886
0.8064248621125346	2743590.669630201
0.806626468328063	2752103.00020422
0.8068281249451449	2761234.533410982
0.8070298319763813	2770368.349501058
0.8072315894343755	2779504.449045149
0.8074333973317341	2788642.8326141294
0.8076352556810671	2796327.1264542937
0.8078371644949874	2800507.60518074
0.8080391237861113	2804689.1290268693
0.8082411335670578	2808871.698253957
0.8084431938504498	2813055.313123356
0.8086453046489125	2817199.657442209
0.8088474659750746	2820594.4176991964
0.8090496778415686	2823990.0266462523
0.809251940261029	2827386.484495543
0.8094542532460944	2830783.7914592987
0.8096566168094059	2834181.9477497917
0.8098590309636085	2838742.2064988883
0.8100614957213493	2843575.406040442
0.8102640110952797	2848409.8138818815
0.8104665770980536	2853245.4303252837
0.8106691937423283	2858082.255672798
0.8108718610407639	2863686.0730582587
0.8110745790060241	2869876.845336255
0.8112773476507757	2876069.1653073267
0.8114801669876885	2882263.0333583895
0.8116830370294355	2888458.449876461
0.8118859577886929	2894139.5014094426
0.8120889292781401	2898750.3976014424
0.8122919515104597	2903362.44651749
0.8124950244983374	2907975.6484457664
0.8126981482544621	2912590.003674525
0.8129013227915257	2917320.259141165
0.8131045481222237	2923365.5638465895
0.8133078242592543	2929412.379878191
0.8135111512153191	2935460.707613799
0.813714529003123	2941510.5474313414
0.8139179576353739	2947561.899708839
0.8141214371247829	2965113.770299609
0.8143249674840641	2984899.8794308607
0.814528548725935	3004690.9350893837
0.8147321808631167	3024486.938511848
0.8149358639083326	3044287.8909351616
0.8151395978743097	3057604.5784599967
0.8153433827737784	3066540.2091464703
0.8155472186194719	3075478.0737406122
0.8157511054241268	3084418.1728009013
0.815955043200483	3093360.506885961
0.8161590319612831	3101081.1419141246
0.8163630717192736	3106560.996063974
0.8165671624872033	3112042.220177355
0.8167713042778252	3117524.81459677
0.8169754971038948	3123008.7796647926
0.8171797409781707	3127563.0437342855
0.8173840359134155	3124685.4103136444
0.8175883819223938	3121807.0574846515
0.8177927790178745	3118927.98506745
0.8179972272126291	3116048.1928821434
0.8182017265194322	3113167.6807487933
0.8184062769510622	3119668.9063103446
0.8186108785203001	3127615.5785698956
0.8188155312399301	3135564.2374975
0.8190202351227402	3143514.883589846
0.819224990181521	3151467.5173437097
0.8194297964290664	3165579.976770403
0.8196346538781738	3183407.589950935
0.8198395625416434	3201239.6600347552
0.8200445224322789	3219076.1881361045
0.820249533562887	3236917.175369473
0.8204545959462778	3251273.95300016
0.8206597095952644	3260019.399884205
0.8208648745226633	3268767.033129978
0.8210700907412941	3277516.853284061
0.8212753582639793	3286268.860893173
0.8214806771035456	3292989.0758545464
0.8216860472728215	3287179.171977069
0.8218914687846397	3281367.815623622
0.822096941651836	3275555.0064310837
0.822302465887249	3269740.7440362503
0.8225080415037209	3263925.028075815
0.8227136685140968	3273936.2438613917
0.8229193469312254	3285746.8150366815
0.8231250767679583	3297560.3388547692
0.8233308580371503	3309376.816053805
0.8235366907516598	3321196.2473721495
0.8237425749243477	3333680.8101353585
0.8239485105680789	3346519.4592710854
0.824154497695721	3359361.3180690883
0.824360536320145	3372206.3873317926
0.8245666264542252	3385054.6678618123
0.8247727681108388	3396772.2291862164
0.8249789613028664	3406868.716893745
0.8251852060431922	3416967.7287232094
0.825391502344703	3427069.2653056267
0.8255978502202894	3437173.3272721986
0.8258042496828445	3446683.0773651255
0.8260107007452654	3453296.6196553707
0.8262172034204517	3459911.815331182
0.8264237577213068	3466528.664805914
0.8266303636607373	3473147.168493017
0.8268370212516525	3479767.3268060386
0.8270437305069654	3481268.815447981
0.8272504914395923	3482370.559363688
0.8274573040624523	3483472.5787153738
0.8276641683884679	3484574.8735718965
0.8278710844305652	3485677.444002135
0.8280780522016729	3491551.2438276242
0.8282850717147234	3499607.306228381
0.8284921429826521	3507665.38264473
0.8286992660183978	3515725.4735801895
0.8289064408349024	3523787.579538377
0.8291136674451112	3529851.8786660386
0.8293209458619727	3533396.018086085
0.8295282760984382	3536941.0435409816
0.829735658167463	3540486.955252246
0.8299430920820048	3544033.753441434
0.8301505778550254	3547855.116063656
0.8303581154994891	3552769.7620040467
0.8305657050283641	3557685.6366059277
0.8307733464546212	3562602.7401764556
0.8309810397912352	3567521.073022884
0.8311887850511829	3572440.635452514
0.8313965822474458	3586895.3075033952
0.8316044313930077	3601796.1110124094
0.8318123325008561	3616700.639722315
0.8320202855839813	3631608.8945643906
0.8322282906553774	3646520.876470178
0.8324363477280413	3654317.4787520105
0.8326444568149735	3659249.9025720772
0.8328526179291771	3664183.559498093
0.8330608310836596	3669118.4498383477
0.8332690962914304	3674054.5739011806
0.8334774135655034	3678341.876424181
0.833685782918895	3681904.117352819
0.8338942043646247	3685467.2488416876
0.834102677915716	3689031.2711134306
0.834311203585195	3692596.1843907386
0.8345197813860912	3698497.645645144
0.8347284113314379	3712262.621302633
0.8349370934342709	3726031.038204029
0.8351458277076294	3739802.8972096336
0.8353546141645565	3753578.1991800126
0.8355634528180977	3767356.944975878
0.8357723436813022	3759538.9349139086
0.8359812867672226	3751452.2629102776
0.8361902820889144	3743363.569238649
0.8363993296594368	3735272.853393601
0.8366084294918518	3727180.114869588
0.8368175815992247	3735010.712432799
0.8370267859946247	3748328.1249504266
0.8372360426911234	3761648.86682118
0.8374453517017962	3774972.938877399
0.8376547130397217	3788300.341951631
0.8378641267179816	3797842.993472093
0.8380735927496613	3803629.2672026088
0.8382831111478488	3809416.987501554
0.8384926819256358	3815206.1547305714
0.8387023050961173	3820996.7692514006
0.8389119806723914	3826785.2163006323
0.8391217086675596	3832564.9363179714
0.8393314890947265	3838346.10126531
0.8395413219670003	3844128.711503886
0.8397512072974922	3849912.767395026
0.8399611450993165	3855894.919448666
0.8401711353855914	3871644.1431375793
0.8403811781694378	3887397.304132411
0.8405912734639802	3903154.403417495
0.8408014212823464	3918915.4419774082
0.8410116216376671	3934680.4207969587
0.8412218745430766	3948447.5206945823
0.8414321800117124	3961635.609946256
0.8416425380567154	3974826.9962202497
0.8418529486912297	3988021.6803408144
0.8420634119284025	4001219.6631323984
0.8422739277813847	4010123.5142200775
0.8424844962633302	4015243.3876273157
0.842695117387396	4020364.5410028994
0.8429057911667428	4025486.974666827
0.8431165176145345	4030610.6889391732
0.8433272967439382	4035966.6412946265
0.8435381285681244	4041887.301182544
0.8437490131002665	4047809.441235432
0.8439599503535415	4053733.06182333
0.84417094034113	4059658.163316379
0.8443819830762154	4065733.276762534
0.8445930785719846	4074802.0721875187
0.8448042268416277	4083873.1348113553
0.8450154278983382	4092946.465200846
0.8452266817553128	4102022.0639229342
0.8454379884257517	4111099.9315447034
0.8456493479228583	4120257.18241023
0.845860760259839	4129435.2925127195
0.846072225449904	4138615.6971427347
0.8462837435062666	4147798.396873909
0.8464953144421433	4156983.3922800217
0.8467069382707537	4164477.436871665
0.8469186150053215	4170653.5208912524
0.847130344659073	4176831.1489318465
0.8473421272452377	4183010.321379444
0.8475539627770492	4189191.0386201604
0.8477658512677435	4195963.042228743
0.8479777927305605	4203988.976593781
0.8481897871787432	4212016.917442408
0.848401834625538	4220046.865276253
0.8486139350841944	4228078.820597051
0.8488260885679657	4235891.227457302
0.8490382950901076	4241004.892954121
0.8492505546638802	4246119.836867318
0.8494628673025462	4251236.05951649
0.8496752330193721	4256353.561221333
0.8498876518276269	4261472.342301596
0.8501001237405839	4253452.04116717
0.8503126487715191	4242806.687938176
0.850525226933712	4232158.673370882
0.8507378582404455	4221507.996799946
0.8509505427050057	4210854.6575598605
0.8511632803406821	4204572.1010929905
0.8513760711607672	4201282.983719646
0.8515889151785576	4197993.0440669535
0.8518018124073523	4194702.28192935
0.8520147628604541	4191410.6971012154
0.8522277665511693	4197856.813978606
0.8524408234928071	4222314.766472456
0.8526539336986805	4246778.833454438
0.8528670971821053	4271249.016453166
0.8530803139564007	4295725.316997614
0.8532935840348901	4319853.197524356
0.8535069074308987	4340992.84621196
0.8537202841577566	4362137.779811752
0.8539337142287962	4383287.999644948
0.8541471976573534	4404443.507033088
0.8543607344567677	4425604.30329808
0.8545743246403821	4437806.894701102
0.8547879682215422	4448589.031288648
0.8550016652135977	4459373.86341034
0.8552154156299011	4470161.391740061
0.8554292194838088	4480951.616951874
0.8556430767886797	4490009.636478585
0.855856987557877	4498016.533083519
0.8560709518047664	4506025.431412599
0.8562849695427177	4514036.331966265
0.8564990407851035	4522049.235245071
0.8567131655452999	4529997.067647102
0.8569273438366862	4537836.983851681
0.8571415756726455	4545678.860035314
0.8573558610665638	4553522.696687995
0.8575702000318304	4561368.494299831
0.8577845925818384	4569345.706454248
0.857999038729984	4578133.524622596
0.8582135384896665	4586923.539745484
0.858428091874289	4595715.752372152
0.8586426988972576	4604510.163051976
0.8588573595719821	4613306.772334471
0.8590720739118751	4620503.8502217885
0.8592868419303532	4627513.878561074
0.8595016636408359	4634525.659407444
0.8597165390567462	4641539.193199024
0.8599314681915105	4648554.480374053
0.8601464510585584	4653284.771082235
0.860361487671323	4656802.45327291
0.8605765780432408	4660321.014884132
0.8607917221877518	4663840.456135759
0.8610069201182988	4667360.777247698
0.8612221718483286	4650899.7345459135
0.8614374773912907	4605627.467811049
0.8616528367606385	4560343.883009513
0.8618682499698288	4515048.977311748
0.8620837170323213	4469742.747887567
0.8622992379615795	4431528.27951017
0.8625148127710699	4428454.716743744
0.8627304414742627	4425380.385586625
0.8629461240846313	4422305.285846718
0.8631618606156526	4419229.417331874
0.8633776510808066	4416152.779849903
0.8635934954935769	4475073.295038597
0.8638093938674504	4539090.622140158
0.8640253462159173	4603123.953573492
0.8642413525524714	4667173.293339684
0.8644574128906095	4731238.645440804
0.8646735272438323	4738492.095501507
0.8648896956256433	4719320.802251881
0.8651059180495498	4700144.716178942
0.8653221945290621	4680963.836084503
0.8655385250776946	4661778.160770013
0.8657549097089641	4662386.055246363
0.8659713484363913	4688340.362627882
0.8661878412735006	4714301.158586256
0.866404388233819	4740268.444743617
0.8666209893308775	4766242.222722506
0.8668376445782103	4788335.535455758
0.8670543539893549	4794569.71992521
0.8672711175778525	4800805.462940785
0.8674879353572469	4807042.764892106
0.8677048073410862	4813281.626168917
0.8679217335429217	4819522.047161052
0.8681387139763074	4832535.469590864
0.8683557486548015	4845888.533329914
0.8685728375919655	4859244.935334915
0.8687899808013633	4872604.676440389
0.8690071782965637	4885967.757481156
0.869224430091138	4892060.65248586
0.8694417361986609	4895195.481851606
0.8696590966327107	4898331.094924692
0.869876511406869	4901467.4919010475
0.8700939805347206	4904604.672976645
0.8703115040298544	4909149.808060265
0.870529081905862	4915304.881488373
0.8707467141763385	4921461.493684836
0.8709644008548827	4927619.645034347
0.8711821419550964	4933779.335921693
0.8713999374905854	4941110.64425404
0.871617787474958	4952482.128914168
0.8718356919218269	4963856.456445471
0.8720536508448075	4975233.627558658
0.8722716642575187	4986613.642964617
0.8724897321735832	4997996.503374432
0.8727078546066265	5008213.056044999
0.8729260315702784	5018414.3761944305
0.873144263078171	5028618.2466738885
0.8733625491439405	5038824.668120967
0.8735808897812266	5049033.641173411
0.8737992850036719	5053598.178091264
0.874017734824923	5056163.785712056
0.8742362392586293	5058730.034734751
0.874454798318444	5061296.925319702
0.8746734120180236	5063864.457627299
0.8748920803710283	5068632.596925071
0.875110803391121	5075612.683562819
0.8753295810919689	5082594.51522223
0.875548413487242	5089578.092339556
0.8757673005906139	5096563.415351162
0.8759862424157616	5106806.333541422
0.8762052389763657	5126472.764754989
0.8764242902861098	5146144.112576345
0.8766433963586814	5165820.378234662
0.8768625572077712	5185501.5629594
0.8770817728470732	5205022.174654173
0.8773010432902849	5211626.365175107
0.8775203685511077	5218232.20674368
0.8777397486432454	5224839.699772637
0.8779591835804065	5231448.844674859
0.8781786733763015	5238059.641863299
0.8783982180446457	5229865.69232341
0.878617817599157	5217265.067219224
0.8788374720535569	5204661.291958767
0.8790571814215703	5192054.365754498
0.8792769457169257	5179444.287818679
0.879496764953355	5172093.00794598
0.8797166391445934	5169470.729438204
0.8799365683043796	5166847.795360803
0.8801565524464557	5164224.205549881
0.8803765915845676	5161599.959841504
0.8805966857324639	5167010.341836085
0.880816834903897	5192604.300362878
0.881037039112623	5218204.657379312
0.8812572983724012	5243811.414484999
0.8814776126969944	5269424.573279973
0.8816979821001687	5294631.14476461
0.8819184065956938	5310122.149653399
0.8821388861973429	5325617.027293428
0.8823594209188923	5341115.778652851
0.882580010774122	5356618.404700107
0.8828006557768155	5372124.906403882
0.8830213559407598	5387333.036864185
0.8832421112797452	5402468.950950049
0.8834629218075651	5417608.6490144245
0.8836837875380171	5432752.132003321
0.8839047084849018	5447899.4008629685
0.884125684662023	5445823.344309969
0.8843467160831886	5429941.438446024
0.8845678027622095	5414055.562105614
0.8847889447129001	5398165.714296115
0.8850101419490785	5382271.894024666
0.8852313944845657	5381735.172799248
0.885452702333187	5414821.821052617
0.8856740655087704	5447916.740968046
0.8858954840251476	5481019.934613444
0.8861169578961539	5514131.404057237
0.886338487135628	5543800.031784051
0.886560071757412	5527550.624353394
0.8867817117753515	5511297.1545708785
0.8870034072032955	5495039.6214209115
0.8872251580550963	5478778.023887675
0.8874469643446101	5462512.360955046
0.8876688260856963	5476523.379510546
0.8878907432922178	5496804.889669839
0.8881127159780409	5517091.470206658
0.8883347441570356	5537383.122388637
0.8885568278430749	5557679.84748364
0.8887789670500358	5567649.002178149
0.8890011617917983	5570290.943415794
0.8892234120822464	5572933.545138749
0.8894457179352669	5575576.807512132
0.8896680793647509	5578220.730701112
0.8898904963845921	5578592.476293079
0.8901129690086883	5574627.6789872935
0.8903354972509405	5570661.890482184
0.8905580811252535	5566695.110529943
0.8907807206455347	5562727.338882721
0.8910034158256963	5557409.883603523
0.8912261666796527	5540037.890067246
0.8914489732213227	5522661.55353258
0.8916718354646282	5505280.872913763
0.8918947534234944	5487895.847124808
0.8921177271118502	5470506.475079416
0.8923407565436284	5456026.047734647
0.8925638417327644	5442017.237431517
0.8927869826931977	5428004.924925807
0.8930101794388711	5413989.109341971
0.8932334319837308	5399969.789804241
0.8934567403417267	5396257.375577192
0.8936801045268123	5398950.739458593
0.8939035245529441	5401644.776680962
0.8941270004340824	5404339.487412638
0.894350532184191	5407034.871821996
0.8945741198172371	5431733.170137731
0.8947977633471915	5492925.733658965
0.8950214627880284	5554133.595321076
0.8952452181537254	5615356.758948566
0.8954690294582639	5676595.228367001
0.8956928967156286	5730774.430342367
0.8959168199398075	5739055.692161038
0.8961407991447926	5747339.024295165
0.8963648343445789	5755624.427262327
0.896588925553165	5763911.901580225
0.8968130727845534	5772201.447766704
0.8970372760527496	5773142.01612038
0.8972615353717629	5773163.055197131
0.8974858507556059	5773184.099533652
0.8977102222182949	5773205.149131257
0.8979346497738496	5773226.203991261
0.8981591334362931	5797617.031289093
0.8983836732196523	5835341.208941651
0.8986082691379572	5873074.817638597
0.8988329212052417	5910817.859737718
0.8990576294355432	5948570.337597395
0.8992823938429022	5972864.978661029
0.8995072144413631	5977141.567014068
0.8997320912449734	5981419.224514194
0.8999570242677847	5985697.951428695
0.9001820135238516	5989977.748024924
0.9004070590272328	5995404.210097499
0.9006321607919896	6006837.631374155
0.9008573188321878	6018273.911006143
0.9010825331618959	6029713.049708033
0.9013078037951865	6041155.0481946
0.9015331307461353	6052599.907180783
0.9017585140288219	6068830.802429191
0.9019839536573292	6085477.742666226
0.9022094496457435	6102128.844638308
0.9024350020081551	6118784.109385902
0.9026606107586572	6135443.537949678
0.902886275911347	6154308.963046494
0.9031119974803249	6174240.540629034
0.9033377754796951	6194177.10110597
0.903563609923565	6214118.645723017
0.903789500826046	6234065.175726231
0.9040154482012526	6246435.815461578
0.904241452063303	6248989.18375445
0.9044675124263188	6251543.190389394
0.9046936293044254	6254097.835525997
0.9049198027117517	6256653.119323886
0.9051460326624297	6261750.145062006
0.9053723191705955	6277669.053290451
0.9055986622503881	6293591.941245939
0.9058250619159507	6309518.809923415
0.9060515181814298	6325449.660318071
0.9062780310609752	6341384.493425314
0.9065046005687405	6333999.901362787
0.906731226718883	6325312.319127002
0.9069579095255627	6316622.56499567
0.907184649002944	6307930.638425804
0.907411445165195	6299236.538874286
0.9076382980264862	6314085.94376806
0.907865207600993	6338717.537465431
0.9080921739028933	6363355.289061219
0.9083191969463691	6387999.200094902
0.9085462767456058	6412649.272106356
0.9087734133147922	6430179.9215826
0.9090006066681211	6439484.814661483
0.909227856819788	6448792.033963624
0.9094551637839932	6458101.580070604
0.9096825275749393	6467413.4535641065
0.9099099482068329	6477498.93195727
0.9101374256938848	6490328.0633075265
0.9103649600503083	6503160.401940615
0.9105925512903209	6515995.948658358
0.9108201994281437	6528834.704262795
0.9110479044780008	6541676.669556118
0.9112756664541204	6554722.41602036
0.911503485370734	6567776.014948712
0.9117313612420768	6580832.877276796
0.9119592940823873	6593893.0038204575
0.912187283905908	6606956.3953957595
0.9124153307268845	6599129.798665793
0.9126434345595664	6583718.215272533
0.9128715954182063	6568302.77898344
0.9130998133170609	6552883.488835267
0.9133280882703902	6537460.343864558
0.913556420292458	6536741.799370799
0.9137848093975312	6551192.123361351
0.9140132555998806	6565646.059932899
0.9142417589137806	6580103.60998859
0.9144703193535092	6594564.774431804
0.9146989369333476	6605991.335727094
0.9149276116675811	6608257.392098557
0.9151563435704979	6610524.014984111
