#wavelength	surface flux
0.7	58811796.73085332
0.7001166666666666	59154545.471383445
0.7002333527777778	59217710.91791235
0.700350058336574	59280886.892015636
0.7004667833462966	59344073.395447865
0.7005835278101878	59407270.42996417
0.7007002917314895	59470477.99731946
0.7008170751134447	59533696.0992693
0.7009338779592968	59596924.73756944
0.7010507002722901	59597176.469945475
0.7011675420556689	59520776.71247984
0.701284403312678	59444364.22172142
0.7014012840465635	59367938.99554776
0.7015181842605713	59291501.03183642
0.701635103957948	59215050.328464516
0.701752043141941	59138586.88330872
0.701869001815798	59062110.6942453
0.7019859799827672	58774058.76181886
0.7021029776460976	58338722.88722744
0.7022199948090387	57903314.45665636
0.7023370314748403	57467833.45801372
0.7024540876467528	57032279.8792047
0.702571163328027	56596653.708133265
0.7026882585219152	56160954.93269882
0.7028053732316688	55725183.54080244
0.7029225074605406	55658818.11705722
0.7030396612117841	55735114.26332146
0.7031568344886527	55811423.12561009
0.7032740272944008	55887744.70604239
0.7033912396322832	55964079.006738134
0.7035084715055552	56040426.02981725
0.7036257229174727	56116785.77740024
0.7037429938712924	56193158.2516079
0.7038602843702709	56377601.958262354
0.7039775944176659	56580403.91851658
0.7040949240167356	56783239.67909758
0.7042122731707383	56986109.24563858
0.7043296418829335	57189012.62377411
0.7044470301565806	57391949.8191393
0.70456443799494	57594920.83737023
0.7046818654012724	57797925.68410432
0.7047993123788394	57874160.09295957
0.7049167789309024	57950261.694020085
0.7050342650607243	58026375.9786809
0.7051517707715678	58102502.94905579
0.7052692960666963	58178642.607259035
0.705386840949374	58254794.95540529
0.7055044054228656	58330959.995609686
0.7056219894904361	58399507.985689886
0.7057395931553511	58419581.18764731
0.705857216420877	58439657.73513841
0.7059748592902804	58459737.628720745
0.7060925217668288	58479820.868952036
0.70621020385379	58499907.45639002
0.7063279055544321	58519997.39159256
0.7064456268720246	58540090.675117664
0.7065633678098366	58578143.8067973
0.7066811283711383	58665655.808943085
0.7067989085592001	58753182.39642255
0.7069167083772933	58840723.57166654
0.7070345278286895	58928279.33710647
0.707152366916661	59015849.69517398
0.7072702256444803	59103434.64830107
0.7073881040154211	59191034.198920466
0.7075060020327569	59219613.92272965
0.7076239196997625	59162223.77801873
0.7077418570197124	59104824.06828375
0.7078598139958823	59047414.79193048
0.7079777906315483	58989995.94736444
0.7080957869299869	58932567.53299101
0.7082138028944751	58875129.547215216
0.7083318385282908	58817681.98844175
0.7084498938347124	58870809.196193956
0.708567968817018	59017700.92246676
0.7086860634784875	59164617.13069412
0.7088041778224007	59311557.8249563
0.7089223118520377	59458523.00933399
0.7090404655706796	59605512.687909
0.709158638981608	59752526.86476394
0.709276832088105	59899565.543981716
0.7093950448934531	60012530.565700404
0.7095132774009353	60109252.632685274
0.7096315296138355	60205990.82001469
0.7097498015354378	60302745.130375296
0.7098680931690269	60399515.5664542
0.7099864045178884	60496302.130939245
0.7101047355853081	60593104.82651835
0.7102230863745722	60689923.65587998
0.7103414568889679	60573731.653466195
0.7104598471317828	60409115.539615355
0.7105782571063047	60244471.98974566
0.7106966868158224	60079800.999284334
0.710815136263625	59915102.56365796
0.7109336054530023	59750376.678292215
0.7110520943872445	59585623.338612296
0.7111706030696424	59420842.54004234
0.7112891315034873	59454452.59498043
0.7114076796920712	59497535.360934794
0.7115262476386865	59540625.307350144
0.7116448353466263	59583722.4354232
0.711763442819184	59626826.74635097
0.711882070059654	59669938.24133059
0.7120007170713306	59713056.92155934
0.7121193838575091	59771586.85140879
0.7122380704214853	59990786.972115524
0.7123567767665555	60210023.62617549
0.7124755028960166	60429296.819677904
0.7125942488131658	60648606.55871241
0.7127130145213015	60867952.84937068
0.7128318000237216	61087335.697743386
0.7129506053237256	61306755.109924465
0.7130694304246129	61461158.76475252
0.7131882753296837	61388142.30073054
0.7133071400422386	61315113.66729787
0.7134260245655789	61242072.86242634
0.7135449289030065	61169019.88408731
0.7136638530578235	61095954.73025193
0.7137827970333332	61022877.39889081
0.7139017608328388	60949787.88797447
0.7140207444596443	60923807.44224098
0.7141397479170543	60981882.293962084
0.7142587712083737	61039966.824825056
0.7143778143369084	61098061.036443226
0.7144968773059646	61156164.93043
0.7146159601188489	61214278.5083991
0.7147350627788687	61272401.77196452
0.7148541852893318	61330534.722740516
0.7149733276535467	61464181.82837199
0.7150924898748222	61673988.22444337
0.715211671956468	61883829.58824747
0.7153308739017941	62093705.925612375
0.715450095714111	62303617.24236673
0.71556933739673	62513563.54434058
0.7156885989529628	62723544.83736473
0.7158078803861218	62933561.12727137
0.7159271816995193	62855355.6758206
0.7160465028964692	62607948.465252124
0.7161658439802853	62360500.02014857
0.7162852049542819	62113010.333637536
0.7164045858217744	61865479.39884527
0.716523986586078	61617907.20889731
0.7166434072505089	61370293.75691781
0.716762847818384	61122639.03602957
0.7168823082930204	61090019.08242322
0.7170017886777359	61120668.14875183
0.7171212889758488	61151322.323258154
0.7172408091906781	61181981.60679356
0.7173603493255433	61212646.00020957
0.7174799093837642	61243315.5043578
0.7175994893686615	61273990.12009007
0.7177190892835562	61304669.84825827
0.7178387091317702	61598802.825669065
0.7179583489166254	61919430.505841695
0.7180780086414448	62240111.62396128
0.7181976883095517	62560846.188933864
0.7183173879242699	62881634.20966731
0.718437107488924	63202475.69507095
0.7185568470068389	63523370.65405562
0.7186766064813399	63835861.75454937
0.7187963859157535	63936952.77389491
0.7189161853134061	64038060.641743675
0.719036004677625	64139185.360903755
0.7191558440117378	64240326.93418363
0.7192757033190732	64341485.36439253
0.7193955826029597	64442660.65433967
0.7195154818667269	64543852.80683523
0.7196354011137046	64616556.568724215
0.7197553403472235	64558029.154106066
0.7198752995706147	64499491.98491884
0.7199952787872098	64440945.0595367
0.720115278000341	64382388.37633368
0.7202352972133411	64323821.93368344
0.7203553364295432	64265245.72995952
0.7204753956522815	64206659.76353489
0.7205954748848902	64139289.10732138
0.7207155741307044	64052561.791612916
0.7208356933930594	63965820.02135198
0.7209558326752915	63879063.79412932
0.7210759919807375	63792293.10753533
0.7211961713127342	63705507.959160365
0.7213163706746197	63618708.346593864
0.7214365900697322	63531894.26742536
0.7215568295014103	63492945.59537136
0.721677088972994	63511119.190078154
0.7217973684878227	63529295.81371737
0.7219176680492374	63547475.46679389
0.7220379876605789	63565658.14981257
0.722158327325189	63583843.86327843
0.7222786870464099	63602032.607696526
0.7223990668275843	63620224.38357203
0.7225194666720555	63619153.58928214
0.7226398865831676	63604428.60198613
0.7227603265642646	63589701.16052561
0.722880786618692	63574971.26449148
0.7230012667497951	63560238.913474694
0.7231217669609201	63545504.107066065
0.7232422872554135	63530766.844856374
0.7233628276366229	63516027.1264363
0.7234833881078956	63534077.717106074
0.7236039686725803	63564581.46381603
0.7237245693340255	63595090.29448373
0.7238451900955812	63625604.20995659
0.7239658309605971	63656123.211082
0.7240864919324239	63686647.29870763
0.7242071730144127	63717176.473681204
0.724327874209915	63747710.73685054
0.7244485955222832	63810234.785069644
0.7245693369548704	63878057.65322556
0.7246900985110294	63945891.82519275
0.7248108801941148	64013737.30285545
0.7249316820074803	64081594.08809752
0.7250525039544815	64149462.182803914
0.7251733460384739	64217341.58885943
0.7252942082628137	64285483.406994164
0.7254150906308574	64499131.20585608
0.7255359931459625	64712814.61268448
0.7256569158114868	64926533.6334141
0.7257778586307888	65140288.2739806
0.7258988216072273	65354078.54032048
0.7260198047441617	65567904.438371174
0.7261408080449525	65781765.974071905
0.72626183151296	65958023.73819603
0.7263828751515454	65884175.369009905
0.7265039389640706	65810314.69176226
0.726625022953898	65736441.7044017
0.7267461271243904	65662556.40487654
0.7268672514789111	65588658.79113484
0.7269883960208241	65514748.861124255
0.7271095607534942	65440826.61279194
0.7272307456802866	65375982.33364133
0.7273519508045666	65335682.31335434
0.7274731761297006	65295375.57639734
0.7275944216590555	65255062.12165083
0.7277156873959987	65214741.94799519
0.7278369733438982	65174415.054310545
0.727958279506122	65134081.439477056
0.7280796058860397	65093741.10237438
0.7282009524870207	65152474.074918725
0.7283223193124353	65357767.23869248
0.7284437063656539	65563094.61799311
0.7285651136500483	65768456.21852396
0.7286865411689898	65973852.04598781
0.7288079889258514	66179282.10609006
0.7289294569240056	66384746.4045352
0.7290509451668262	66590244.947030306
0.7291724536576875	66750902.971871495
0.7292939823999636	66874404.197582945
0.7294155313970303	66997926.006832264
0.7295371006522632	67121468.40304975
0.7296586901690385	67245031.38966651
0.7297802999507332	67368614.97011432
0.7299019300007252	67492219.14782587
0.7300235803223919	67615843.92623335
0.7301452509191123	67637980.49693896
0.7302669417942654	67613267.3906976
0.7303886529512311	67588550.1656052
0.7305103843933897	67563828.82097527
0.7306321361241218	67539103.35612126
0.7307539081468093	67514373.77035639
0.7308757004648336	67489640.06299396
0.7309975130815778	67464902.23334692
0.7311193460004248	67521949.29598194
0.7312411992247582	67597521.85539284
0.7313630727579622	67673107.01023032
0.7314849666034219	67748704.76259366
0.7316068807645224	67824315.11458234
0.7317288152446498	67899938.0682964
0.7318507700471907	67975573.62583612
0.7319727451755319	68051221.78930207
0.732094740633061	68117320.985117
0.7322167564231665	68183000.73229946
0.7323387925492371	68248691.42610645
0.7324608490146619	68314393.06836239
0.732582925822831	68380105.66089205
0.7327050229771347	68445829.2055204
0.7328271404809642	68511563.70407292
0.7329492783377112	68566804.49684231
0.7330714365507675	68518782.5564055
0.7331936151235259	68470752.61231196
0.7333158140593796	68422714.66322778
0.7334380333617229	68374668.7078187
0.7335602730339499	68326614.74475037
0.7336825330794556	68278552.77268817
0.7338048135016354	68230482.79029737
0.7339271143038857	68181104.52414533
0.734049435489603	68127361.22515368
0.7341717770621846	68073608.96894552
0.7342941390250283	68019847.754028
0.7344165213815324	67966077.57890804
0.734538924135096	67912298.44209214
0.7346613472891185	67858510.34208684
0.734783790847	67804713.27739818
0.7349062548121412	67768499.60269076
0.7350287391879431	67763375.10036626
0.7351512439778078	67758249.74395804
0.7352737691851374	67753123.53332376
0.735396314813335	67747996.46832104
0.7355188808658037	67742868.54880749
0.7356414673459482	67737739.77464068
0.7357640742571725	67732610.14567818
0.7358867016028818	67799725.65592292
0.7360093493864824	67938201.78647393
0.7361320176113801	68076700.99637984
0.736254706280982	68215223.2894874
0.7363774153986956	68353768.669644
0.7365001449679286	68492337.14069702
0.7366228949920899	68630928.7064953
0.7367456654745885	68769543.3708879
0.7368684564188344	68835577.97543696
0.7369912678282374	68860589.80850041
0.7371140997062088	68885605.81020273
0.7372369520561599	68910625.98123868
0.7373598248815024	68935650.32230309
0.7374827181856494	68960678.83409105
0.7376056319720137	68985711.51729764
0.7377285662440091	69010748.37261811
0.7378515210050496	68959374.34916224
0.7379744962585505	68885000.79900612
0.738097492007927	68810614.85325831
0.7382205082565949	68736216.50985295
0.738343545007971	68661805.76672368
0.7384666022654723	68587382.62180382
0.7385896800325165	68512947.07302658
0.7387127783125219	68438499.11832446
0.7388358971089073	68637912.00797287
0.7389590364250921	68864828.30008434
0.7390821962644963	69091782.41157801
0.7392053766305403	69318774.3487566
0.7393285775266454	69545804.11792488
0.7394517989562333	69772871.72538823
0.7395750409227259	69999977.17745247
0.7396983034295463	70222198.55767326
0.739821586480118	70334965.14022213
0.7399448900778645	70447750.51720122
0.7400682142262109	70560554.69174346
0.740191558928582	70673377.66698135
0.7403149241884034	70786219.44604836
0.7404383100091014	70899080.03207856
0.7405617163941028	71011959.42820638
0.7406851433468352	71080426.3569099
0.7408085908707264	70945642.27308026
0.7409320589692048	70810835.7252367
0.7410555476456997	70676006.70963506
0.7411790569036406	70541155.22253093
0.7413025867464579	70406281.26017891
0.7414261371775823	70271384.81883311
0.7415497082004452	70136465.89474721
0.7416732998184786	70075583.35477671
0.741796912035115	70173561.52625267
0.7419205448537874	70271556.02742384
0.7420441982779297	70369566.86101188
0.742167872310976	70467594.02973893
0.7422915669563612	70565637.53632745
0.7424152822175206	70663697.38350037
0.7425390180978901	70761773.57398108
0.7426627746009065	70861966.03587021
0.7427865517300065	70964735.15590897
0.7429103494886282	71067521.40413453
0.7430341678802096	71170324.78340136
0.7431580069081896	71273145.29656473
0.7432818665760077	71375982.94648044
0.7434057468871037	71478837.73600438
0.7435296478449182	71581709.6679932
0.7436535694528923	71565497.13076581
0.7437775117144678	71467753.18308206
0.7439014746330868	71369992.9447405
0.7440254582121922	71272216.4130258
0.7441494624552276	71174423.58522245
0.7442734873656368	71076614.45861448
0.7443975329468645	70978789.03048533
0.7445215992023557	70880947.29811817
0.7446456861355559	70822444.70158786
0.7447697937499119	70778429.854785
0.7448939220488703	70734407.67217433
0.7450180710358784	70690378.1525333
0.7451422407143843	70646341.29463896
0.7452664310878367	70602297.09726827
0.7453906421596846	70558245.55919807
0.7455148739333779	70514186.67920484
0.7456391264123667	70594652.72161488
0.7457633996001021	70695044.19567432
0.7458876935000356	70795452.40164629
0.7460120081156189	70895877.34231904
0.7461363434503048	70996319.02048197
0.7462606995075466	71096777.43892469
0.7463850762907978	71197252.60043699
0.7465094738035127	71297896.44067802
0.7466338920491467	71438301.84809247
0.746758331031155	71578730.6564083
0.7468827907529935	71719182.86952534
0.7470072712181189	71859658.49134457
0.7471317724299886	72000157.52576748
0.7472562943920602	72140679.97669601
0.7473808371077922	72281225.84803317
0.7475054005806435	72405463.55273281
0.7476299848140736	72429125.76831141
0.7477545898115426	72452791.92759262
0.7478792155765113	72476462.03123373
0.7480038621124406	72500136.07989207
0.7481285294227926	72523814.0742252
0.7482532175110298	72547496.01489073
0.7483779263806148	72571181.90254635
0.7485026560350116	72586841.37853904
0.7486274064776842	72580769.59771086
0.748752177712097	72574696.80491924
0.7488769697417158	72568622.99999546
0.749001782570006	72562548.18277086
0.7491266162004343	72556472.35307674
0.7492514706364677	72550395.51074433
0.7493763458815739	72544317.65560485
0.7495012419392209	72552560.16601127
0.7496261588128773	72581392.73846765
0.7497510965060128	72610230.11635278
0.7498760550220971	72639072.30046755
0.7500010343646007	72667919.29161301
0.7501260345369949	72696771.09059034
0.750251055542751	72725627.6982008
0.7503760973853414	72754489.1152459
0.7505011600682389	72767355.79214874
0.750626243594917	72766865.35477835
0.7507513479688495	72766374.8356684
0.7508764731935109	72765884.23480527
0.7510016192723765	72765393.55217533
0.7511267862089218	72764902.78776494
0.7512519740066232	72764411.94156049
0.7513771826689577	72763921.01354833
0.7515024121994025	72768356.33820212
0.7516276626014359	72775089.3360595
0.751752933878536	72781823.45608318
0.7518782260341824	72788558.69846019
0.7520035390718548	72795295.0633776
0.7521288729950334	72802032.55102251
0.7522542278071992	72808771.16158201
0.7523796035118337	72815510.89524329
0.7525050001124189	72816443.8720023
0.7526304176124378	72816113.92020568
0.7527558560153731	72815783.9134171
0.752881315324709	72815453.85162738
0.7530067955439299	72815123.73482737
0.7531322966765205	72814793.56300789
0.7532578187259665	72814463.33615978
0.7533833616957542	72814133.05427384
0.75350892558937	72766509.09209533
0.7536345104103016	72716653.31116404
0.7537601161620366	72666789.22093596
0.7538857428480638	72616916.82002611
0.7540113904718717	72567036.10704951
0.7541370590369503	72517147.08062077
0.7542627485467898	72467249.73935425
0.7543884590048808	72424359.63574177
0.7545141904147151	72451422.28199473
0.7546399427797842	72478489.43868868
0.7547657161035808	72505561.10657543
0.754891510389598	72532637.28640683
0.7550173256413296	72559717.97893487
0.7551431618622698	72586803.18491165
0.7552690190559135	72613892.90508944
0.7553948972257561	72612375.89520998
0.7555207963752938	72514821.45461456
0.755646716508023	72417250.75494578
0.755772657627441	72319663.79349369
0.7558986197370455	72222060.56754799
0.756024602840335	72124441.07439801
0.7561506069408084	72026805.3113325
0.7562766320419653	71929153.27563971
0.7564026781473054	71829667.90633686
0.75652874526033	71726968.41835867
0.7566548333845401	71624251.81379908
0.7567809425234375	71521518.08980544
0.7569070726805247	71418767.24352454
0.7570332238593047	71315999.2721026
0.7571593960632813	71213214.17268531
0.7572855892959586	71110411.94241813
0.7574118035608413	71049921.73219873
0.7575380388614347	71030833.43282275
0.7576642952012449	71011741.95206353
0.7577905725837782	70992647.28939088
0.7579168710125422	70973549.44427441
0.7580431904910444	70954448.41618374
0.7581695310227928	70935344.20458843
0.7582958926112967	70916236.80895782
0.7584222752600652	70808559.76436898
0.7585486789726085	70649986.71987922
0.7586751037524372	70491387.24654865
0.7588015496030628	70332761.33997221
0.7589280165279966	70174108.995745
0.7590545045307512	70015430.20946042
0.7591810136148396	69856724.97671145
0.7593075437837755	69697993.29309013
0.7594340950410726	69471368.40387745
0.7595606673902461	69225015.11757526
0.7596872608348112	68978620.77239178
0.7598138753782836	68732185.36148438
0.75994051102418	68485708.87800826
0.7600671677760173	68239191.31511842
0.7601938456373134	67992632.6659679
0.7603205446115863	67746032.92370933
0.7604472647023548	67339809.96371046
0.7605740059131385	66917656.85643993
0.7607007682474575	66495433.39031778
0.7608275517088319	66073139.553618886
0.7609543563007835	65650775.33461293
0.7610811820268336	65228340.72157073
0.7612080288905045	64805835.7027605
0.7613348968953197	64371959.50182345
0.7614617860448022	63706144.25073517
0.7615886963424764	63040218.03043747
0.7617156277918667	62374180.822437026
0.7618425803964988	61708032.6082347
0.7619695541598982	61041773.3693302
0.7620965490855914	60375403.08721969
0.7622235651771058	59708921.74339473
0.7623506024379685	58953815.36835714
0.7624776608717082	57810616.832984716
0.7626047404818536	56667227.76452301
0.7627318412719337	55523648.13121852
0.762858963245479	54379877.90130776
0.7629861064060198	53235917.043025255
0.7631132707570876	52091765.52459851
0.7632404563022137	50947423.314253055
0.7633676630449308	49500208.75929107
0.7634948909887717	47408444.327160105
0.7636221401372697	45316331.26762651
0.7637494104939593	43223869.52258102
0.7638767020623748	41131059.03391437
0.7640040148460518	39037899.74349723
0.7641313488485262	36944391.59319843
0.7642587040733344	34850534.52487221
0.7643860805240132	32285921.960525986
0.7645134782041005	29159545.968488798
0.7646408971171346	26032648.913784966
0.764768337266654	22905230.70957316
0.7648957986561985	19777291.26899298
0.7650232812893079	16648830.505173113
0.7651507851695227	13519848.331225917
0.7652783103003843	10390344.660250112
0.7654058566854343	8479856.696949743
0.7655334243282153	7400196.870746393
0.7656610132322699	6320357.101240082
0.765788623401142	5240337.358437838
0.7659162548383754	4160137.6123457467
