#wavelength	surface flux
0.7	168144.85032856424
0.7001166666666666	168462.87720863335
0.7002333527777778	168701.974446044
0.700350058336574	168941.1115329941
0.7004667833462966	169180.2884761251
0.7005835278101878	169419.5052820806
0.7007002917314895	169658.76195750333
0.7008170751134447	169898.05850903862
0.7009338779592968	170137.3949433324
0.7010507002722901	170300.62704042025
0.7011675420556689	170371.22388136017
0.701284403312678	170441.83248844012
0.7014012840465635	170512.45286362135
0.7015181842605713	170583.0850088651
0.701635103957948	170653.72892613302
0.701752043141941	170724.3846173871
0.701869001815798	170795.05208458987
0.7019859799827672	170954.27696086882
0.7021029776460976	171175.1511481141
0.7022199948090387	171396.06214772418
0.7023370314748403	171617.00996583412
0.7024540876467528	171837.99460858037
0.702571163328027	172059.01608210005
0.7026882585219152	172280.07439253255
0.7028053732316688	172501.1695460165
0.7029225074605406	172922.94320482068
0.7030396612117841	173422.26410432765
0.7031568344886527	173921.66822398463
0.7032740272944008	174421.1555776612
0.7033912396322832	174920.72617923035
0.7035084715055552	175420.38004256593
0.7036257229174727	175920.11718154556
0.7037429938712924	176419.93761004886
0.7038602843702709	176843.17427026806
0.7039775944176659	177253.47817353503
0.7040949240167356	177663.85046078602
0.7042122731707383	178074.29114341803
0.7043296418829335	178484.8002328307
0.7044470301565806	178895.37774042485
0.70456443799494	179306.0236776033
0.7046818654012724	179716.73805577154
0.7047993123788394	180040.42047448008
0.7049167789309024	180364.05688866987
0.7050342650607243	180687.74724226256
0.7051517707715678	181011.4915442473
0.7052692960666963	181335.2898036156
0.705386840949374	181659.14202936032
0.7055044054228656	181983.0482304765
0.7056219894904361	182285.34097015116
0.7057395931553511	182449.98978044197
0.705857216420877	182614.6660322013
0.7059748592902804	182779.36973000248
0.7060925217668288	182944.10087842014
0.70621020385379	183108.85948202916
0.7063279055544321	183273.64554540528
0.7064456268720246	183438.4590731255
0.7065633678098366	183628.43424100959
0.7066811283711383	183887.66103992125
0.7067989085592001	184146.9310432994
0.7069167083772933	184406.24425834464
0.7070345278286895	184665.6006922592
0.707152366916661	184925.00035224616
0.7072702256444803	185184.44324550946
0.7073881040154211	185443.92937925534
0.7075060020327569	185754.02227578056
0.7076239196997625	186137.80489641198
0.7077418570197124	186521.6514808131
0.7078598139958823	186905.56203964495
0.7079777906315483	187289.5365835703
0.7080957869299869	187673.57512325267
0.7082138028944751	188057.67766935812
0.7083318385282908	188441.84423255487
0.7084498938347124	188643.7275313269
0.708567968817018	188691.04671707188
0.7086860634784875	188738.37378934785
0.7088041778224007	188785.70874946928
0.7089223118520377	188833.05159875064
0.7090404655706796	188880.40233850686
0.709158638981608	188927.76097005306
0.709276832088105	188975.12749470456
0.7093950448934531	189276.09856312248
0.7095132774009353	189698.0627712636
0.7096315296138355	190120.0973067729
0.7097498015354378	190542.2021813713
0.7098680931690269	190964.37740678177
0.7099864045178884	191386.62299473034
0.7101047355853081	191808.93895694346
0.7102230863745722	192231.32530515
0.7103414568889679	192626.06896063648
0.7104598471317828	193014.58133966304
0.7105782571063047	193403.15847075247
0.7106966868158224	193791.80036469706
0.710815136263625	194180.50703229057
0.7109336054530023	194569.2784843289
0.7110520943872445	194958.11473160915
0.7111706030696424	195347.0157849308
0.7112891315034873	195606.28018097582
0.7114076796920712	195859.39935688797
0.7115262476386865	196112.56071932946
0.7116448353466263	196365.76427533117
0.711763442819184	196619.0100319257
0.711882070059654	196872.29799614655
0.7120007170713306	197125.62817502793
0.7121193838575091	197380.54578732443
0.7122380704214853	197651.62204858457
0.7123567767665555	197922.7434892213
0.7124755028960166	198193.91011676492
0.7125942488131658	198465.12193874628
0.7127130145213015	198736.3789626987
0.7128318000237216	199007.6811961543
0.7129506053237256	199279.02864664918
0.7130694304246129	199545.92268231677
0.7131882753296837	199797.13237218646
0.7133071400422386	200048.3839303379
0.7134260245655789	200299.67736374884
0.7135449289030065	200551.01267939876
0.7136638530578235	200802.38988426785
0.7137827970333332	201053.80898533808
0.7139017608328388	201305.26998959176
0.7140207444596443	201552.7615378739
0.7141397479170543	201793.13845567766
0.7142587712083737	202033.55543630072
0.7143778143369084	202274.01248642078
0.7144968773059646	202514.50961271586
0.7146159601188489	202755.04682186528
0.7147350627788687	202995.62412054956
0.7148541852893318	203236.24151545018
0.7149733276535467	203384.09970140574
0.7150924898748222	203438.40577851277
0.715211671956468	203492.72090663266
0.7153308739017941	203547.04508727396
0.715450095714111	203601.37832194532
0.71556933739673	203655.7206121558
0.7156885989529628	203710.07195941466
0.7158078803861218	203764.43236523148
0.7159271816995193	203444.03519985834
0.7160465028964692	202903.62000352234
0.7161658439802853	202363.114737987
0.7162852049542819	201822.51938824082
0.7164045858217744	201281.83393926936
0.716523986586078	200741.0583760566
0.7166434072505089	200200.19268358362
0.716762847818384	199659.23684682834
0.7168823082930204	199539.74094095547
0.7170017886777359	199544.24336168455
0.7171212889758488	199548.74653281708
0.7172408091906781	199553.25045447814
0.7173603493255433	199557.75512679282
0.7174799093837642	199562.26054988618
0.7175994893686615	199566.76672388343
0.7177190892835562	199571.27364890964
0.7178387091317702	200806.04973666885
0.7179583489166254	202164.5294973426
0.7180780086414448	203523.23567131083
0.7181976883095517	204882.16829630802
0.7183173879242699	206241.3274100762
0.718437107488924	207600.7130503636
0.7185568470068389	208960.32525492494
0.7186766064813399	210273.46807238957
0.7187963859157535	210419.32710948796
0.7189161853134061	210565.21045642582
0.719036004677625	210711.11811725487
0.7191558440117378	210857.0500960273
0.7192757033190732	211003.00639679638
0.7193955826029597	211148.98702361542
0.7195154818667269	211294.99198053905
0.7196354011137046	211406.8477910985
0.7197553403472235	211361.38143142607
0.7198752995706147	211315.90749402705
0.7199952787872098	211270.42597763843
0.720115278000341	211224.9368809971
0.7202352972133411	211179.44020283964
0.7203553364295432	211133.93594190257
0.7204753956522815	211088.42409692192
0.7205954748848902	211227.21604369802
0.7207155741307044	211772.36882332823
0.7208356933930594	212317.61246175406
0.7209558326752915	212862.94697411978
0.7210759919807375	213408.37237557163
0.7211961713127342	213953.88868125633
0.7213163706746197	214499.4959063262
0.7214365900697322	215045.194065933
0.7215568295014103	215280.07065152773
0.721677088972994	215144.01536519456
0.7217973684878227	215007.93740298058
0.7219176680492374	214871.83676110607
0.7220379876605789	214735.71343579132
0.722158327325189	214599.56742325562
0.7222786870464099	214463.39871971792
0.7223990668275843	214327.20732139624
0.7225194666720555	214370.3872586334
0.7226398865831676	214540.7154356215
0.7227603265642646	214711.0720006387
0.722880786618692	214881.4569584171
0.7230012667497951	215051.87031368839
0.7231217669609201	215222.31207118553
0.7232422872554135	215392.78223564214
0.7233628276366229	215563.28081179308
0.7234833881078956	216070.05627052675
0.7236039686725803	216704.5767580054
0.7237245693340255	217339.2029988976
0.7238451900955812	217973.93501083116
0.7239658309605971	218608.7728114326
0.7240864919324239	219243.716418335
0.7242071730144127	219878.76584917193
0.724327874209915	220513.92112157933
0.7244485955222832	219792.79643626
0.7245693369548704	218847.28462807855
0.7246900985110294	217901.6152345971
0.7248108801941148	216955.7882295476
0.7249316820074803	216009.80358666705
0.7250525039544815	215063.66127967782
0.7251733460384739	214117.36128230393
0.7252942082628137	213173.99923917942
0.7254150906308574	214024.2097461232
0.7255359931459625	214874.56195481823
0.7256569158114868	215725.05588888164
0.7257778586307888	216575.6915719345
0.7258988216072273	217426.46902760095
0.7260198047441617	218277.38827950906
0.7261408080449525	219128.44935129394
0.72626183151296	219910.10189888734
0.7263828751515454	220229.68262360283
0.7265039389640706	220549.3166117724
0.726625022953898	220869.00387227355
0.7267461271243904	221188.7444139849
0.7268672514789111	221508.53824578636
0.7269883960208241	221828.38537655948
0.7271095607534942	222148.28581518793
0.7272307456802866	222446.1672982819
0.7273519508045666	222684.47589322273
0.7274731761297006	222922.82420626262
0.7275944216590555	223161.21224402133
0.7277156873959987	223399.6400131198
0.7278369733438982	223638.1075201801
0.727958279506122	223876.61477182433
0.7280796058860397	224115.16177467743
0.7282009524870207	224105.499652479
0.7283223193124353	223728.6481771763
0.7284437063656539	223351.7338932952
0.7285651136500483	222974.75679036614
0.7286865411689898	222597.7168579207
0.7288079889258514	222220.6140854856
0.7289294569240056	221843.44846258932
0.7290509451668262	221466.21997875546
0.7291724536576875	221254.8495812833
0.7292939823999636	221180.92732994346
0.7294155313970303	221106.9927582282
0.7295371006522632	221033.04586408436
0.7296586901690385	220959.08664545824
0.7297802999507332	220885.1151002957
0.7299019300007252	220811.1312265421
0.7300235803223919	220737.13502214305
0.7301452509191123	221092.60914076862
0.7302669417942654	221646.3785779637
0.7303886529512311	222200.24031006516
0.7305103843933897	222754.19435245547
0.7306321361241218	223308.24072051907
0.7307539081468093	223862.379429645
0.7308757004648336	224416.61049522125
0.7309975130815778	224970.93393264242
0.7311193460004248	225824.61788738324
0.7312411992247582	226746.1946069653
0.7313630727579622	227667.92492266704
0.7314849666034219	228589.80886008902
0.7316068807645224	229511.84644483333
0.7317288152446498	230434.03770250885
0.7318507700471907	231356.38265872782
0.7319727451755319	232278.88133910578
0.732094740633061	232263.20290329301
0.7322167564231665	232205.277901652
0.7323387925492371	232147.34324584404
0.7324608490146619	232089.39893426013
0.732582925822831	232031.44496529092
0.7327050229771347	231973.481337327
0.7328271404809642	231915.5080487583
0.7329492783377112	231842.87566041437
0.7330714365507675	231626.21169188083
0.7331936151235259	231409.51161268592
0.7333158140593796	231192.7754168114
0.7334380333617229	230976.0030982372
0.7335602730339499	230759.1946509432
0.7336825330794556	230542.35006890786
0.7338048135016354	230325.4693461093
0.7339271143038857	230336.16534078156
0.734049435489603	231109.52228848866
0.7341717770621846	231883.00812902054
0.7342941390250283	232656.62288385874
0.7344165213815324	233430.36657448913
0.734538924135096	234204.23922240242
0.7346613472891185	234978.24084908937
0.734783790847	235752.3714760477
0.7349062548121412	236102.42419217917
0.7350287391879431	235702.73217213724
0.7351512439778078	235302.9735367578
0.7352737691851374	234903.14827493962
0.735396314813335	234503.25637557745
0.7355188808658037	234103.29782756607
0.7356414673459482	233703.27261979584
0.7357640742571725	233303.18074115794
0.7358867016028818	233163.2295682097
0.7360093493864824	233280.2333309822
0.7361320176113801	233397.25659438167
0.736254706280982	233514.29936165837
0.7363774153986956	233631.36163606308
0.7365001449679286	233748.44342084663
0.7366228949920899	233865.5447192611
0.7367456654745885	233982.6655345586
0.7368684564188344	234197.10667957555
0.7369912678282374	234466.57593179808
0.7371140997062088	234736.09009556274
0.7372369520561599	235005.649178355
0.7373598248815024	235275.25318766042
0.7374827181856494	235544.90213096785
0.7376056319720137	235814.59601576586
0.7377285662440091	236084.3348495447
0.7378515210050496	236204.09907333003
0.7379744962585505	236278.7469340877
0.738097492007927	236353.4072361555
0.7382205082565949	236428.07998160692
0.738343545007971	236502.7651725159
0.7384666022654723	236577.4628109568
0.7385896800325165	236652.17289900398
0.7387127783125219	236726.89543873258
0.7388358971089073	236910.34364298248
0.7389590364250921	237104.72662680616
0.7390821962644963	237299.14200779397
0.7392053766305403	237493.589791345
0.7393285775266454	237688.06998286006
0.7394517989562333	237882.5825877406
0.7395750409227259	238077.12761138828
0.7396983034295463	238258.8502487133
0.739821586480118	238154.63834704447
0.7399448900778645	238050.40907672557
0.7400682142262109	237946.1624348613
0.740191558928582	237841.8984185568
0.7403149241884034	237737.61702491637
0.7404383100091014	237633.31825104365
0.7405617163941028	237529.00209404196
0.7406851433468352	237360.4651522803
0.7408085908707264	236898.18501215402
0.7409320589692048	236435.82782533797
0.7410555476456997	235973.3935789904
0.7411790569036406	235510.88226026876
0.7413025867464579	235048.29385632722
0.7414261371775823	234585.6283543182
0.7415497082004452	234122.88574139256
0.7416732998184786	233677.15078271588
0.741796912035115	233267.99174746798
0.7419205448537874	232858.76451904763
0.7420441982779297	232449.4690860892
0.742167872310976	232040.10543722493
0.7422915669563612	231630.67356108583
0.7424152822175206	231221.17344630085
0.7425390180978901	230811.60508149696
0.7426627746009065	230633.5440490135
0.7427865517300065	230737.76057115415
0.7429103494886282	230841.9944627153
0.7430341678802096	230946.2457265916
0.7431580069081896	231050.5143656785
0.7432818665760077	231154.8003828721
0.7434057468871037	231259.1037810685
0.7435296478449182	231363.4245631645
0.7436535694528923	231286.7173648136
0.7437775117144678	231086.066274829
0.7439014746330868	230885.38174299637
0.7440254582121922	230684.66376374158
0.7441494624552276	230483.91233149017
0.7442734873656368	230283.12744066678
0.7443975329468645	230082.30908569472
0.7445215992023557	229881.4572609969
0.7446456861355559	229503.25208571754
0.7447697937499119	229059.6639423799
0.7448939220488703	228616.00186768518
0.7450180710358784	228172.2658493117
0.7451422407143843	227728.4558749351
0.7452664310878367	227284.57193222904
0.7453906421596846	226840.61400886634
0.7455148739333779	226396.58209251624
0.7456391264123667	225878.91392768236
0.7457633996001021	225349.39728891203
0.7458876935000356	224819.79239736765
0.7460120081156189	224290.0992383423
0.7461363434503048	223760.3177971236
0.7462606995075466	223230.4480589975
0.7463850762907978	222700.49000924922
0.7465094738035127	222170.28162252964
0.7466338920491467	221597.6037882348
0.746758331031155	221024.83050763365
0.7468827907529935	220451.96176481975
0.7470072712181189	219878.99754388203
0.7471317724299886	219305.93782890736
0.7472562943920602	218732.78260398062
0.7473808371077922	218159.53185318256
0.7475054005806435	217573.958929145
0.7476299848140736	216912.97715488123
0.7477545898115426	216251.88521698827
0.7478792155765113	215590.68309710553
0.7480038621124406	214929.37077686997
0.7481285294227926	214267.94823791453
0.7482532175110298	213606.41546186854
0.7483779263806148	212944.77243036084
0.7485026560350116	212249.0901123118
0.7486274064776842	211461.4642449921
0.748752177712097	210673.70710669598
0.7488769697417158	209885.81867554178
0.749001782570006	209097.79892965002
0.7491266162004343	208309.64784713418
0.7492514706364677	207521.36540610422
0.7493763458815739	206732.95158466662
0.7495012419392209	205871.60719044902
0.7496261588128773	204905.46175582358
0.7497510965060128	203939.1552969584
0.7498760550220971	202972.68778701706
0.7500010343646007	202006.0591991573
0.7501260345369949	201039.26950653235
0.750251055542751	200072.3186822931
0.7503760973853414	199105.20669958254
0.7505011600682389	198050.30096499505
0.750626243594917	196922.04822352735
0.7507513479688495	195793.60743993777
0.7508764731935109	194664.97858288386
0.7510016192723765	193536.16162102015
0.7511267862089218	192407.1565229972
0.7512519740066232	191277.9632574575
0.7513771826689577	190148.58179303957
0.7515024121994025	188923.1237911528
0.7516276626014359	187652.75302880796
0.751752933878536	186382.17053800498
0.7518782260341824	185111.3762834531
0.7520035390718548	183840.37022985824
0.7521288729950334	182569.15234192178
0.7522542278071992	181297.7225843372
0.7523796035118337	180026.08092179243
0.7525050001124189	178612.27824858605
0.7526304176124378	177167.3691933969
0.7527558560153731	175722.21932003374
0.752881315324709	174276.82858835696
0.7530067955439299	172831.19695822438
0.7531322966765205	171385.3243894887
0.7532578187259665	169939.21084199112
0.7533833616957542	168492.85627556904
0.75350892558937	166900.51166996613
0.7536345104103016	165301.04813999476
0.7537601161620366	163701.31803276922
0.7538857428480638	162101.3213038576
0.7540113904718717	160501.05790882654
0.7541370590369503	158900.52780323
0.7542627485467898	157299.73094261487
0.7543884590048808	155685.43179108374
0.7545141904147151	153938.87776930616
0.7546399427797842	152192.0326551944
0.7547657161035808	150444.89640023003
0.754891510389598	148697.46895588996
0.7550173256413296	146949.75027364175
0.7551431618622698	145201.74030494696
0.7552690190559135	143453.43900125774
0.7553948972257561	141664.26158867675
0.7555207963752938	139738.55833631262
0.755646716508023	137812.53413340755
0.755772657627441	135886.188926468
0.7558986197370455	133959.52266199366
0.756024602840335	132032.53528647573
0.7561506069408084	130105.22674639523
0.7562766320419653	128177.596988223
0.7564026781473054	126176.12757956031
0.75652874526033	124044.95185996681
0.7566548333845401	121913.42094441893
0.7567809425234375	119781.53477371922
0.7569070726805247	117649.29328865896
0.7570332238593047	115516.69643001811
0.7571593960632813	113383.74413856547
0.7572855892959586	111250.43635506414
0.7574118035608413	109122.949807356
0.7575380388614347	107001.15163095004
0.7576642952012449	104878.99982151389
0.7577905725837782	102756.49432011256
0.7579168710125422	100633.63506779054
0.7580431904910444	98510.42200559235
0.7581695310227928	96386.85507455314
0.7582958926112967	94262.93421568941
0.7584222752600652	92094.93300345136
0.7585486789726085	89901.45132886771
0.7586751037524372	87707.60407400414
0.7588015496030628	85513.39117792713
0.7589280165279966	83318.81257970512
0.7590545045307512	81123.8682183834
0.7591810136148396	78928.55803300152
0.7593075437837755	76732.8819625855
0.7594340950410726	74565.75909177307
0.7595606673902461	72406.66553557967
0.7596872608348112	70247.21213045807
0.7598138753782836	68087.398816438
0.75994051102418	65927.22553353023
0.7600671677760173	63766.69222174367
0.7601938456373134	61605.79882107016
0.7603205446115863	59444.54527149776
0.7604472647023548	57354.70714340055
0.7605740059131385	55271.655198035536
0.7607007682474575	53188.25607734426
0.7608275517088319	51104.50972347082
0.7609543563007835	49020.41607853379
0.7610811820268336	46935.97508465719
0.7612080288905045	44851.18668395228
0.7613348968953197	42771.99772052334
0.7614617860448022	40814.47952391974
0.7615886963424764	38856.63507428071
0.7617156277918667	36898.464317235295
0.7618425803964988	34939.96719839543
0.7619695541598982	32981.143663369614
0.7620965490855914	31021.99365775607
0.7622235651771058	29062.517127139323
0.7623506024379685	27181.48259942273
0.7624776608717082	25645.385860541806
0.7626047404818536	24109.033105537666
0.7627318412719337	22572.424291743664
0.762858963245479	21035.559376479734
0.7629861064060198	19498.43831706312
0.7631132707570876	17961.061070801672
0.7632404563022137	16423.42759500056
0.7633676630449308	15026.310331974826
0.7634948909887717	13928.618097480294
0.7636221401372697	12830.74291428144
0.7637494104939593	11732.684751884351
0.7638767020623748	10634.443579795116
0.7640040148460518	9536.019367509281
0.7641313488485262	8437.412084521438
0.7642587040733344	7338.621700318518
0.7643860805240132	6455.272000176691
0.7645134782041005	5829.078925023154
0.7646408971171346	5202.78148435683
0.764768337266654	4576.3796607839595
0.7648957986561985	3949.8734369069566
