#wavelength	surface flux
0.428837	429.3991310632059
0.43312537	838.671744235379
0.43745662370000005	985.0787318667606
0.4418311899370001	1155.7421642328263
0.44624950183637	1352.4773206890509
0.4507119968547338	1576.1874198814817
0.45521911682328114	1825.710718894872
0.4597713079915139	2133.1835302666977
0.4643690210714291	2474.0239391043915
0.4690127112821433	2858.035748356485
0.47370283839496474	3293.3955175975448
0.47843986677891437	3772.413617065264
0.48322426544670355	4320.43262503763
0.48805650810117057	4943.45794333613
0.4929370731821824	5618.608755837574
0.49786644391400414	6345.155721034457
0.5028451083531442	7126.504358675507
0.5078735594366757	7924.5296876551365
0.5129522950310424	8653.351022725277
0.5180818179813528	9349.525939437306
0.5232626361611664	10513.062657569833
0.5284952625227781	11265.145193570754
0.5337802151480058	11772.62547945152
0.5391180172994858	11966.828090000181
0.5445091974724807	11689.578511363103
0.5499542894472055	10806.681137478201
0.5554538323416777	9214.25624498406
0.5610083706650945	6969.011249931331
0.5666184543717453	4386.677116848199
0.5722846389154628	2086.234496828044
0.5780074853046174	630.0606780526375
0.5837875601576636	93.23095546768529
0.5896254357592402	5.3109110270222954
0.5955216901168326	181.22700791241346
0.6014769070180009	1254.5508886816497
0.607491676088181	4471.01183249598
0.6135665928490629	10692.133421439348
0.6197022587775535	20028.399035231687
0.625899281365329	32101.591578990206
0.6321582741789823	46377.981842278925
0.6384798569207721	62438.29192117802
0.6448646554899798	79712.812430278
0.6513133020448797	98649.4668359445
0.6578264350653285	118234.99273524359
0.6644046994159818	139116.29621888284
0.6710487464101416	121578.84294755527
0.677759233874243	185317.64974675069
0.6845368262129854	210625.53202918184
0.6913821944751153	231817.1508384504
0.6982960164198664	260037.74996204456
0.7052789765840651	284838.76072500646
0.7123317663499058	307512.9133679188
0.7194550840134049	318126.6006304002
0.7266496348535388	322342.71283620264
0.7339161312020743	319868.75586281583
0.741255292514095	291069.29732482374
0.748667845439236	217355.6268671441
0.7561545238936284	98393.65364031876
0.7637160691325647	8852.061348179788
0.7713532298238903	6803.249271003795
0.7790667621221293	102208.24402554525
0.7868574297433505	334203.20973840205
0.7947260040407841	302325.4272316152
0.8026732640811919	722760.7833757597
0.8106999967220039	846657.2496624443
0.8188069966892239	1006556.8778915491
0.8269950666561161	1143341.8915036786
0.8352650173226772	1255316.9625716938
0.8436176674959041	1423864.4251978225
0.852053844170863	1513291.2881814213
0.8605743826125718	1715224.9409735145
0.8691801264386976	1858862.9319823734
0.8778719277030844	1997097.0970074132
0.8866506469801153	2082496.2758898945
0.8955171534499164	2041383.0642182403
0.9044723249844157	2444189.6156022903
0.9135170482342599	2590319.487295712
0.9226522187166025	2692559.544258735
0.9318787409037684	1731786.6509061658
0.941197528312806	2339231.695640219
0.9506095035959342	2184084.4239591197
0.9601155986318936	2159801.6251123734
0.9697167546182125	2486846.545350401
0.9794139221643946	3323775.5526073715
0.9892080613860387	3842267.6046529314
0.9991001419998989	4304204.53254224
1.0090911434198981	4676854.011422697
1.019182054854097	5092255.089768323
1.0293738754026378	5224949.712753587
1.0396676141566643	5715042.479862669
1.050064290298231	5960997.821774622
1.0605649332012133	6313168.199836113
1.0711705825332256	6545183.887608989
1.0818822883585577	6879520.099009363
1.0927011112421434	6692193.929107548
1.1036281223545648	3736070.440864995
1.1146644035781104	3198424.052449337
1.1258110476138916	3348191.8593399744
1.1370691580900303	3719485.65229685
1.1484398496709307	4617179.05897246
1.1599242481676402	2236645.789000739
1.1715234906493166	4352423.733848544
1.1832387255558097	7770656.314898909
1.1950711128113678	9356948.470467223
1.2070218239394814	10102730.371443706
1.2190920421788762	10906511.142869446
1.2312829626006652	11591245.43538773
1.2435957922266716	12157556.736732392
1.2560317501489384	12597560.771380028
1.2685920676504279	12846362.588256741
1.281277988326932	12973821.41764696
1.2940907682102014	12481158.548016671
1.3070316758923035	12012730.31482269
1.3201019926512265	12550949.262417998
1.3333030125777388	4356958.7989820065
1.3466360427035162	723589.163151441
1.3601024031305513	206086.6150023382
1.373703427161857	1089053.6481213672
1.3874404614334754	137720.10274803755
1.4013148660478103	510979.58666945004
1.4153280147082883	383480.83647987293
1.4294812948553712	601332.9499057455
1.443776107803925	1279685.8434936963
1.4582138688819641	3881246.8659887128
1.4727960075707838	3532043.178929225
1.4875239676464918	6584251.615673462
1.5023992073229566	8063361.6077699
1.5174231993961862	10857953.28130575
1.532597431390148	14183368.004850397
1.5479234057040496	16772067.160657717
1.5634026397610903	18341882.466244344
1.579036666158701	17860241.833703965
1.594827032820288	19635458.271386605
1.610775303148491	18274252.214588426
1.6268830561799759	13551612.43429174
1.6431518867417756	18063691.67307504
1.6595834056091934	16398242.36686828
1.6761792396652853	14025463.660514766
1.6929410320619382	9905371.010374464
1.7098704423825577	10306492.606127165
1.7269691468063835	12649785.480105042
1.744238838274447	9220295.037156044
1.7616812266571917	9745663.977121709
1.7792980389237634	1674497.6389894132
1.7970910193130012	2869844.4681422343
1.815061929506131	818087.3629880936
1.8332125488011928	541473.1980931342
1.8515446742892046	1180408.835689171
1.8700601210320964	558486.3916030623
1.8887607222424174	2880881.655354492
1.9076483294648416	345796.42541022145
1.92672481275949	363983.00026965316
1.9459920608870853	1092003.2356063854
1.9654519814959561	1467950.635482822
1.9851065013109155	4475945.508498253
2.0049575663240247	6513865.968382466
2.025007141987265	9838855.007508593
2.0452572134071376	16911572.488493584
2.065709785541209	19702794.00903705
2.086366883396621	20154708.907620538
2.107230552230587	18697874.67012655
2.1283028577528933	17495076.754130635
2.1495858863304225	13574004.034163706
2.1710817451937263	11891999.435232867
2.1927925626456637	6157611.552803752
2.2147204882721203	2943911.947443947
2.2368676931548412	1329568.022676647
2.25923637008639	1265459.6919931334
2.281828733787254	1050615.4527211431
2.3046470211251266	1643690.162858652
2.327693491336378	684635.4860226803
2.3509704262497415	663586.0868594548
2.374480130512239	521405.7912689107
2.3982249318173614	957134.1004911555
2.4222071811355352	1890975.1327927404
2.4464292529468903	1937888.24811318
2.4708935454763594	1385882.2346849318
2.4956024809311232	663828.9160296457
2.5205585057404343	253311.73513854147
2.5457640907978387	514125.58339461574
2.5712217317058172	155762.80997579708
2.5969339490228753	106221.51917596051
2.622903288513104	400943.95180629875
2.6491323213982354	660202.7769160894
2.6756236446122177	47305.58026788301
2.7023798810583397	293315.75008290174
2.729403679868923	934867.4370284531
2.7566977166676123	303176.2523141841
2.7842646938342885	234711.26404453116
2.812107340772631	302674.4579391242
2.8402284141803578	751236.490237935
2.8686306983221614	455694.51703700604
2.897317005305383	649114.4762048121
2.926290175358437	1651366.6071304257
2.9555530771120213	1950322.535497344
2.9851086078831415	2043910.9718751279
3.014959693961973	2482630.8404432232
3.0451092909015927	1991178.9934522067
3.0755603838106085	2266180.183091478
3.1063159876487147	1415592.9254565188
3.137379147525202	946527.5594297821
3.168752939000454	623045.2729467241
3.200440468390459	470955.2376888008
3.232444873074363	303792.8746469966
3.264769321805107	932899.9104515974
3.297417015023158	951210.6182094819
3.330391185173389	160641.45689714298
3.3636950970251234	708735.5412125193
3.397332047995375	566053.6236838968
3.4313053684753285	414971.13127399224
3.465618422160081	493855.2747460982
3.5002746063816828	765485.2684393686
3.5352773524454997	1010978.1708088861
3.570630125969955	1439731.1646622266
3.606336427229654	1959868.6283765328
3.6423997915019504	2772407.4960286426
3.67882378941697	3749997.258234274
3.7156120273111397	4127044.531158371
3.7527681475842516	5226149.525965521
3.7902958290600934	5266682.09328993
3.8281987873506953	7147180.427972404
3.8664807752242023	7261373.452411902
3.905145582976444	7660504.991828023
3.9441970388062084	8747787.965181163
3.983639009194271	9089514.155068789
4.023475399286213	9731887.014349129
4.063710153279075	10046974.036688251
4.1043472548118665	9743647.72421762
4.145390727359985	9165626.224080345
4.186844634633585	8685964.366234759
4.2287130809799205	7790274.582014073
4.27100021178972	7173016.807692379
4.313710213907617	7107356.161006179
4.356847316046694	6141589.011389629
4.40041578920716	5595838.053957268
4.444419947099232	5068019.694398727
4.488864146570225	4797267.400634345
4.533752788035927	4352346.354710313
4.579090315916286	4538202.6864895215
4.624881219075449	4159097.2694006884
4.671130031266204	4119863.7668655254
4.717841331578866	3687914.802260047
4.765019744894654	4009152.0733169746
4.812669942343601	3712938.4290826884
4.8607966417670365	3865086.763951431
4.9094046081847065	3470178.191598195
4.958498654266554	1882377.9228877465
5.008083640809219	2409251.5309977825
5.058164477217312	3221836.782600304
5.108746121989485	2494657.9759810106
5.15983358320938	1625986.3387666917
5.211431919041474	1140368.595071839
5.263546238231889	1575626.3752744552
5.316181700614208	1995674.9477584863
5.36934351762035	938548.5791854585
5.423036952796553	651078.934771293
5.4772673223245185	705912.9840996757
5.532039995547764	818640.7250539301
5.587360395503242	556175.025616238
5.643233999458275	426874.731659776
5.6996663394528575	406998.73612886923
5.756663002847385	384450.7976138804
5.814229632875859	475077.1760093007
5.872371929204618	319697.2835634861
5.931095648496664	406760.5835674066
5.990406604981631	543093.3440403589
6.050310671031448	445764.6706468254
6.110813777741763	485796.04877994576
6.17192191551918	462507.3074715343
6.233641134674372	1344848.393465713
6.295977546021115	1484820.772342558
6.358937321481327	867796.0280692047
6.42252669469614	257947.14198826975
6.486751961643101	224012.99821077194
6.551619481259532	285266.372255595
6.617135676072128	245250.976933196
6.683307032832849	435845.4269620424
6.750140103161177	539763.5691008586
6.81764150419279	534234.188234743
6.885817919234718	367689.6845183808
6.954676098427065	547910.6509932836
7.024222859411336	313618.57970003714
7.094465088005449	506851.01132555166
7.165409738885503	333466.33377883065
7.237063836274358	369409.7871802743
7.309434474637103	298621.9092693082
7.382528819383473	252825.98074291044
7.456354107577308	243843.85437773704
7.530917648653081	341634.44206689985
7.606226825139612	373865.2310911671
7.682289093391009	187077.71750842637
7.759111984324918	295438.85834013356
7.836703104168168	318262.6987283218
7.91507013520985	299027.3056883641
7.994220836561947	356348.13229781634
8.074163044927568	360735.3145141755
8.154904675376844	394849.8647041861
8.23645372213061	453960.9289981411
8.318818259351918	511928.0878563002
8.402006441945437	534935.9827777285
8.486026506364892	629776.9848965063
8.57088677142854	711456.1495677109
8.656595639142825	774165.6271472886
8.743161595534254	851803.390575106
8.830593211489598	921830.555712475
8.918899143604493	873157.1287064658
9.00808813504054	928567.8659318066
9.098169016390944	1010136.4860584065
9.189150706554853	1048511.5472739975
9.281042213620402	941857.1472501468
9.373852635756606	770885.8993774845
9.467591162114172	1019227.5460536132
9.562267073735315	1139627.06581603
9.657889744472667	854913.8010544019
9.754468641917395	1041720.3246374334
9.852013328336568	846875.6914812854
9.950533461619933	1066909.0030426527
10.050038796236134	974782.6583929817
10.150539184198495	1036851.6869293408
10.252044576040479	884972.4178543016
10.354565021800884	514530.02426395036
10.458110672018893	635970.6387324431
10.562691778739081	764574.0595456826
10.668318696526473	669700.6010944074
10.775001883491738	608279.775694073
10.882751902326655	654463.2764464882
10.991579421349924	487716.24744696164
11.101495215563421	681766.3977410817
11.212510167719055	549462.4984502409
11.324635269396246	582519.7511283766
11.43788162209021	649464.9501729927
11.552260438311112	413584.1306163908
11.667783042694223	464578.8317121409
11.784460873121166	431637.39738834463
11.902305481852377	498198.9109369346
12.0213285366709	500913.294263453
12.14154182203761	542318.4797350852
12.262957240257986	382958.4454691439
12.385586812660566	312714.7386931533
12.509442680787172	312162.03907454706
12.634537107595044	379644.34971666936
12.760882478670995	356204.2544115245
12.888491303457704	330637.70755699585
13.01737621649228	279597.5227126493
13.147549978657205	301639.8055436442
13.279025478443776	219867.64261625186
13.411815733228213	212192.29195653237
13.545933890560496	276175.5138259538
13.681393229466101	230827.12982806758
13.818207161760762	227256.2789679394
13.956389233378369	229187.29209944422
14.095953125712155	238984.59129136364
14.236912656969274	210370.4215371132
14.379281783538968	154247.0030961264
14.523074601374358	146156.79675800112
14.6683053473881	196990.69338147048
14.814988400861985	177245.5458702937
14.963138284870602	156872.0668894995
15.11276966771931	174567.33789502073
15.263897364396504	193160.58094812252
15.41653633804047	149191.16515242262
15.570701701420873	106587.3565269917
15.726408718435081	94031.97711027115
15.883672805619431	174818.93311992157
16.042509533675627	117716.70159695097
16.202934629012383	111598.36354865416
16.36496397530251	108758.75940877589
16.528613615055534	102115.92252777932
16.69389975120609	85912.74820872486
16.86083874871815	80478.61435734284
17.02944713620533	102262.241037885
17.199741607567383	71732.87272465238
17.37173902364306	65367.57449814076
17.54545641387949	71306.7345937774
17.720910978018285	70167.81414636146
17.898120087798468	66044.60062388636
18.077101288676452	70204.7119577051
18.257872301563214	60521.994302417326
18.44045102457885	63672.702359546696
18.62485553482464	54352.92897862846
18.811104090172883	86379.01549015357
18.999215131074614	46990.98186846037
19.189207282385357	49042.54644080968
19.381099355209216	38996.88363187036
19.574910348761303	41492.44530240119
19.77065945224892	43785.813935258615
19.968366046771408	56044.468867357034
20.16804970723912	47870.49013058911
20.369730204311512	38064.02387320109
20.573427506354626	33030.38638479375
20.779161781418175	39773.19419059548
20.98695339923236	30289.18834070504
21.19682293322468	29307.782852265547
21.408791162556927	39896.718193647335
21.622879074182496	27677.1111788692
21.839107864924323	24158.32685549813
22.057498943573567	25552.45676095813
22.278073933009303	29221.813280636037
22.500854672339393	21413.570554409805
22.72586321906279	40403.141040561066
22.953121851253417	20233.802389286793
23.18265306976595	34523.12020275939
23.41447960046361	27940.08530991993
23.648624396468247	17217.71878203568
23.88511064043293	15531.759334847564
24.12396174683726	31412.2948516981
24.365201364305634	28702.62345807951
24.608853377948687	26913.296995223038
24.854941911728176	21615.0069553211
25.103491330845458	12447.39367363901
25.354526244153913	12719.796761363943
25.608071506595454	21743.21718037433
25.864152221661406	17240.659301098036
26.122793743878024	16705.857504070827
26.384021681316803	18444.355386616073
26.64786189812997	9745.498410631575
26.91434051711127	14462.647762226385
27.18348392228238	16887.92762430019
27.455318761505207	21020.982261514368
27.72987194912026	16076.776647196377
28.007170668611465	9278.055561004237
28.28724237529758	8033.762076896819
28.57011479905055	8030.554545631064
28.855815947041062	12229.344933453132
29.144374106511474	8700.91536626139
29.435817847576587	10265.669532552152
29.730176026052348	8640.17749812787
30.027477786312875	10827.458493026374
30.327752564176006	7139.2375214353315
30.631030089817763	7870.5849590187
30.93734039071594	6976.476173814272
31.246713794623105	8684.517279400576
31.559180932569333	10036.704916418268
31.874772741895026	7299.00184436397
32.19352046931398	9246.36158383702
32.51545567400712	8526.532407778572
32.84061023074719	4725.671560602739
33.169016333054664	5197.420723341874
33.500706496385206	5569.016320111536
33.83571356134906	9042.197332123906
34.17407069696255	5678.7195750928195
34.51581140393218	4332.533742547451
34.8609695179715	5069.41606667634
35.209579213151216	4361.708611280811
35.56167500528272	3588.4344932618824
35.917291755335555	3338.6221561812326
36.27646467288891	4614.108167987321
36.639229319617804	4403.031218314799
37.005621612813975	6078.3830084682495
37.37567782894212	3441.2204017370473
37.74943460723154	4029.434753399887
38.12692895330385	5576.711164421819
38.5081982428369	5033.318333825723
38.893280225265265	3095.0339873180556
39.28221302751791	2374.847491147384
39.6750351577931	3857.261958773293
40.071785509371026	2402.5321765376766
40.47250336446474	2397.0137560175144
40.87722839810939	2439.1676226307145
41.28600068209048	3813.064844310297
41.69886068891139	3750.1923070329076
42.1158492958005	2878.440331008976
42.53700778875851	2856.5153095845653
42.962377866646094	2069.7212819640945
43.392001645312554	1950.2279121981267
43.825921661765676	1679.2859876564187
44.264180878383335	1744.9591859128282
44.70682268716717	1729.0269233987992
45.15389091403884	1837.8701135816716
45.60542982317923	2399.9355344652536
46.06148412141103	1933.0381730224549
46.52209896262513	1498.9343803202696
46.98731995225138	1469.079616598229
47.4571931517739	2115.8683161685994
47.93176508329164	1277.709773374875
48.411082734124555	1852.8246037845795
48.8951935614658	1219.790784091264
49.38414549708046	1068.1833972562986
49.877986952051266	1138.1416700847224
50.37676682157178	1098.124268964479
50.88053448978749	1059.4735862320717
51.38933983468537	1022.1344686785648
51.903233233032225	986.0723073963917
52.422265565362544	951.2404838347372
52.946488221016175	917.598128614519
53.47595310322633	885.1158227365538
54.010712634258596	853.7437052993884
54.550819760601186	823.452040221732
55.0963279582072	794.2035124346338
55.647291237789275	765.9617005140159
56.20376415016716	738.6982973285387
56.765801791668835	712.3752260314488
57.33345980958552	686.9656857672809
57.906794407681375	662.4380266732996
58.48586235175819	638.7604405788509
59.070720975275776	615.9092743619568
59.661428185028534	593.8504027475583
60.25804246687882	572.5644457502748
60.860622891547614	552.0199603201864
61.46922912046309	532.1939859902117
62.083921411667724	513.0638695924458
62.7047606257844	494.60140147631324
63.331808232042235	476.7906643086348
63.965126314362664	459.60432482478
64.60477757750628	443.0225314524155
65.25082535328136	427.025891753483
65.90333360681416	411.59127338298777
66.56236694288232	396.70475461784423
67.22799061231113	382.34297281481076
67.90027051843424	368.48971530390986
68.57927322361859	355.12787183297854
69.26506595585477	342.23923805741447
69.95771661541333	329.8096948522567
70.65729378156746	317.82117593995804
71.36386671938313	306.25952859822604
72.07750538657696	295.11005487145263
72.79828044044274	284.35748992893457
73.52626324484716	273.9900448728069
74.26152587729563	263.99216054598406
75.00414113606858	254.3526796775167
75.75418254742928	245.05835818619738
76.51172437290357	236.09637324467428
77.27684161663261	227.4570654193919
78.04961003279894	219.1270213899197
78.83010613312693	211.09751590727046
79.6184071944582	203.35635247291714
80.41459126640278	195.89372897492564
81.2187371790668	188.70093275750992
82.03092455085748	181.76697464436572
82.85123379636605	175.08409759017482
83.6797461343297	168.6421524872287
84.51654359567301	162.4332201400377
85.36170903162974	156.44961291562765
86.21532612194603	150.68215854122585
87.0774793831655	145.12460624429806
87.94825417699715	139.76822018123826
88.82773671876713	134.60678656975836
89.71601408595481	129.63305408071554
90.61317422681435	124.8396487778665
91.5193059690825	120.22170073509575
92.43449902877332	115.77122959573832
93.35884401906105	111.48368059737712
