#wavelength	surface flux
0.8	1850393.9422245917
0.8002000000000001	1855933.800579634
0.8004000500000003	1861933.086926167
0.8006001500125003	1867938.4997798447
0.8008003000500035	1873945.4139867362
0.8010005001250161	1879953.8299221823
0.8012007502500472	1885963.7479616033
0.8014010504376099	1891005.3395253033
0.8016014007002193	1895723.3284162472
0.8018018010503944	1900442.4968044139
0.8020022515006572	1905162.8449846795
0.8022027520635323	1909884.3732519862
0.8024033027515483	1914620.707711429
0.8026039035772362	1919371.5790173144
0.8028045545531306	1924123.6380410264
0.8030052556917691	1928876.8850794968
0.803206007005692	1933631.3204297225
0.8034068085074435	1938563.8464847088
0.8036076602095705	1943993.488194883
0.8038085621246229	1949424.4873154806
0.8040095142651542	1954856.8441858615
0.8042105166437206	1960290.5591454583
0.8044115692728815	1965697.7467639681
0.8046126721651998	1969906.8700879868
0.8048138253332411	1974117.0456928331
0.8050150287895745	1978328.2738415843
0.805216282546772	1982540.5547973718
0.8054175866174087	1986753.888823396
0.8056189410140631	1991181.6377280978
0.8058203457493168	1995670.888725622
0.8060218008357541	2000161.26203589
0.8062233062859632	2004652.7579394875
0.8064248621125346	2009145.376717058
0.806626468328063	2014186.9161314901
0.8068281249451449	2019700.2076985845
0.8070298319763813	2025214.8775885776
0.8072315894343755	2030730.9261460388
0.8074333973317341	2036248.3537156417
0.8076352556810671	2040770.6198660312
0.8078371644949874	2042895.1765309745
0.8080391237861113	2045020.2643350845
0.8082411335670578	2047145.8834111441
0.8084431938504498	2049272.0338919752
0.8086453046489125	2051364.4907070075
0.8088474659750746	2052820.2586660055
0.8090496778415686	2054276.3905669951
0.809251940261029	2055732.886500959
0.8094542532460944	2057189.7465589077
0.8096566168094059	2058646.970831869
0.8098590309636085	2061023.4585813307
0.8100614957213493	2063615.6163066386
0.8102640110952797	2066208.422071378
0.8104665770980536	2068801.8760375595
0.8106691937423283	2071395.9783672336
0.8108718610407639	2074564.3106567932
0.8110745790060241	2078172.0226470437
0.8112773476507757	2081780.6365652946
0.8114801669876885	2085390.1526370244
0.8116830370294355	2089000.57108777
0.8118859577886929	2092278.7526186113
0.8120889292781401	2094865.8083349369
0.8122919515104597	2097453.5108151915
0.8124950244983374	2100041.860221066
0.8126981482544621	2102630.856714292
0.8129013227915257	2105307.5822760495
0.8131045481222237	2108982.077164904
0.8133078242592543	2112657.490677482
0.8135111512153191	2116333.8230434363
0.813714529003123	2120011.074492483
0.8139179576353739	2123689.2452543923
0.8141214371247829	2135405.5936873714
0.8143249674840641	2148683.4307437795
0.814528548725935	2161964.587259444
0.8147321808631167	2175249.064064255
0.8149358639083326	2188536.8619882637
0.8151395978743097	2197340.348782745
0.8153433827737784	2203114.0032559163
0.8155472186194719	2208889.101142703
0.8157511054241268	2214665.642803961
0.815955043200483	2220443.628600638
0.8161590319612831	2225563.154357804
0.8163630717192736	2229474.7653733185
0.8165671624872033	2233387.3542915825
0.8167713042778252	2237300.92135708
0.8169754971038948	2241215.466814345
0.8171797409781707	2244778.007808177
0.8173840359134155	2245523.46602946
0.8175883819223938	2246269.110615297
0.8177927790178745	2247014.941612282
0.8179972272126291	2247760.9590670154
0.8182017265194322	2248507.163026112
0.8184062769510622	2254254.5002911976
0.8186108785203001	2260772.84607847
0.8188155312399301	2267292.8214521804
0.8190202351227402	2273814.4268197417
0.819224990181521	2280337.6625886406
0.8194297964290664	2287253.293016226
0.8196346538781738	2294406.1845687097
0.8198395625416434	2301560.8643440786
0.8200445224322789	2308717.3327893945
0.820249533562887	2315875.59035182
0.8204545959462778	2322320.439236899
0.8206597095952644	2327615.8070719363
0.8208648745226633	2332912.4987489367
0.8210700907412941	2338210.5145988557
0.8212753582639793	2343509.8549527316
0.8214806771035456	2347442.0838205502
0.8216860472728215	2342944.0607793503
0.8218914687846397	2338444.9132323903
0.822096941651836	2333944.6408985406
0.822302465887249	2329443.243496611
0.8225080415037209	2324940.7207453274
0.8227136685140968	2331547.103842145
0.8229193469312254	2339416.359306109
0.8231250767679583	2347287.582083942
0.8233308580371503	2355160.7726674653
0.8235366907516598	2363035.9315486397
0.8237425749243477	2371390.029464688
0.8239485105680789	2379999.018520018
0.824154497695721	2388610.159822607
0.824360536320145	2397223.4539105226
0.8245666264542252	2405838.90132196
0.8247727681108388	2413597.078094711
0.8249789613028664	2420126.336772225
0.8251852060431922	2426657.227764414
0.825391502344703	2433189.751479348
0.8255978502202894	2439723.908325217
0.8258042496828445	2445905.2696656254
0.8260107007452654	2450366.8667306677
0.8262172034204517	2454829.5791949723
0.8264237577213068	2459293.4073373936
0.8266303636607373	2463758.351436853
0.8268370212516525	2468224.411772335
0.8270437305069654	2469117.0434346884
0.8272504914395923	2469730.570779993
0.8274573040624523	2470344.251507134
0.8276641683884679	2470958.0856544566
0.8278710844305652	2471572.0732603166
0.8280780522016729	2475425.6729883812
0.8282850717147234	2480760.9866550597
0.8284921429826521	2486097.634150149
0.8286992660183978	2491435.6158071165
0.8289064408349024	2496774.931959494
0.8291136674451112	2500748.927559772
0.8293209458619727	2503000.632705549
0.8295282760984382	2505252.900777609
0.829735658167463	2507505.73191669
0.8299430920820048	2509759.126263553
0.8301505778550254	2512183.325070798
0.8303581154994891	2515287.6120579448
0.8305657050283641	2518392.6751168417
0.8307733464546212	2521498.5144415004
0.8309810397912352	2524605.130225996
0.8311887850511829	2527712.522664431
0.8313965822474458	2537580.7344462327
0.8316044313930077	2547765.182612106
0.8318123325008561	2557952.1768900305
0.8320202855839813	2568141.7179165194
0.8322282906553774	2578333.806328266
0.8324363477280413	2583670.75266355
0.8326444568149735	2587053.344339007
0.8328526179291771	2590436.7816623794
0.8330608310836596	2593821.0648450875
0.8332690962914304	2597206.1940985867
0.8334774135655034	2600132.1166489967
0.833685782918895	2602544.8763875426
0.8338942043646247	2604958.2393160216
0.834102677915716	2607372.205585235
0.834311203585195	2609786.7753460133
0.8345197813860912	2613802.8343683225
0.8347284113314379	2623208.6281077424
0.8349370934342709	2632616.773295592
0.8351458277076294	2642027.270519727
0.8353546141645565	2651440.1203681836
0.8355634528180977	2660855.3234290984
0.8357723436813022	2655135.019047192
0.8359812867672226	2649226.370574287
0.8361902820889144	2643316.2449392667
0.8363993296594368	2637404.6417728364
0.8366084294918518	2631491.560705612
0.8368175815992247	2636731.7600014214
0.8370267859946247	2645815.082792594
0.8372360426911234	2654900.6764144623
0.8374453517017962	2663988.5414347346
0.8376547130397217	2673078.678421261
0.8378641267179816	2679610.1641114117
0.8380735927496613	2683602.1805186663
0.8382831111478488	2687595.1949300203
0.8384926819256358	2691589.2075949744
0.8387023050961173	2695584.218763099
0.8389119806723914	2699552.7082730928
0.8391217086675596	2703444.7384765605
0.8393314890947265	2707337.7416875768
0.8395413219670003	2711231.7181493957
0.8397512072974922	2715126.668105333
0.8399611450993165	2719158.755340425
0.8401711353855914	2729953.6834144825
0.8403811781694378	2740751.3102205554
0.8405912734639802	2751551.6364333327
0.8408014212823464	2762354.662727668
0.8410116216376671	2773160.389778576
0.8412218745430766	2782611.6475720084
0.8414321800117124	2791670.383880725
0.8416425380567154	2800731.3848735234
0.8418529486912297	2809794.6511165723
0.8420634119284025	2818860.183176174
0.8422739277813847	2824979.9120112183
0.8424844962633302	2828503.807058101
0.842695117387396	2832028.5830787416
0.8429057911667428	2835554.2402933873
0.8431165176145345	2839080.778922338
0.8433272967439382	2842693.414204862
0.8435381285681244	2846514.815707479
0.8437490131002665	2850337.1725604716
0.8439599503535415	2854160.4850026746
0.84417094034113	2857984.7532729907
0.8443819830762154	2861934.294480797
0.8445930785719846	2868389.197056106
0.8448042268416277	2874845.713357055
0.8450154278983382	2881303.8437870783
0.8452266817553128	2887763.588749709
0.8454379884257517	2894224.9486485813
0.8456493479228583	2900645.1330101006
0.845860760259839	2907056.617860165
0.846072225449904	2913469.7055814415
0.8462837435062666	2919884.3965746504
0.8464953144421433	2926300.691240611
0.8467069382707537	2931578.9176544864
0.8469186150053215	2935970.1240484235
0.847130344659073	2940362.4282439607
0.8473421272452377	2944755.8305155425
0.8475539627770492	2949150.3311376967
0.8477658512677435	2953979.7655344377
0.8479777927305605	2959731.5991012817
0.8481897871787432	2965484.870626516
0.848401834625538	2971239.580469635
0.8486139350841944	2976995.728990211
0.8488260885679657	2982644.250979549
0.8490382950901076	2986964.7145393197
0.8492505546638802	2991286.2582149827
0.8494628673025462	2995608.882276563
0.8496752330193721	2999932.586994165
0.8498876518276269	3004257.3726379406
0.8501001237405839	3004139.7467973665
0.8503126487715191	3003135.0923709087
0.850525226933712	3002130.186780845
0.8507378582404455	3001125.0299643837
0.8509505427050057	3000119.6218587174
0.8511632803406821	3001033.616913362
0.8513760711607672	3003262.4522867682
0.8515889151785576	3005491.844869022
0.8518018124073523	3007721.794799419
0.8520147628604541	3009952.3022172977
0.8522277665511693	3015200.9911548835
0.8524408234928071	3026031.7228931994
0.8526539336986805	3036865.1623144527
0.8528670971821053	3047701.310095562
0.8530803139564007	3058540.166913604
0.8532935840348901	3069268.2979603494
0.8535069074308987	3079041.0903989826
0.8537202841577566	3088816.3260357333
0.8539337142287962	3098594.005481395
0.8541471976573534	3108374.1293469113
0.8543607344567677	3118156.6982433964
0.8545743246403821	3125380.8746459517
0.8547879682215422	3132200.166727666
0.8550016652135977	3139021.1636324
0.8552154156299011	3145843.8657863606
0.8554292194838088	3152668.273615864
0.8556430767886797	3158605.72825767
0.855856987557877	3164005.096813349
0.8560709518047664	3169405.815211164
0.8562849695427177	3174807.8837885796
0.8564990407851035	3180211.3028831417
0.8567131655452999	3185619.598048139
0.8569273438366862	3191035.021470439
0.8571415756726455	3196451.7987485956
0.8573558610665638	3201869.930221074
0.8575702000318304	3207289.416226414
0.8577845925818384	3212801.4317187252
0.857999038729984	3218884.3354521315
0.8582135384896665	3224968.759911469
0.858428091874289	3231054.7054769224
0.8586426988972576	3237142.172528765
0.8588573595719821	3243231.161447373
0.8590720739118751	3248342.5840504756
0.8592868419303532	3253339.8470421773
0.8595016636408359	3258338.359349627
0.8597165390567462	3263338.121285152
0.8599314681915105	3268339.133161162
0.8601464510585584	3272422.826576092
0.860361487671323	3276019.9710531747
0.8605765780432408	3279618.0148163754
0.8607917221877518	3283216.9580905205
0.8610069201182988	3286816.8011004827
0.8612221718483286	3279472.22704899
0.8614374773912907	3256346.6611355487
0.8616528367606385	3233215.3138306355
0.8618682499698288	3210078.183688881
0.8620837170323213	3186935.269264595
0.8622992379615795	3167569.843576382
0.8625148127710699	3166921.552414705
0.8627304414742627	3166273.0991802374
0.8629461240846313	3165624.4838324613
0.8631618606156526	3164975.7063308484
0.8633776510808066	3164326.7666348596
0.8635934954935769	3198107.3730218504
0.8638093938674504	3234718.6900220593
0.8640253462159173	3271339.159851517
0.8642413525524714	3307968.7847984317
0.8644574128906095	3344607.5671515753
0.8646735272438323	3349731.0778982225
0.8648896956256433	3340196.1354665617
0.8651059180495498	3330658.8092992925
0.8653221945290621	3321119.0988004906
0.8655385250776946	3311577.0033740504
0.8657549097089641	3312991.6785894693
0.8659713484363913	3328436.8364663655
0.8661878412735006	3343885.8556327373
0.866404388233819	3359338.737053899
0.8666209893308775	3374795.481695409
0.8668376445782103	3388068.2561078263
0.8670543539893549	3392414.6858318965
0.8672711175778525	3396762.2021634
0.8674879353572469	3401110.805373982
0.8677048073410862	3405460.4957353687
0.8679217335429217	3409811.273519348
0.8681387139763074	3417653.73654481
0.8683557486548015	3425671.564179085
0.8685728375919655	3433691.396270279
0.8687899808013633	3441713.233319478
0.8690071782965637	3449737.0758279497
0.869224430091138	3454864.1763716214
0.8694417361986609	3458813.0618240056
0.8696590966327107	3462762.9344977518
0.869876511406869	3466713.7946396666
0.8700939805347206	3470665.642496615
0.8703115040298544	3475162.996392282
0.870529081905862	3480284.016311368
0.8707467141763385	3485406.316485432
0.8709644008548827	3490529.8972345395
0.8711821419550964	3495654.758878831
0.8713999374905854	3501296.7470830893
0.871617787474958	3508720.5070466786
0.8718356919218269	3516146.1229502656
0.8720536508448075	3523573.595257829
0.8722716642575187	3531002.924433465
0.8724897321735832	3538434.1109413984
0.8727078546066265	3544895.653081203
0.8729260315702784	3551344.030871721
0.873144263078171	3557794.02075668
0.8733625491439405	3564245.6231391113
0.8735808897812266	3570698.8384221406
0.8737992850036719	3574106.922280686
0.874017734824923	3576436.751274362
0.8742362392586293	3578767.1627252856
0.874454798318444	3581098.1567790713
0.8746734120180236	3583429.7335813707
0.8748920803710283	3587084.5512469877
0.875110803391121	3592069.4278442296
0.8753295810919689	3597055.5506606232
0.875548413487242	3602042.9200077206
0.8757673005906139	3607031.5361971552
0.8759862424157616	3613827.6018849686
0.8762052389763657	3625851.6983121224
0.8764242902861098	3637878.8007633747
0.8766433963586814	3649908.909990243
0.8768625572077712	3661942.026744422
0.8770817728470732	3673886.3000825555
0.8773010432902849	3678662.01088869
0.8775203685511077	3683438.9156225333
0.8777397486432454	3688217.014582554
0.8779591835804065	3692996.3080673204
0.8781786733763015	3697776.7963754516
0.8783982180446457	3694645.6245457805
0.878617817599157	3689159.7433859324
0.8788374720535569	3683672.4907557974
0.8790571814215703	3678183.8663125057
0.8792769457169257	3672693.8697131034
0.879496764953355	3669447.1071191654
0.8797166391445934	3668217.5815106337
0.8799365683043796	3666987.7485207
0.8801565524464557	3665757.6080725184
0.8803765915845676	3664527.1600892236
0.8805966857324639	3668540.157365462
0.880816834903897	3685724.893091567
0.881037039112623	3702913.9250016105
0.8812572983724012	3720107.25416963
0.8814776126969944	3737304.881669949
0.8816979821001687	3754213.936651724
0.8819184065956938	3764232.964477169
0.8821388861973429	3774254.497059581
0.8823594209188923	3784278.5350251286
0.882580010774122	3794305.0790001634
0.8828006557768155	3804334.1296111974
0.8830213559407598	3813473.5256275614
0.8832421112797452	3822390.818729735
0.8834629218075651	3831310.341155179
0.8836837875380171	3840232.0934612313
0.8839047084849018	3849156.076205362
0.884125684662023	3848981.543463902
0.8843467160831886	3841513.881083597
0.8845678027622095	3834044.3517876966
0.8847889447129001	3826572.955109471
0.8850101419490785	3819099.690582077
0.8852313944845657	3819978.0749860294
0.885452702333187	3839141.5036763395
0.8856740655087704	3858309.72322382
0.8858954840251476	3877482.7348261815
0.8861169578961539	3896660.539681435
0.886338487135628	3913999.052490407
0.886560071757412	3906801.8906828524
0.8867817117753515	3899602.929584846
0.8870034072032955	3892402.1687465613
0.8872251580550963	3885199.607718076
0.8874469643446101	3877995.246049329
0.8876688260856963	3886614.0562087684
0.8878907432922178	3898510.2020251257
0.8881127159780409	3910409.3218779294
0.8883347441570356	3922311.416510711
0.8885568278430749	3934216.4866671376
0.8887789670500358	3941138.0724255005
0.8890011617917983	3944524.1248041834
0.8892234120822464	3947911.0236959625
0.8894457179352669	3951298.769312462
0.8896680793647509	3954687.361865368
0.8898904963845921	3956244.9971994758
0.8901129690086883	3954307.8909919127
0.8903354972509405	3952370.3005077983
0.8905580811252535	3950432.225626061
0.8907807206455347	3948493.6662256066
0.8910034158256963	3945768.6934621334
0.8912261666796527	3936019.2228542604
0.8914489732213227	3926267.3148787324
0.8916718354646282	3916512.9689262016
0.8918947534234944	3906756.1843871917
0.8921177271118502	3896996.960652053
0.8923407565436284	3891511.958485656
0.8925638417327644	3886723.2248268332
0.8927869826931977	3881933.2939845943
0.8930101794388711	3877142.165659645
0.8932334319837308	3872349.8395526153
0.8934567403417267	3871057.208087081
0.8936801045268123	3871939.6461833077
0.8939035245529441	3872822.3048890578
0.8941270004340824	3873705.184259485
0.894350532184191	3874588.284349754
0.8945741198172371	3889214.648922995
0.8947977633471915	3926635.8687556335
0.8950214627880284	3964066.443893228
0.8952452181537254	4001506.3766745855
0.8954690294582639	4038955.6694391603
0.8956928967156286	4071971.843665997
0.8959168199398075	4076166.1536866166
0.8961407991447926	4080361.512284742
0.8963648343445789	4084557.9197225175
0.896588925553165	4088755.37626215
0.8968130727845534	4092953.8821659177
0.8970372760527496	4092898.4375032852
0.8972615353717629	4092310.592767515
0.8974858507556059	4091722.6010705614
0.8977102222182949	4091134.4623756832
0.8979346497738496	4090546.176646131
0.8981591334362931	4107217.0324847666
0.8983836732196523	4133330.7551673064
0.8986082691379572	4159451.0062805
0.8988329212052417	4185577.7874564724
0.8990576294355432	4211711.100327761
0.8992823938429022	4229119.715084544
0.8995072144413631	4233550.450409254
0.8997320912449734	4237982.293417794
0.8999570242677847	4242415.244387084
0.9001820135238516	4246849.303594117
0.9004070590272328	4251732.746512089
0.9006321607919896	4258967.421803906
0.9008573188321878	4266203.905764552
0.9010825331618959	4273442.198846186
0.9013078037951865	4280682.301501091
0.9015331307461353	4287924.214181655
0.9017585140288219	4298066.367197138
0.9019839536573292	4308460.705027158
0.9022094496457435	4318857.641441628
0.9024350020081551	4329257.177090214
0.9026606107586572	4339659.312622708
0.902886275911347	4352622.638572423
0.9031119974803249	4366822.623771726
0.9033377754796951	4381026.15896733
0.903563609923565	4395233.245046726
0.903789500826046	4409443.882897652
0.9040154482012526	4419020.482272478
0.904241452063303	4422591.881410924
0.9044675124263188	4426164.173399153
0.9046936293044254	4429737.35846038
0.9049198027117517	4433311.436817872
0.9051460326624297	4438149.723044562
0.9053723191705955	4448368.705235795
0.9055986622503881	4458590.242172566
0.9058250619159507	4468814.334493573
0.9060515181814298	4479040.982837665
0.9062780310609752	4489270.187843837
0.9065046005687405	4483577.982829778
0.906731226718883	4476996.003707088
0.9069579095255627	4470412.379089624
0.907184649002944	4463827.108566006
0.907411445165195	4457240.19172475
0.9076382980264862	4467828.411136945
0.907865207600993	4485552.763763796
0.9080921739028933	4503281.547478798
0.9083191969463691	4521014.763389726
0.9085462767456058	4538752.412604641
0.9087734133147922	4551477.698127402
0.9090006066681211	4558411.7009765245
0.909227856819788	4565347.437326351
0.9094551637839932	4572284.907610275
0.9096825275749393	4579224.112261767
0.9099099482068329	4586659.3376341155
0.9101374256938848	4595853.122542162
0.9103649600503083	4605049.2058964325
0.9105925512903209	4614247.58827154
0.9108201994281437	4623448.27024225
0.9110479044780008	4632651.252383442
0.9112756664541204	4642014.612039083
0.911503485370734	4651383.930884007
0.9117313612420768	4660755.592058644
0.9119592940823873	4670129.596148571
0.912187283905908	4679505.943739523
0.9124153307268845	4674662.199528979
0.9126434345595664	4664655.33147859
0.9128715954182063	4654645.961711197
0.9130998133170609	4644634.089601358
0.9133280882703902	4634619.714523492
0.913556420292458	4634937.863124687
0.9137848093975312	4645914.757490288
0.9140132555998806	4656894.396079478
0.9142417589137806	4667876.779578316
