#wavelength	surface flux
0.8	1977512.4730549569
0.8002000000000001	1982024.8621458025
0.8004000500000003	1986972.8353727178
0.8006001500125003	1991926.4340266949
0.8008003000500035	1996881.2710803356
0.8010005001250161	2001837.3468432422
0.8012007502500472	2006794.6616250821
0.8014010504376099	2010996.083982466
0.8016014007002193	2014944.9406893519
0.8018018010503944	2018894.7846104144
0.8020022515006572	2022845.615992459
0.8022027520635323	2026797.4350823457
0.8024033027515483	2030778.6265518966
0.8026039035772362	2034788.628949483
0.8028045545531306	2038799.6338476688
0.8030052556917691	2042811.6414970811
0.803206007005692	2046824.6521484023
0.8034068085074435	2051010.0126566747
0.8036076602095705	2055676.7291707925
0.8038085621246229	2060344.6123640349
0.8040095142651542	2065013.6625280788
0.8042105166437206	2069683.879954662
0.8044115692728815	2074331.4143617942
0.8046126721651998	2077954.2554514206
0.8048138253332411	2081578.0022513166
0.8050150287895745	2085202.654987916
0.805216282546772	2088828.2138876985
0.8054175866174087	2092454.679177204
0.8056189410140631	2096281.923574387
0.8058203457493168	2100166.7016611556
0.8060218008357541	2104052.4509424404
0.8062233062859632	2107939.1716610477
0.8064248621125346	2111826.864059832
0.806626468328063	2116235.594337225
0.8068281249451449	2121092.1005383967
0.8070298319763813	2125949.820866125
0.8072315894343755	2130808.7556239315
0.8074333973317341	2135668.9051154293
0.8076352556810671	2139686.8646047027
0.8078371644949874	2141675.6118204785
0.8080391237861113	2143664.8562230584
0.8082411335670578	2145654.597936738
0.8084431938504498	2147644.8370858477
0.8086453046489125	2149601.3201551684
0.8088474659750746	2150920.5509447055
0.8090496778415686	2152240.111541942
0.809251940261029	2153560.002029327
0.8094542532460944	2154880.222489335
0.8096566168094059	2156200.7730044564
0.8098590309636085	2158416.272375955
0.8100614957213493	2160841.718438232
0.8102640110952797	2163267.7708620243
0.8104665770980536	2165694.429798924
0.8106691937423283	2168121.6954005584
0.8108718610407639	2171069.5223158416
0.8110745790060241	2174415.668101387
0.8112773476507757	2177762.6504233824
0.8114801669876885	2181110.469490957
0.8116830370294355	2184459.125513297
0.8118859577886929	2187576.356792433
0.8120889292781401	2190211.9492418002
0.8122919515104597	2192848.200589279
0.8124950244983374	2195485.1109995954
0.8126981482544621	2198122.6806375133
0.8129013227915257	2200832.3842419656
0.8131045481222237	2204361.160073414
0.8133078242592543	2207890.8180988207
0.8135111512153191	2211421.358538733
0.813714529003123	2214952.7816137555
0.8139179576353739	2218485.0875445474
0.8141214371247829	2228669.9181334167
0.8143249674840641	2240147.1601120126
0.814528548725935	2251627.2714010966
0.8147321808631167	2263110.252718018
0.8149358639083326	2274596.104780265
0.8151395978743097	2282358.984144303
0.8153433827737784	2287606.4675899306
0.8155472186194719	2292855.2629064177
0.8157511054241268	2298105.370421733
0.815955043200483	2303356.790463931
0.8161590319612831	2308143.47435181
0.8163630717192736	2312077.376910104
0.8165671624872033	2316012.2629440334
0.8167713042778252	2319948.132699475
0.8169754971038948	2323884.9864223576
0.8171797409781707	2327570.998511676
0.8173840359134155	2329247.5283747003
0.8175883819223938	2330924.477370188
0.8177927790178745	2332601.845602926
0.8179972272126291	2334279.6331777223
0.8182017265194322	2335957.8401994104
0.8184062769510622	2341463.5495203184
0.8186108785203001	2347559.5666597276
0.8188155312399301	2353657.107803413
0.8190202351227402	2359756.1733323913
0.819224990181521	2365856.763627748
0.8194297964290664	2371541.7109381957
0.8196346538781738	2376976.632133591
0.8198395625416434	2382412.912059283
0.8200445224322789	2387850.5510549583
0.820249533562887	2393289.5494603813
0.8204545959462778	2398494.1793389334
0.8206597095952644	2403320.7120777983
0.8208648745226633	2408148.4514498515
0.8210700907412941	2412977.397756747
0.8212753582639793	2417807.5513002146
0.8214806771035456	2421510.250396545
0.8216860472728215	2418259.9422367862
0.8218914687846397	2415008.8214999875
0.822096941651836	2411756.887983003
0.822302465887249	2408504.1414826415
0.8225080415037209	2405250.581795653
0.8227136685140968	2411283.8955823523
0.8229193469312254	2418373.0642682314
0.8231250767679583	2425464.005246284
0.8233308580371503	2432556.718959578
0.8235366907516598	2439651.205851305
0.8237425749243477	2447160.1125509827
0.8239485105680789	2454889.6062101275
0.824154497695721	2462621.032242682
0.824360536320145	2470354.391131746
0.8245666264542252	2478089.6833605324
0.8247727681108388	2485159.5469066077
0.8249789613028664	2491275.3892041715
0.8251852060431922	2497392.7604623153
0.825391502344703	2503511.66106327
0.8255978502202894	2509632.0913893813
0.8258042496828445	2515415.2135834186
0.8260107007452654	2519554.189784831
0.8262172034204517	2523694.2007302893
0.8264237577213068	2527835.246678485
0.8266303636607373	2531977.32788817
0.8268370212516525	2536120.444618155
0.8270437305069654	2537400.75007637
0.8272504914395923	2538457.58457648
0.8274573040624523	2539514.683285216
0.8276641683884679	2540572.0462686275
0.8278710844305652	2541629.6735927863
0.8280780522016729	2545382.331985821
0.8282850717147234	2550367.7013944103
0.8284921429826521	2555354.3171453467
0.8286992660183978	2560342.179550225
0.8289064408349024	2565331.2889207006
0.8291136674451112	2569240.1528784554
0.8293209458619727	2571786.2859629267
0.8295282760984382	2574333.0555806654
0.829735658167463	2576880.461890811
0.8299430920820048	2579428.5050525316
0.8301505778550254	2582110.744062701
0.8303581154994891	2585326.7260647803
0.8305657050283641	2588543.512062364
0.8307733464546212	2591761.102256444
0.8309810397912352	2594979.496848078
0.8311887850511829	2598198.6960383533
0.8313965822474458	2606998.8365696603
0.8316044313930077	2616060.180790494
0.8318123325008561	2625123.7903473917
0.8320202855839813	2634189.6658066744
0.8322282906553774	2643257.8077348224
0.8324363477280413	2648419.882759714
0.8326444568149735	2652009.7668476985
0.8328526179291771	2655600.548406701
0.8330608310836596	2659192.2276610984
0.8332690962914304	2662784.8048353046
0.8334774135655034	2665962.71910175
0.833685782918895	2668677.2325048917
0.8338942043646247	2671392.424536383
0.834102677915716	2674108.2953658835
0.834311203585195	2676824.845163089
0.8345197813860912	2680837.3396245334
0.8347284113314379	2689210.8221008773
0.8349370934342709	2697586.3979478353
0.8351458277076294	2705964.067688745
0.8353546141645565	2714343.831847104
0.8355634528180977	2722725.690946499
0.8357723436813022	2718399.0589671945
0.8359812867672226	2713914.4019728145
0.8361902820889144	2709428.6238141875
0.8363993296594368	2704941.72421102
0.8366084294918518	2700453.7028829497
0.8368175815992247	2705400.7292583995
0.8370267859946247	2713598.9061585134
0.8372360426911234	2721799.1326028495
0.8374453517017962	2730001.409103796
0.8376547130397217	2738205.736173867
0.8378641267179816	2744266.948685486
0.8380735927496613	2748201.1145474925
0.8382831111478488	2752136.2639509626
0.8384926819256358	2756072.397141781
0.8387023050961173	2760009.514365901
0.8389119806723914	2763944.52486941
0.8391217086675596	2767871.8200417715
0.8393314890947265	2771800.097037924
0.8395413219670003	2775729.3561033253
0.8397512072974922	2779659.597483496
0.8399611450993165	2783704.048026648
0.8401711353855914	2793372.302304601
0.8403811781694378	2803042.97364612
0.8405912734639802	2812716.062655478
0.8408014212823464	2822391.5699370923
0.8410116216376671	2832069.496095526
0.8412218745430766	2840603.8413763633
0.8414321800117124	2848806.8783616354
0.8416425380567154	2857011.9661061577
0.8418529486912297	2865219.105122618
0.8420634119284025	2873428.295923826
0.8422739277813847	2879258.901718612
0.8424844962633302	2882993.5313223074
0.842695117387396	2886729.094583399
0.8429057911667428	2890465.5917353067
0.8431165176145345	2894203.0230115037
0.8433272967439382	2898016.3801402943
0.8435381285681244	2902013.6156592765
0.8437490131002665	2906011.850487137
0.8439599503535415	2910011.084873703
0.84417094034113	2914011.3190688677
0.8443819830762154	2918100.9233461595
0.8445930785719846	2923971.7717040554
0.8448042268416277	2929844.0877740374
0.8450154278983382	2935717.871923036
0.8452266817553128	2941593.1245180713
0.8454379884257517	2947469.8459262564
0.8456493479228583	2953473.5820828993
0.845860760259839	2959509.0520552397
0.846072225449904	2965546.030895073
0.8462837435062666	2971584.5189796174
0.8464953144421433	2977624.5166861867
0.8467069382707537	2982742.5400758088
0.8469186150053215	2987142.0153085273
0.847130344659073	2991542.590410055
0.8473421272452377	2995944.265655354
0.8475539627770492	3000347.041319469
0.8477658512677435	3005129.240524287
0.8479777927305605	3010715.9540257202
0.8481897871787432	3016304.0642055273
0.848401834625538	3021893.571412883
0.8486139350841944	3027484.4759970363
0.8488260885679657	3033002.8008196824
0.8490382950901076	3037620.745911064
0.8492505546638802	3042239.8454887206
0.8494628673025462	3046860.09984127
0.8496752330193721	3051481.5092574144
0.8498876518276269	3056104.0740259066
0.8501001237405839	3058755.729572577
0.8503126487715191	3061014.389251421
0.850525226933712	3063273.613595184
0.8507378582404455	3065533.4027450327
0.8509505427050057	3067793.7568421704
0.8511632803406821	3071241.050112781
0.8513760711607672	3075501.654209894
0.8515889151785576	3079763.323458038
0.8518018124073523	3084026.05812349
0.8520147628604541	3088289.858472606
0.8522277665511693	3093679.9845043453
0.8524408234928071	3101152.4899248877
0.8526539336986805	3108626.863471787
0.8528670971821053	3116103.105612074
0.8530803139564007	3123581.2168128868
0.8532935840348901	3131021.0070132744
0.8535069074308987	3138123.2276128284
0.8537202841577566	3145227.223767538
0.8539337142287962	3152332.995921287
0.8541471976573534	3159440.5445180703
0.8543607344567677	3166549.870002004
0.8545743246403821	3172886.2369121923
0.8547879682215422	3179101.1509975838
0.8550016652135977	3185317.6188114956
0.8552154156299011	3191535.6407423615
0.8554292194838088	3197755.217178715
0.8556430767886797	3203352.467231248
0.855856987557877	3208572.3123620246
0.8560709518047664	3213793.462454081
0.8562849695427177	3219015.917833662
0.8564990407851035	3224239.6788270897
0.8567131655452999	3229479.494108942
0.8569273438366862	3234744.7850052994
0.8571415756726455	3240011.392224382
0.8573558610665638	3245279.316095271
0.8575702000318304	3250548.5569471223
0.8577845925818384	3255906.666137577
0.857999038729984	3261812.990832715
0.8582135384896665	3267720.7921090256
0.858428091874289	3273630.0703356555
0.8586426988972576	3279540.8258818407
0.8588573595719821	3285453.0591169144
0.8590720739118751	3290496.974636978
0.8592868419303532	3295439.599615308
0.8595016636408359	3300383.4602498827
0.8597165390567462	3305328.5568496143
0.8599314681915105	3310274.889723497
0.8601464510585584	3314639.0129179666
0.860361487671323	3318694.5379398703
0.8605765780432408	3322751.076843029
0.8607917221877518	3326808.629880916
0.8610069201182988	3330867.197307062
0.8612221718483286	3325796.2898947285
0.8614374773912907	3307561.2785395184
0.8616528367606385	3289321.708431474
0.8618682499698288	3271077.578430891
0.8620837170323213	3252828.8873978113
0.8622992379615795	3237664.3869198835
0.8625148127710699	3237781.1492087073
0.8627304414742627	3237897.940688103
0.8629461240846313	3238014.7613653685
0.8631618606156526	3238131.611247804
0.8633776510808066	3238248.4903427097
0.8635934954935769	3267389.8941583913
0.8638093938674504	3298917.7737159855
0.8640253462159173	3330453.535243468
0.8642413525524714	3361997.180711332
0.8644574128906095	3393548.712090556
0.8646735272438323	3399074.6512665316
0.8648896956256433	3392495.682333777
0.8651059180495498	3385915.068658789
0.8653221945290621	3379332.8098303885
0.8655385250776946	3372748.9054372716
0.8657549097089641	3374863.2373766876
0.8659713484363913	3388115.8597089816
0.8661878412735006	3401371.795196865
0.866404388233819	3414631.044668619
0.8666209893308775	3427893.608952734
0.8668376445782103	3439394.125080442
0.8670543539893549	3443692.1705095503
0.8672711175778525	3447991.2904500184
0.8674879353572469	3452291.4851704673
0.8677048073410862	3456592.7549395976
0.8679217335429217	3460895.100026173
0.8681387139763074	3468055.401873377
0.8683557486548015	3475359.41637424
0.8685728375919655	3482665.2568787374
0.8687899808013633	3489972.923843345
0.8690071782965637	3497282.4177247034
0.869224430091138	3502290.659697148
0.8694417361986609	3506363.0336815063
0.8696590966327107	3510436.4257593597
0.869876511406869	3514510.8361852327
0.8700939805347206	3518586.2652137103
0.8703115040298544	3523027.8701199368
0.870529081905862	3527888.065537806
0.8707467141763385	3532749.4760045283
0.8709644008548827	3537612.1018238664
0.8711821419550964	3542475.9432996567
0.8713999374905854	3547868.175390941
0.871617787474958	3555081.2181841335
0.8718356919218269	3562296.0642380305
0.8720536508448075	3569512.714003442
0.8722716642575187	3576731.16793129
0.8724897321735832	3583951.4264726234
0.8727078546066265	3590233.4599685557
0.8729260315702784	3596502.7630312336
0.873144263078171	3602773.6334196706
0.8733625491439405	3609046.071525705
0.8735808897812266	3615320.077741269
0.8737992850036719	3619156.4471925097
0.874017734824923	3622129.8493382386
0.8742362392586293	3625103.994834503
0.874454798318444	3628078.8838671413
0.8746734120180236	3631054.5166220376
0.8748920803710283	3635068.041899415
0.875110803391121	3640124.8060889733
0.8753295810919689	3645182.834469582
0.875548413487242	3650242.127357286
0.8757673005906139	3655302.6850682115
0.8759862424157616	3661851.5023516663
0.8762052389763657	3672704.6454069293
0.8764242902861098	3683560.5017479486
0.8766433963586814	3694419.072053056
0.8768625572077712	3705280.357000743
0.8770817728470732	3716071.771271655
0.8773010432902849	3721198.551822965
0.8775203685511077	3726326.6140694204
0.8777397486432454	3731455.958331431
0.8779591835804065	3736586.584929513
0.8781786733763015	3741718.494184238
0.8783982180446457	3740121.6070220997
0.878617817599157	3736522.2478132243
0.8788374720535569	3732921.9887645487
0.8790571814215703	3729320.8296511113
0.8792769457169257	3725718.7702478957
0.879496764953355	3724241.5154110626
0.8797166391445934	3724675.039747369
0.8799365683043796	3725108.67246476
0.8801565524464557	3725542.4135903297
0.8803765915845676	3725976.2631511814
0.8805966857324639	3730622.1081697773
0.880816834903897	3745848.1121099475
0.881037039112623	3761077.922551109
0.8812572983724012	3776311.5404448793
0.8814776126969944	3791548.96674313
0.8816979821001687	3806563.3187450133
0.8819184065956938	3816240.544955994
0.8821388861973429	3825920.190473538
0.8823594209188923	3835602.2559024515
0.882580010774122	3845286.7418477177
0.8828006557768155	3854973.648914476
0.8830213559407598	3863612.1846642406
0.8832421112797452	3871988.5949311387
0.8834629218075651	3880367.0993005987
0.8836837875380171	3888747.6982961535
0.8839047084849018	3897130.392441458
0.884125684662023	3897817.100327571
0.8843467160831886	3892334.9503797786
0.8845678027622095	3886851.4298944995
0.8847889447129001	3881366.5385290976
0.8850101419490785	3875880.275940856
0.8852313944845657	3877415.3612269126
0.885452702333187	3894322.7017971016
0.8856740655087704	3911234.269202431
0.8858954840251476	3928150.0644996073
0.8861169578961539	3945070.0887455996
0.886338487135628	3960530.558271944
0.886560071757412	3956515.714064772
0.8867817117753515	3952499.8661465473
0.8870034072032955	3948483.0142663415
0.8872251580550963	3944465.1581731704
0.8874469643446101	3940446.2976159737
0.8876688260856963	3947831.474828992
0.8878907432922178	3957578.9180428153
0.8881127159780409	3967328.798117435
0.8883347441570356	3977081.115662086
0.8885568278430749	3986835.871286112
0.8887789670500358	3993052.013840467
0.8890011617917983	3996757.781638686
0.8892234120822464	4000464.4758788557
0.8894457179352669	4004172.0967925824
0.8896680793647509	4007880.6446115407
0.8898904963845921	4010152.364158138
0.8901129690086883	4009681.3764677695
0.8903354972509405	4009210.2710304786
0.8905580811252535	4008739.047816828
0.8907807206455347	4008267.7067973744
0.8910034158256963	4007153.5877682716
0.8912261666796527	4000295.75945189
0.8914489732213227	3993436.216678428
0.8916718354646282	3986574.9590192656
0.8918947534234944	3979711.986045695
0.8921177271118502	3972847.297328885
0.8923407565436284	3971484.5894704955
0.8925638417327644	3971019.343573404
0.8927869826931977	3970553.9813648383
0.8930101794388711	3970088.5028157206
0.8932334319837308	3969622.9078969653
0.8934567403417267	3970669.7576070097
0.8936801045268123	3972656.7476569093
0.8939035245529441	3974644.23445432
0.8941270004340824	3976632.2181234304
0.894350532184191	3978620.698788458
0.8945741198172371	3991388.406950706
0.8947977633471915	4022034.545643282
0.8950214627880284	4052688.3458705298
0.8952452181537254	4083349.809547816
0.8954690294582639	4114018.93859104
0.8956928967156286	4141127.2865900625
0.8959168199398075	4145084.453219827
0.8961407991447926	4149042.609141249
0.8963648343445789	4153001.7546016523
0.896588925553165	4156961.889848418
0.8968130727845534	4160923.015128996
0.8970372760527496	4160875.2663315767
0.8972615353717629	4160325.790814347
0.8974858507556059	4159776.177928238
0.8977102222182949	4159226.427638908
0.8979346497738496	4158676.539912005
0.8981591334362931	4172679.6682592905
0.8983836732196523	4194645.074866802
0.8986082691379572	4216615.972825953
0.8988329212052417	4238592.363509592
0.8990576294355432	4260574.248290922
0.8992823938429022	4275635.737530043
0.8995072144413631	4280403.072350483
0.8997320912449734	4285171.599004627
0.8999570242677847	4289941.317790433
0.9001820135238516	4294712.229005936
0.9004070590272328	4299809.734770287
0.9006321607919896	4306614.382272081
0.9008573188321878	4313420.730935759
0.9010825331618959	4320228.781186598
0.9013078037951865	4327038.533450002
0.9015331307461353	4333849.988151468
0.9017585140288219	4342956.862952492
0.9019839536573292	4352263.578283052
0.9022094496457435	4361572.620292437
0.9024350020081551	4370883.989562336
0.9026606107586572	4380197.686674549
0.902886275911347	4391706.003547797
0.9031119974803249	4404274.034522175
0.9033377754796951	4416845.207504298
0.903563609923565	4429419.523279659
0.903789500826046	4441996.9826339735
0.9040154482012526	4450808.2695171805
0.904241452063303	4454738.938377926
0.9044675124263188	4458670.589905885
0.9046936293044254	4462603.224346725
0.9049198027117517	4466536.841946178
0.9051460326624297	4471506.882571485
0.9053723191705955	4480887.308495598
0.9055986622503881	4490270.079526184
0.9058250619159507	4499655.196249529
0.9060515181814298	4509042.65925206
0.9062780310609752	4518432.469120334
0.9065046005687405	4515164.689847856
0.906731226718883	4511189.833197346
0.9069579095255627	4507213.9828326795
0.907184649002944	4503237.138505422
0.907411445165195	4499259.299967078
0.9076382980264862	4508695.444609029
0.907865207600993	4523705.163655302
0.9080921739028933	4538718.63513133
0.9083191969463691	4553735.859975226
0.9085462767456058	4568756.839125341
0.9087734133147922	4580092.747069178
0.9090006066681211	4587170.848715171
0.909227856819788	4594250.7198865665
0.9094551637839932	4601332.361025764
0.9096825275749393	4608415.772575244
0.9099099482068329	4615834.657255043
0.9101374256938848	4624441.380336307
0.9103649600503083	4633050.255098336
0.9105925512903209	4641661.282079056
0.9108201994281437	4650274.461816529
0.9110479044780008	4658889.794848926
0.9112756664541204	4667563.168890142
0.911503485370734	4676239.990522462
0.9117313612420768	4684918.981360191
0.9119592940823873	4693600.141945626
0.912187283905908	4702283.47282121
0.9124153307268845	4699591.508685709
0.9126434345595664	4692769.516488606
0.9128715954182063	4685945.81879346
0.9130998133170609	4679120.415173886
0.9133280882703902	4672293.305203409
0.913556420292458	4673831.457795943
0.9137848093975312	4683998.973949113
0.9140132555998806	4694169.031981321
0.9142417589137806	4704341.632528037
