#wavelength	surface flux
0.676892	1112794.322891213
0.678297	1131586.3391643774
0.679702	1138881.968227702
0.681109	1149080.504023039
0.682517	1184124.8556980377
0.683926	1212252.6245450748
0.685337	1232757.184150425
0.686749	1253929.9782526526
0.688164	1272493.2530790858
0.689581	1290576.4376146332
0.691	1292558.3719349469
0.692422	1309753.5783230085
0.693847	1351273.664562655
0.695274	1385201.1406893202
0.696705	1409540.8862204822
0.698139	1431970.538225386
0.699576	1455247.764606411
0.701017	1478644.5666683621
0.702461	1500260.3553784762
0.70391	1525865.6314632634
0.705362	1552326.091818845
0.706819	1576229.741405216
0.70828	1600725.183865442
0.709745	1625495.8508145106
0.711216	1652208.6260926195
0.71269	1678005.0582515188
0.71417	1703412.4935426475
0.715655	1724643.4857869998
0.717145	1742585.6875121668
0.71864	1775208.8594523203
0.72014	1803389.0878955198
0.721647	1829367.100962242
0.723158	1856105.1365178467
0.724676	1881906.6516149293
0.726199	1908650.0636217406
0.727728	1939219.5558980305
0.729264	1961803.5954586298
0.730805	1991060.1687328492
0.732353	2025656.4702637247
0.733907	2053689.1024015923
0.735468	2082543.8530982556
0.737035	2110559.921477587
0.738609	2143246.64409012
0.74019	2173281.484230446
0.741777	2196192.786361207
0.743372	2222347.142437666
0.744973	2248106.217118277
0.746582	2269238.473669708
0.748197	2288108.0805029203
0.74982	2300788.3945438876
0.751451	2304602.5508373245
0.753088	2294865.0892398395
0.754734	2267540.917865541
0.756386	2211408.5584394303
0.758047	2104042.5477057267
0.759715	1916627.3765872074
0.76139	1587527.061671744
0.763074	1019397.4715346941
0.764765	377117.14852789603
0.766464	56361.624569048254
0.768172	81694.8681089749
0.769887	97787.01724421915
0.77161	617906.5694007071
0.773341	1467125.088129761
0.775081	2042995.8909706124
0.776829	2402636.06012174
0.778585	2569842.6187891485
0.780349	2661081.1219687886
0.782121	2913583.099371617
0.783902	3065901.4308571224
0.785691	3167820.756919578
0.787489	3256409.299389463
0.789295	3334065.335797898
0.79111	3398992.094697766
0.792933	3216250.096606962
0.794764	2223197.2202956807
0.796604	3271175.140045555
0.798453	3675539.212182033
0.80031	3744783.3614323824
0.802176	3810104.304542018
0.804051	3873333.6388532836
0.805934	3933569.7489290773
0.807826	3990990.362882448
0.809727	4030491.0058082854
0.811636	4076803.534791899
0.813554	4139993.8643207806
0.81548	4236892.136679252
0.817416	4305164.062493093
0.81936	4368737.926457972
0.821313	4438893.627899213
0.823274	4491098.351740287
0.825244	4582648.956616578
0.827223	4650339.16953091
0.829211	4706364.955969454
0.831208	4773462.404077088
0.833213	4856949.7693778705
0.835227	4924146.669921023
0.837249	4976423.812319915
0.83928	5051228.887766802
0.841321	5152371.337538624
0.843369	5242637.951925772
0.845427	5320469.042609785
0.847493	5404019.147175864
0.849567	5481158.145079753
0.851651	5551303.079025601
0.853742	5643816.793257842
0.855843	5738466.907326147
0.857952	5825235.856317561
0.86007	5900303.976775362
0.862196	5814420.704032876
0.864331	5937475.12477967
0.866474	6070571.417983264
0.868626	6175161.698346551
0.870786	6250940.355533236
0.872955	6347328.521141664
0.875132	6435560.379104124
0.877317	6548463.970380221
0.879511	6580219.166143553
0.881713	6692242.991982898
0.883923	6826428.195855745
0.886142	6907456.617596086
0.888369	6987134.556379653
0.890604	7031302.1208934905
0.892847	7034024.910383173
0.895099	7180822.075874923
0.897358	7334618.234945578
0.899626	7467950.275307606
0.901901	7592338.499878835
0.904185	7731077.956001678
0.906476	7829487.315870463
0.908776	7934677.814624961
0.911083	8063373.945237504
0.913398	8127975.715097294
0.915721	8184864.155117692
0.918051	8236821.329671013
0.92039	8443901.256722929
0.922736	8533860.914670136
0.925089	8413652.580551092
0.927451	8011164.917704825
0.929819	7534888.786952494
0.932195	8067526.3161959965
0.934579	8148817.217943665
0.93697	8420661.675663486
0.939369	8799742.40847133
0.941774	8934866.149042407
0.944187	8660133.567660524
0.946607	8633517.123304173
0.949035	9062952.75907876
0.951469	9039561.997844573
0.953911	9253603.419531532
0.956359	9713893.89024823
0.958814	9307691.072019998
0.961277	9153633.973778589
0.963746	9298339.445220843
0.966222	9472747.880848436
0.968705	9476622.492481815
0.971194	10206442.661540244
0.97369	10639081.607564077
0.976193	10617200.554050416
0.978702	10883446.076362824
0.981217	11032835.707975378
0.983739	11201714.666898329
0.986268	11356029.42061708
0.988802	11553209.25115074
0.991343	11714167.133708827
0.99389	11875350.66118735
0.996444	12127189.784870438
0.999003	12244819.330959614
1.00157	12331091.759731695
1.00414	12475834.221428119
1.00672	12688514.030020788
1.0093	12900909.979857614
1.01189	13078993.421723941
1.01448	13288737.713122604
1.01708	13494962.028607728
1.01969	13677064.692442242
1.0223	13761897.329171669
1.02492	13796336.468963962
1.02754	13993973.26855169
1.03017	14043233.645793485
1.0328	14421009.067745188
1.03544	14630857.711032487
1.03808	14791935.461820902
1.04073	14948993.026006803
1.04339	15104878.032818003
1.04604	15270018.501698984
1.04871	15401126.018238926
1.05138	15534223.011534108
1.05405	15738891.44620892
1.05673	15926187.049062144
1.05941	16079766.55473336
1.0621	16227648.913181769
1.06479	16392973.664477322
1.06749	16555968.868820949
1.07019	16677432.024483496
1.07289	16856890.808429286
1.0756	17035512.52961092
1.07832	17178515.184173822
1.08104	17360888.04731131
1.08376	17523654.548333425
1.08649	17646653.846366983
1.08922	17674258.690927774
1.09195	17648109.694963686
1.09469	17688790.112430457
1.09743	17848264.002426784
1.10018	16707638.033091133
1.10293	15590477.7889006
1.10568	14826094.852684854
1.10844	16539566.270210685
1.1112	16031782.448004732
1.11396	15376145.524066685
1.11673	15417960.37836159
1.1195	15780329.397213649
1.12228	15150802.800082397
1.12505	16818539.971033126
1.12783	16954053.133662403
1.13062	16826701.342683643
1.13341	13912975.363690114
1.1362	15782387.76725903
1.13899	18150137.019263595
1.14178	17912097.8267943
1.14458	18533565.246279765
1.14738	19335566.579531115
1.15019	17599780.794054326
1.153	14773989.689567992
1.1558	15944930.348856777
1.15862	16141609.699601762
1.16143	16340968.190957667
1.16425	17884570.872409925
1.16707	19433928.346180063
1.16989	18559982.996275965
1.17271	18938351.35578778
1.17554	20305307.961988237
1.17837	21214376.04229185
1.1812	21586151.746211417
1.18403	22450106.331789196
1.18686	22422659.901668616
1.1897	22460938.193018608
1.19253	23244485.016401365
1.19537	23642311.734140586
1.19822	23845902.588017516
1.20106	24187527.747834973
1.2039	24132615.10729159
1.20675	24439549.89278152
1.2096	24625055.375945926
1.21245	24737177.536970712
1.2153	25186647.64983987
1.21815	25451123.17415723
1.221	25672239.68958207
1.22385	25913917.334027298
1.22671	26157756.076210186
1.22957	26351023.661965705
1.23242	26490746.398876864
1.23528	26713837.699972324
1.23814	26939593.56394786
1.241	27121390.807596292
1.24387	27312253.178538732
1.24673	27495066.736502327
1.24959	27593592.29480642
1.25245	27495569.964826364
1.25532	27966442.453499842
1.25818	28225528.24805329
1.26105	28306741.72635635
1.26392	28410810.800433174
1.26678	28578766.347525496
1.26965	28715141.904377013
1.27252	28786644.74710053
1.27538	29055832.82742038
1.27825	29189005.72358581
1.28112	29190375.733547397
1.28399	29434914.694661707
1.28686	29487100.21208819
1.28973	29330355.61104411
1.2926	29316092.801375102
1.29546	29673487.274290413
1.29833	29918083.527868975
1.3012	29655484.233644795
1.30407	29696551.821732562
1.30694	29729054.634876836
1.30981	30197958.39163899
1.31267	30139876.111832477
1.31554	30597973.277060274
1.31841	30922921.46432723
1.32128	30405681.24142758
1.32414	29401946.052589886
1.32701	28866881.154044922
1.32987	27286845.55839598
1.33274	21618725.835600894
1.3356	17360016.08766648
1.33847	10353159.252751827
1.34133	6557639.506737233
1.34419	10642875.20743442
1.34705	13362020.496295255
1.34991	10995619.856753243
1.35277	7246105.83292665
1.35563	6942711.863332401
1.35849	8964341.322069122
1.36135	6535728.469605332
1.3642	9307837.194606133
1.36706	10308059.013426123
1.36991	9809001.50451864
1.37277	14539916.06768919
1.37562	18746657.258947916
1.37847	19698534.170204323
1.38132	11713261.110913364
1.38417	5188571.868454101
1.38701	7646881.986072015
1.38986	6718945.22394023
1.39271	6617139.740374138
1.39555	8215779.682895866
1.39839	6429307.143572733
1.40123	8919581.594447937
1.40407	13699227.717955124
1.40691	16377061.697993172
1.40974	11610898.523653535
1.41258	5922341.758923197
1.41541	9405857.78619572
1.41824	11899473.857075853
1.42107	9553078.353974257
1.4239	7115474.97435564
1.42673	10821934.45820364
1.42955	14017379.434680995
1.43237	9576816.754113523
1.43519	11664513.260622598
1.43801	10477221.230968164
1.44083	11970235.952612147
1.44365	15957927.480001917
1.44646	16177381.534760028
1.44927	20637442.546200927
1.45208	22861610.522375185
1.45489	20443734.040139783
1.45769	22678495.389878407
1.4605	23927346.7187159
1.4633	24066948.21902784
1.4661	25030066.30294664
1.4689	22334435.144001067
1.47169	23034714.448270943
1.47449	23206260.212180912
1.47728	24028832.773504734
1.48007	23751673.57815369
1.48286	26318798.404782716
1.48564	28497174.484238528
1.48842	28021013.57045907
1.4912	28255982.968321066
1.49398	28096809.28413978
1.49676	27407039.949370515
1.49953	29658168.83858068
1.5023	31586530.8344026
1.50507	31647019.460831366
1.50784	30826805.618904207
1.51061	30964789.207510073
1.51337	31763613.850054238
1.51613	32715197.57316207
1.51888	33942815.207074374
1.52164	35827389.615910806
1.52439	36617370.71218771
1.52714	35805415.4272886
1.52989	35587629.37953313
1.53263	36424977.86308204
1.53538	37471603.30482963
1.53812	37594726.045857474
1.54086	37449883.032623254
1.54359	37686360.662787326
1.54632	38508404.33905986
1.54905	38700980.90567858
1.55178	39354801.567341164
1.5545	39286950.419677064
1.55723	38762783.03196551
1.55995	38810163.31801442
1.56266	39408969.34710549
1.56538	40411102.14903365
1.56809	40945629.304495305
1.5708	40983883.53379063
1.57351	40644208.53542292
1.57621	40397811.55330484
1.57891	39754584.30254229
1.58161	40579462.01241979
1.5843	41970759.94840112
1.587	42253963.59087193
1.58969	42262363.54717242
1.59238	42380070.84630401
1.59506	42288856.75308348
1.59774	42121769.03690159
1.60042	42262207.726660945
1.6031	42630987.98611875
1.60577	42893882.58249919
1.60844	43027407.88344665
1.61111	42995710.33815451
1.61378	42945832.89514912
1.61644	43177744.24869027
1.6191	43161993.26422598
1.62176	43217752.81792023
1.62441	43756950.459209554
1.62707	43943928.53122336
1.62971	43813451.60821026
1.63236	43703878.800146736
1.635	44177440.01406125
1.63764	44743054.31978895
1.64028	44917559.53778617
1.64292	45012939.8245505
1.64555	45080861.32822258
1.64818	44895519.43699169
1.65081	44798168.932715565
1.65343	45022449.21377963
1.65605	45197658.442100264
1.65867	45124317.32249451
1.66128	44885555.32888144
1.6639	44587020.08595736
1.66651	43793597.41211929
1.66911	43457947.2896922
1.67172	44567211.71193737
1.67432	45658125.046712935
1.67692	45828705.656677015
1.67951	45787425.48692522
1.68211	45901983.12872678
1.6847	46022679.44745933
1.68728	45979643.28088784
1.68987	45612235.4701074
1.69245	44847283.997845106
1.69503	43963083.78140345
1.6976	43755999.5219692
1.70018	44666906.828414924
1.70275	44957000.627932146
1.70531	44719734.16044807
1.70788	44587008.028173655
1.71044	44240418.27379055
1.713	44013117.066202
1.71556	44022710.68865899
1.71811	44557667.18580366
1.72066	44792656.41581221
1.72321	44448660.38164913
1.72575	44280778.187742285
1.7283	43750794.87513353
1.73084	42698262.89865178
1.73337	41568069.25294994
1.73591	40646262.0753278
1.73844	40061124.588887855
1.74097	39754504.05813367
1.74349	38362192.224428095
1.74602	36660744.153554335
1.74854	35842494.16183959
1.75105	34073996.54980204
1.75357	31438790.409425538
1.75608	33270870.036258847
1.75859	38048375.58886678
1.7611	40420889.074996226
1.7636	39986407.78562674
1.7661	36086551.24938712
1.7686	31984081.89668758
1.7711	28608537.07929156
1.77359	24644405.407135453
1.77608	19160971.683005117
1.77857	16297906.196218992
1.78105	18167018.8270874
1.78354	20004068.592904836
1.78602	17211392.888910018
1.78849	15115270.241938656
1.79097	17253720.57371992
1.79344	19762122.1210036
1.79591	20541817.382734183
1.79837	21329386.929305233
1.80084	16208336.586267753
1.8033	12466537.224958632
1.80576	8266917.128004775
1.80821	6334748.517485746
1.81067	10891948.188009005
1.81312	15579652.189357823
1.81557	11243080.678382223
1.81801	7899747.028289002
1.82046	12102293.622735273
1.8229	16878786.038279153
1.82533	13456974.338490075
1.82777	7683387.423472948
1.8302	7299062.995177278
1.83263	10373195.008088855
1.83506	13126587.47950181
1.83749	15928447.448221294
1.83991	18054941.021730606
1.84233	16656950.767740658
1.84475	15755764.612164991
1.84716	16216292.821320552
1.84957	16653829.948196452
1.85198	14435993.728088591
1.85439	9190900.215976672
1.8568	8336467.29055046
1.8592	10154470.416486083
1.8616	8801577.128682332
1.864	6818622.055855869
1.86639	7928965.556647852
1.86878	10823150.854895977
1.87118	13895181.744646551
1.87356	16719853.26392742
1.87595	17691909.95920776
1.87833	19586174.68631376
1.88071	23627416.85139168
1.88309	22922060.316361874
1.88547	20073216.158508163
1.88784	19985223.785089344
1.89021	19565368.828037832
1.89258	23941595.720813986
1.89494	26934832.765598882
1.89731	21675407.22032318
1.89967	14622580.89705138
1.90203	9876374.58295225
1.90439	9276616.893632963
1.90674	12358322.712451324
1.90909	13550208.070611991
1.91144	10400351.528865436
1.91379	6780577.584667378
1.91613	6264354.689865477
1.91848	8411765.275446802
1.92082	10866296.735395644
1.92315	10507999.145591099
1.92549	8508815.40398748
1.92782	9336877.770061698
1.93015	11735602.004291829
1.93248	13305862.194890523
1.93481	13340773.967709368
1.93713	11937422.405019907
1.93945	11036140.869595107
1.94177	11871590.000849536
1.94409	12822540.393042259
1.94641	12661065.682683388
1.94872	13346920.123766206
1.95103	14746539.564223204
1.95334	11542301.42039246
1.95564	9895757.498782912
1.95795	11317764.645489559
1.96025	11935744.155499011
1.96255	12039219.94987356
1.96484	12908564.50487622
1.96714	15316303.554083541
1.96943	18397569.270307742
1.97172	19839997.039025914
1.97401	18546472.489127696
1.97629	19179859.72687786
1.97858	21876160.2600923
1.98086	23425539.213916104
1.98314	24992303.534851708
1.98541	25933244.254744664
1.98769	24650441.332948793
1.98996	21441439.51805083
1.99223	20575660.41902834
1.9945	22312956.756038994
1.99677	21675909.19727542
1.99903	21506639.635313634
2.00129	24083307.321511008
2.00355	27522086.973615214
2.00581	29076225.12058167
2.00806	29062465.00216712
2.01031	31731063.962070573
2.01256	33450934.63231756
2.01481	32114917.05459032
2.01706	30063499.98591428
2.0193	29819705.85872184
2.02154	32116578.855991706
2.02378	34904692.816561535
2.02602	35817987.51040711
2.02825	36475123.80426801
2.03049	37301176.9330506
2.03272	38345452.890412435
2.03494	39362887.648253284
2.03717	39963394.716869906
2.03939	40284899.90317076
2.04162	41324911.00782741
2.04384	42193000.003285386
2.04605	43157262.892329514
2.04827	44172083.026318885
2.05048	44453488.481985144
2.05269	43226698.33712909
2.0549	42879446.91630361
2.05711	43384587.23148099
2.05931	44258619.82123324
2.06151	45014526.66270524
2.06371	45637253.31558596
2.06591	46110162.874817386
2.06811	46471892.43392799
2.0703	46617487.20342117
2.07249	46497387.7717654
2.07468	46149211.414481856
2.07686	46178716.07520622
2.07905	46440190.49748261
2.08123	46754701.4650566
2.08341	47042836.86107738
2.08559	47334113.626458734
2.08776	47516227.931045786
2.08994	47442937.05997347
2.09211	47236290.860681005
2.09428	47080997.378180645
2.09645	47296520.19112215
2.09861	47426949.82688022
2.10077	47441189.12804017
2.10293	47339022.984701574
2.10509	47153180.556441456
2.10725	47060437.506867595
2.1094	47580720.49307619
2.11155	48122578.64824748
2.1137	48417831.3245915
2.11585	48240559.86933371
2.11799	48108713.189371176
2.12013	48209537.42875126
2.12227	48437416.9947862
2.12441	48677132.60568526
2.12655	48731522.061486825
2.12868	48741379.35983822
2.13081	48793687.615567155
2.13294	48888598.56410575
2.13507	48868349.06742329
2.13719	48661967.00382146
2.13931	48492789.63103751
2.14143	48416237.642224826
2.14355	48441450.65451311
2.14567	48436460.59981377
2.14778	48380747.192856506
2.14989	48270187.859468795
2.152	48100068.89849164
2.1541	48110071.692098856
2.15621	48208680.6952452
2.15831	48330495.16397914
2.16041	48321445.287130706
2.16251	48327986.364718296
2.1646	48305572.54947784
2.1667	48245691.76211666
2.16879	48158394.1670629
2.17087	47977466.19976241
2.17296	47747713.08985454
2.17504	47501537.22463231
2.17713	47503715.99025992
2.1792	47643386.33830121
2.18128	47810064.31079707
2.18336	47885151.645730175
2.18543	47830274.8499459
2.1875	47758926.4029025
2.18957	47633155.0349433
2.19163	47250666.87083663
2.1937	46407259.44041764
2.19576	45411231.959145285
2.19782	44383743.453240134
2.19987	44034627.38434661
2.20193	43889659.48860071
2.20398	43895901.33968362
2.20603	43952121.921993054
2.20808	44227339.42841374
2.21012	44566393.97707183
2.21217	44900815.58038253
2.21421	44919516.92790695
2.21625	44766746.01004935
2.21828	44492516.79942503
2.22032	44481536.12701122
2.22235	44462127.862124115
2.22438	44329844.48292487
2.22641	43806156.80677017
2.22843	43233188.413000815
2.23046	42750936.49165939
2.23248	42485385.720413595
2.2345	42510820.20468247
2.23651	42522056.402217604
2.23853	42469519.873627886
2.24054	41674198.62316751
2.24255	40668207.81298707
2.24456	39536409.20518153
2.24657	39294660.5784892
2.24857	39631312.482277565
2.25057	40343480.81050981
2.25257	40928297.64804494
2.25457	41314478.130923145
2.25656	41560801.58579274
2.25856	41661014.02442839
2.26055	41145583.84761476
2.26254	40231394.134181365
2.26453	38850315.15603733
2.26651	37907238.445457466
2.2685	37382503.76532958
2.27048	37777615.41334959
2.27246	38521541.57715374
2.27443	39261725.47033564
2.27641	39405902.88825683
2.27838	38905295.13305114
2.28036	38158345.86203246
2.28233	37663022.66129538
2.28429	37566318.93427306
2.28626	37599407.773699544
2.28823	37150875.82937793
2.29019	35693666.022084214
2.29215	33484238.870765653
2.29411	30015418.65763133
2.29607	26586775.39834069
2.29802	23213857.78770728
2.29998	20795664.9007829
2.30193	18811839.01936837
2.30388	17310332.322752368
2.30583	16331891.347840173
2.30778	15789679.73573105
2.30972	15912189.558038441
2.31167	16464564.695523776
2.31361	16829964.699011132
2.31555	16354531.152912969
2.31749	15579226.66411303
2.31943	14738030.833980292
2.32137	14381187.883200884
2.32331	14216231.723711552
2.32524	14204136.972539196
2.32718	14349784.051390149
2.32911	14642216.708888428
2.33104	15143991.619059963
2.33297	15816705.33607999
2.3349	16551942.543174163
2.33683	17367854.186423015
2.33876	18274896.90193886
2.34068	19246923.050567802
2.34261	20564311.051768184
2.34453	21870275.604243234
2.34646	23177804.298746694
2.34838	23198850.190583546
2.3503	22824662.235567626
2.35223	21873651.03623785
2.35415	21066905.561308384
2.35607	20376461.93127685
2.35799	20409812.61079764
2.35991	21049379.104659855
2.36183	22420585.37445058
2.36375	22686767.712670103
2.36566	22204330.1876246
2.36758	19838349.960237693
2.3695	18938550.943234622
2.37142	18978611.676477894
2.37334	20649338.224372197
2.37526	20886885.51935102
2.37718	18721571.53054513
2.3791	16771550.310512397
2.38101	15284015.6689508
2.38293	16585777.353053877
2.38485	18842704.95095182
2.38677	22074907.2187239
2.3887	24606165.862740006
2.39062	26395352.968845498
2.39254	26263452.24263096
2.39446	24551059.782362536
2.39639	21811336.135828644
2.39831	19547361.398659106
2.40024	17816995.258381236
2.40216	17097490.21199981
2.40409	17126641.656975575
2.40602	17502436.68206448
2.40795	18342118.877535086
2.40989	19008868.11311983
2.41182	19455265.9010799
2.41376	19875100.875054087
2.4157	20380158.434931368
2.41764	21288124.211052693
2.41958	21962734.27638968
2.42152	22447606.52080867
2.42347	22072089.309338324
