#wavelength	surface flux
0.7	5761726.498140129
0.7001166666666666	5770536.444801757
0.7002333527777778	5776640.88548979
0.700350058336574	5782746.343584601
0.7004667833462966	5788852.8192557525
0.7005835278101878	5794960.3126728665
0.7007002917314895	5801068.82400554
0.7008170751134447	5807178.353423435
0.7009338779592968	5813288.901096231
0.7010507002722901	5818792.284321013
0.7011675420556689	5823556.466654102
0.701284403312678	5828321.443017573
0.7014012840465635	5833087.213543777
0.7015181842605713	5837853.778365069
0.701635103957948	5842621.137613827
0.701752043141941	5847389.291422459
0.701869001815798	5852158.2399234
0.7019859799827672	5854745.688129117
0.7021029776460976	5855814.813052803
0.7022199948090387	5856884.116163977
0.7023370314748403	5857953.597492336
0.7024540876467528	5859023.2570675835
0.702571163328027	5860093.094919425
0.7026882585219152	5861163.111077578
0.7028053732316688	5862233.305571755
0.7029225074605406	5867820.532478823
0.7030396612117841	5875152.855086202
0.7031568344886527	5882486.399747349
0.7032740272944008	5889821.166665936
0.7033912396322832	5897157.15604568
0.7035084715055552	5904494.368090313
0.7036257229174727	5911832.803003622
0.7037429938712924	5919172.460989425
0.7038602843702709	5927561.7404220225
0.7039775944176659	5936130.234069573
0.7040949240167356	5944700.1557994
0.7042122731707383	5953271.505849511
0.7043296418829335	5961844.284457969
0.7044470301565806	5970418.49186286
0.70456443799494	5978994.1283023115
0.7046818654012724	5987571.194014509
0.7047993123788394	5994145.907850578
0.7049167789309024	6000719.41804421
0.7050342650607243	6007294.023822884
0.7051517707715678	6013869.725369185
0.7052692960666963	6020446.522865741
0.705386840949374	6027024.416495209
0.7055044054228656	6033603.406440293
0.7056219894904361	6039933.194053759
0.7057395931553511	6044673.414213084
0.705857216420877	6049414.424409106
0.7059748592902804	6054156.224773492
0.7060925217668288	6058898.815437943
0.70621020385379	6063642.19653417
0.7063279055544321	6068386.368193908
0.7064456268720246	6073131.330548929
0.7065633678098366	6078398.460961032
0.7066811283711383	6085102.3516804315
0.7067989085592001	6091807.359714951
0.7069167083772933	6098513.485250806
0.7070345278286895	6105220.728474255
0.707152366916661	6111929.089571576
0.7072702256444803	6118638.568729071
0.7073881040154211	6125349.166133102
0.7075060020327569	6131675.421537031
0.7076239196997625	6137441.367031044
0.7077418570197124	6143208.273515968
0.7078598139958823	6148976.141151971
0.7079777906315483	6154744.970099253
0.7080957869299869	6160514.760518021
0.7082138028944751	6166285.512568523
0.7083318385282908	6172057.226411038
0.7084498938347124	6178189.015296205
0.708567968817018	6184626.289561971
0.7086860634784875	6191064.636706789
0.7088041778224007	6197504.056909469
0.7089223118520377	6203944.550348842
0.7090404655706796	6210386.117203783
0.709158638981608	6216828.757653209
0.709276832088105	6223272.471876044
0.7093950448934531	6229574.281553913
0.7095132774009353	6235808.953545555
0.7096315296138355	6242044.664649199
0.7097498015354378	6248281.415038024
0.7098680931690269	6254519.204885242
0.7099864045178884	6260758.034364109
0.7101047355853081	6266997.9036478875
0.7102230863745722	6273238.812909876
0.7103414568889679	6278272.199107798
0.7104598471317828	6283031.810167079
0.7105782571063047	6287792.214494866
0.7106966868158224	6292553.4122233745
0.710815136263625	6297315.403484836
0.7109336054530023	6302078.1884115115
0.7110520943872445	6306841.767135672
0.7111706030696424	6311606.139789624
0.7112891315034873	6317503.887985344
0.7114076796920712	6323456.657863289
0.7115262476386865	6329410.419869549
0.7116448353466263	6335365.174169471
0.711763442819184	6341320.920928446
0.711882070059654	6347277.660311886
0.7120007170713306	6353235.39248522
0.7121193838575091	6359341.269120658
0.7122380704214853	6366982.915950657
0.7123567767665555	6374625.836388454
0.7124755028960166	6382270.030646327
0.7125942488131658	6389915.498936571
0.7127130145213015	6397562.24147155
0.7128318000237216	6405210.258463596
0.7129506053237256	6412859.550125151
0.7130694304246129	6420058.2502382705
0.7131882753296837	6425678.265910095
0.7133071400422386	6431299.218251199
0.7134260245655789	6436921.107417691
0.7135449289030065	6442543.933565712
0.7136638530578235	6448167.69685142
0.7137827970333332	6453792.397431019
0.7139017608328388	6459418.035460712
0.7140207444596443	6465338.068917223
0.7141397479170543	6471782.588672531
0.7142587712083737	6478228.182514455
0.7143778143369084	6484674.850622025
0.7144968773059646	6491122.5931742815
0.7146159601188489	6497571.410350294
0.7147350627788687	6504021.30232917
0.7148541852893318	6510472.269290038
0.7149733276535467	6517092.786975674
0.7150924898748222	6523884.295073603
0.715211671956468	6530676.93508955
0.7153308739017941	6537470.707212171
0.715450095714111	6544265.611630143
0.71556933739673	6551061.648532185
0.7156885989529628	6557858.818107043
0.7158078803861218	6564657.120543507
0.7159271816995193	6567682.881989072
0.7160465028964692	6568494.23649969
0.7161658439802853	6569305.726236061
0.7162852049542819	6570117.351220721
0.7164045858217744	6570929.111476213
0.716523986586078	6571741.00702508
0.7166434072505089	6572553.037889871
0.716762847818384	6573365.20409314
0.7168823082930204	6576649.360504426
0.7170017886777359	6580661.273451881
0.7171212889758488	6584673.8550514905
0.7172408091906781	6588687.105414701
0.7173603493255433	6592701.024652973
0.7174799093837642	6596715.612877783
0.7175994893686615	6600730.870200632
0.7177190892835562	6604746.796733033
0.7178387091317702	6616872.240513218
0.7179583489166254	6629813.694646919
0.7180780086414448	6642757.305689654
0.7181976883095517	6655703.074000895
0.7183173879242699	6668650.9999401895
0.718437107488924	6681601.083867144
0.7185568470068389	6694553.326141424
0.7186766064813399	6707286.986641618
0.7187963859157535	6714503.770919749
0.7189161853134061	6721721.757995258
0.719036004677625	6728940.948068614
0.7191558440117378	6736161.341340312
0.7192757033190732	6743382.9380108975
0.7193955826029597	6750605.73828092
0.7195154818667269	6757829.742350994
0.7196354011137046	6764523.4596424615
0.7197553403472235	6768771.21400129
0.7198752995706147	6773019.676319175
0.7199952787872098	6777268.846714117
0.720115278000341	6781518.725304124
0.7202352972133411	6785769.31220723
0.7203553364295432	6790020.60754148
0.7204753956522815	6794272.611424959
0.7205954748848902	6799466.102080537
0.7207155741307044	6806734.522427283
0.7208356933930594	6814004.154177408
0.7209558326752915	6821274.997532827
0.7210759919807375	6828547.05269548
0.7211961713127342	6835820.3198673185
0.7213163706746197	6843094.799250364
0.7214365900697322	6850370.491046632
0.7215568295014103	6856110.9796984475
0.721677088972994	6860019.222267849
0.7217973684878227	6863928.116211006
0.7219176680492374	6867837.661636491
0.7220379876605789	6871747.858652879
0.722158327325189	6875658.70736877
0.7222786870464099	6879570.207892778
0.7223990668275843	6883482.360333543
0.7225194666720555	6887206.685930844
0.7226398865831676	6890798.052556168
0.7227603265642646	6894390.017742587
0.722880786618692	6897982.5815898795
0.7230012667497951	6901575.74419781
0.7231217669609201	6905169.505666176
0.7232422872554135	6908763.866094783
0.7233628276366229	6912358.825583467
0.7234833881078956	6920225.668683599
0.7236039686725803	6929715.464793986
0.7237245693340255	6939206.842537043
0.7238451900955812	6948699.802176408
0.7239658309605971	6958194.343975702
0.7240864919324239	6967690.468198641
0.7242071730144127	6977188.175108952
0.724327874209915	6986687.464970395
0.7244485955222832	6990733.19033529
0.7245693369548704	6993877.627401427
0.7246900985110294	6997022.588540404
0.7248108801941148	7000168.073839579
0.7249316820074803	7003314.083386293
0.7250525039544815	7006460.6172679365
0.7251733460384739	7009607.675571895
0.7252942082628137	7012768.213820465
0.7254150906308574	7023436.06814049
0.7255359931459625	7034105.7004362345
0.7256569158114868	7044777.111004033
0.7257778586307888	7055450.300140264
0.7258988216072273	7066125.268141348
0.7260198047441617	7076802.015303754
0.7261408080449525	7087480.541924039
0.72626183151296	7097467.084784702
0.7263828751515454	7102844.835467582
0.7265039389640706	7108223.482442239
0.726625022953898	7113603.025858063
0.7267461271243904	7118983.465864459
0.7268672514789111	7124364.802610852
0.7269883960208241	7129747.036246698
0.7271095607534942	7135130.166921487
0.7272307456802866	7140190.033545393
0.7273519508045666	7144375.105729149
0.7274731761297006	7148560.875424933
0.7275944216590555	7152747.3427490005
0.7277156873959987	7156934.507817623
0.7278369733438982	7161122.370747097
0.727958279506122	7165310.931653715
0.7280796058860397	7169500.190653822
0.7282009524870207	7175061.355034394
0.7283223193124353	7182651.614378524
0.7284437063656539	7190243.138765861
0.7285651136500483	7197835.928407276
0.7286865411689898	7205429.983513615
0.7288079889258514	7213025.304295824
0.7289294569240056	7220621.890964812
0.7290509451668262	7228219.743731587
0.7291724536576875	7235565.132511014
0.7292939823999636	7242701.502658039
0.7294155313970303	7249839.062200104
0.7295371006522632	7256977.811335423
0.7296586901690385	7264117.750262259
0.7297802999507332	7271258.879178913
0.7299019300007252	7278401.198283738
0.7300235803223919	7285544.707775062
0.7301452509191123	7291982.110684281
0.7302669417942654	7298094.119730111
0.7303886529512311	7304207.147444118
0.7305103843933897	7310321.193996077
0.7306321361241218	7316436.2595557915
0.7307539081468093	7322552.34429311
0.7308757004648336	7328669.448377871
0.7309975130815778	7334787.571979987
0.7311193460004248	7342312.652904816
0.7312411992247582	7350157.274342206
0.7313630727579622	7358003.203216501
0.7314849666034219	7365850.439745614
0.7316068807645224	7373698.98414748
0.7317288152446498	7381548.836640081
0.7318507700471907	7389399.997441436
0.7319727451755319	7397252.466769588
0.732094740633061	7403077.980521124
0.7322167564231665	7408813.15208952
0.7323387925492371	7414549.279519846
0.7324608490146619	7420286.362971407
0.732582925822831	7426024.402603545
0.7327050229771347	7431763.398575616
0.7328271404809642	7437503.35104702
0.7329492783377112	7443060.178646698
0.7330714365507675	7446808.216125269
0.7331936151235259	7450556.878276754
0.7333158140593796	7454306.16520526
0.7334380333617229	7458056.077014926
0.7335602730339499	7461806.613809896
0.7336825330794556	7465557.775694331
0.7338048135016354	7469309.562772408
0.7339271143038857	7473539.328415134
0.734049435489603	7479369.259785731
0.7341717770621846	7485200.162811558
0.7342941390250283	7491032.037654553
0.7344165213815324	7496864.884476685
0.734538924135096	7502698.703439964
0.7346613472891185	7508533.494706395
0.734783790847	7514369.25843804
0.7349062548121412	7519767.463881495
0.7350287391879431	7524391.447722806
0.7351512439778078	7529016.202228099
0.7352737691851374	7533641.727525805
0.735396314813335	7538268.023744398
0.7355188808658037	7542895.091012352
0.7356414673459482	7547522.929458194
0.7357640742571725	7552151.539210441
0.7358867016028818	7558473.70519694
0.7360093493864824	7566468.702523026
0.7361320176113801	7574465.032348654
0.736254706280982	7582462.694895921
0.7363774153986956	7590461.690386956
0.7365001449679286	7598462.01904389
0.7366228949920899	7606463.681088939
0.7367456654745885	7614466.67674433
0.7368684564188344	7620508.866437493
0.7369912678282374	7625443.103101246
0.7371140997062088	7630378.1621377785
0.7372369520561599	7635314.043684155
0.7373598248815024	7640250.747877445
0.7374827181856494	7645188.2748547755
0.7376056319720137	7650126.624753269
0.7377285662440091	7655065.79771008
0.7378515210050496	7657733.84686497
0.7379744962585505	7659718.780959202
0.738097492007927	7661704.045875782
0.7382205082565949	7663689.641669847
0.738343545007971	7665675.568396544
0.7384666022654723	7667661.826111031
0.7385896800325165	7669648.414868467
0.7387127783125219	7671635.334724031
0.7388358971089073	7681182.891516014
0.7389590364250921	7691490.357002686
0.7390821962644963	7701799.54040028
0.7392053766305403	7712110.441995092
0.7393285775266454	7722423.06207351
0.7394517989562333	7732737.400921951
0.7395750409227259	7743053.458826851
0.7396983034295463	7753170.784043376
0.739821586480118	7758830.590864649
0.7399448900778645	7764491.340987047
0.7400682142262109	7770153.034567816
0.740191558928582	7775815.671764176
0.7403149241884034	7781479.252733398
0.7404383100091014	7787143.777632782
0.7405617163941028	7792809.246619646
0.7406851433468352	7797792.327301534
0.7408085908707264	7799650.156416726
0.7409320589692048	7801508.295170102
0.7410555476456997	7803366.743613273
0.7411790569036406	7805225.501797849
0.7413025867464579	7807084.569775457
0.7414261371775823	7808943.947597727
0.7415497082004452	7810803.6353163
0.7416732998184786	7813610.596972824
0.741796912035115	7818449.450657996
0.7419205448537874	7823289.110818782
0.7420441982779297	7828129.577589594
0.742167872310976	7832970.851104871
0.7422915669563612	7837812.931499069
0.7424152822175206	7842655.818906664
0.7425390180978901	7847499.513462157
0.7426627746009065	7852793.781112057
0.7427865517300065	7858637.227871641
0.7429103494886282	7864481.6485390235
0.7430341678802096	7870327.043276513
0.7431580069081896	7876173.412246459
0.7432818665760077	7882020.755611241
0.7434057468871037	7887869.073533246
0.7435296478449182	7893718.366174901
0.7436535694528923	7896729.647304582
0.7437775117144678	7897798.057047198
0.7439014746330868	7898866.644858101
0.7440254582121922	7899935.410766975
0.7441494624552276	7901004.3548035
0.7442734873656368	7902073.476997364
0.7443975329468645	7903142.777378262
0.7445215992023557	7904212.25597589
0.7446456861355559	7903948.424167895
0.7447697937499119	7903193.326575255
0.7448939220488703	7902438.103133017
0.7450180710358784	7901682.753820206
0.7451422407143843	7900927.278615843
0.7452664310878367	7900171.677498945
0.7453906421596846	7899415.950448528
0.7455148739333779	7898660.097443603
0.7456391264123667	7903304.11551399
0.7457633996001021	7908812.337255751
0.7458876935000356	7914321.477034479
0.7460120081156189	7919831.53500316
0.7461363434503048	7925342.511314838
0.7462606995075466	7930854.406122574
0.7463850762907978	7936367.219579435
0.7465094738035127	7941880.400138002
0.7466338920491467	7947250.177769242
0.746758331031155	7952620.850363425
0.7468827907529935	7957992.418069701
0.7470072712181189	7963364.881037261
0.7471317724299886	7968738.239415318
0.7472562943920602	7974112.4933531
0.7473808371077922	7979487.642999876
0.7475054005806435	7984341.13417674
0.7476299848140736	7985976.704539964
0.7477545898115426	7987612.5474982485
0.7478792155765113	7989248.663097027
0.7480038621124406	7990885.051381736
0.7481285294227926	7992521.712397827
0.7482532175110298	7994158.646190754
0.7483779263806148	7995795.852805979
0.7485026560350116	7996902.271868109
0.7486274064776842	7996571.580192847
0.748752177712097	7996240.833402308
0.7488769697417158	7995910.031487302
0.749001782570006	7995579.174438644
0.7491266162004343	7995248.262247146
0.7492514706364677	7994917.294903615
0.7493763458815739	7994586.272398859
0.7495012419392209	7993743.624695691
0.7496261588128773	7992165.393672393
0.7497510965060128	7990586.899610588
0.7498760550220971	7989008.142466441
0.7500010343646007	7987429.122196103
0.7501260345369949	7985849.838755719
0.750251055542751	7984270.292101431
0.7503760973853414	7982690.482189365
0.7505011600682389	7979873.027799575
0.750626243594917	7976021.918846048
0.7507513479688495	7972170.1680410355
0.7508764731935109	7968317.775277553
0.7510016192723765	7964464.74044861
0.7511267862089218	7960611.063447199
0.7512519740066232	7956756.744166286
0.7513771826689577	7952901.7824988235
0.7515024121994025	7948419.9695107695
0.7516276626014359	7943645.43580773
0.751752933878536	7938870.106349082
0.7518782260341824	7934093.981002188
0.7520035390718548	7929317.059634402
0.7521288729950334	7924539.342113057
0.7522542278071992	7919760.828305458
0.7523796035118337	7914981.518078889
0.7525050001124189	7907965.642843495
0.7526304176124378	7900462.36865777
0.7527558560153731	7892957.843926356
0.752881315324709	7885452.068440814
0.7530067955439299	7877945.041992688
0.7531322966765205	7870436.764373497
0.7532578187259665	7862927.235374701
0.7533833616957542	7855416.454787739
0.75350892558937	7843543.05482393
0.7536345104103016	7831462.5919915745
0.7537601161620366	7819380.115748753
0.7538857428480638	7807295.625759879
0.7540113904718717	7795209.121689355
0.7541370590369503	7783120.60320149
0.7542627485467898	7771030.069960535
0.7543884590048808	7758989.269778988
0.7545141904147151	7747462.5011957055
0.7546399427797842	7735933.811484342
0.7547657161035808	7724403.200324694
0.754891510389598	7712870.667396518
0.7550173256413296	7701336.212379517
0.7551431618622698	7689799.834953349
0.7552690190559135	7678261.534797613
0.7553948972257561	7664479.64541004
0.7555207963752938	7643171.029615624
0.755646716508023	7621858.862385253
0.755772657627441	7600543.143127004
0.7558986197370455	7579223.871248875
0.756024602840335	7557901.046158771
0.7561506069408084	7536574.667264487
0.7562766320419653	7515244.733973701
0.7564026781473054	7491324.288722275
0.75652874526033	7462847.5026389435
0.7566548333845401	7434365.970424584
0.7567809425234375	7405879.691288199
0.7569070726805247	7377388.664438641
0.7570332238593047	7348892.889084611
0.7571593960632813	7320392.364434662
0.7572855892959586	7291887.089697271
0.7574118035608413	7262705.935602725
0.7575380388614347	7232863.331089908
0.7576642952012449	7203015.752809661
0.7577905725837782	7173163.199933078
0.7579168710125422	7143305.671630963
0.7580431904910444	7113443.167074119
0.7581695310227928	7083575.685433219
0.7582958926112967	7053703.225878676
0.7584222752600652	7014524.514846655
0.7585486789726085	6969996.047819107
0.7586751037524372	6925460.159380372
0.7588015496030628	6880916.848293476
0.7589280165279966	6836366.113321487
0.7590545045307512	6791807.953227003
0.7591810136148396	6747242.3667725045
0.7593075437837755	6702669.352720198
0.7594340950410726	6647230.955358396
0.7595606673902461	6588633.02857583
0.7596872608348112	6530025.335472075
0.7598138753782836	6471407.874419535
0.75994051102418	6412780.643790096
0.7600671677760173	6354143.641955599
0.7601938456373134	6295496.867287418
0.7603205446115863	6236840.318156824
0.7604472647023548	6159818.487709359
0.7605740059131385	6080959.285263371
0.7607007682474575	6002086.939616898
0.7608275517088319	5923201.448579659
0.7609543563007835	5844302.809960405
0.7610811820268336	5765391.021568096
0.7612080288905045	5686466.0812112065
0.7613348968953197	5606169.1808233345
0.7614617860448022	5497979.201388724
0.7615886963424764	5389771.190290727
0.7617156277918667	5281545.144524318
0.7618425803964988	5173301.061083525
0.7619695541598982	5065038.936962188
0.7620965490855914	4956758.769153578
0.7622235651771058	4848460.554650207
0.7623506024379685	4735143.126812131
0.7624776608717082	4599886.166613445
0.7626047404818536	4464606.663588054
0.7627318412719337	4329304.6139790565
0.762858963245479	4193980.014028373
0.7629861064060198	4058632.859977686
0.7631132707570876	3923263.1480678497
0.7632404563022137	3787870.8745394833
0.7633676630449308	3642191.170744825
0.7634948909887717	3474636.697789119
0.7636221401372697	3307054.299088138
0.7637494104939593	3139443.9699872155
0.7638767020623748	2971805.7058316846
0.7640040148460518	2804139.5019652704
0.7641313488485262	2636445.353731551
0.7642587040733344	2468723.2564729364
0.7643860805240132	2293867.811586532
0.7645134782041005	2110504.3591605322
0.7646408971171346	1927110.3461590523
0.764768337266654	1743685.7674888058
0.7648957986561985	1560230.6180553883
0.7650232812893079	1376744.8927637562
0.7651507851695227	1193228.5865179072
0.7652783103003843	1009681.6942210398
0.7654058566854343	875537.0152823504
0.7655334243282153	775059.7276992698
0.7656610132322699	674565.6939017228
0.765788623401142	574054.9110984483
0.7659162548383754	473527.3764980979
0.7660439075475152	372983.087308623
