#wavelength	surface flux
0.8	284386.8594507639
0.8002000000000001	285363.1223544874
0.8004000500000003	286680.619977697
0.8006001500125003	288001.89131665387
0.8008003000500035	289323.49297344557
0.8010005001250161	290645.4250306521
0.8012007502500472	291967.68757087097
0.8014010504376099	292916.0140205377
0.8016014007002193	293739.2096562587
0.8018018010503944	294562.6110908886
0.8020022515006572	295386.21837587754
0.8022027520635323	296210.031562687
0.8024033027515483	297042.3573246448
0.8026039035772362	297883.031333724
0.8028045545531306	298723.9155113054
0.8030052556917691	299565.0099099317
0.803206007005692	300406.31458215683
0.8034068085074435	301332.0916226307
0.8036076602095705	302494.29897125653
0.8038085621246229	303656.7968717186
0.8040095142651542	304819.58539665653
0.8042105166437206	305982.6646187253
0.8044115692728815	307140.33102953684
0.8046126721651998	308052.96578646585
0.8048138253332411	308965.8287020833
0.8050150287895745	309878.9198334306
0.805216282546772	310792.2392375605
0.8054175866174087	311705.7869715409
0.8056189410140631	312574.4480914024
0.8058203457493168	313430.5559051563
0.8060218008357541	314286.8777458625
0.8062233062859632	315143.41366702935
0.8064248621125346	316000.16372217593
0.806626468328063	317039.88718508213
0.8068281249451449	318236.8386398928
0.8070298319763813	319434.08933256863
0.8072315894343755	320631.63933791674
0.8074333973317341	321829.48873076664
0.8076352556810671	322693.06894520746
0.8078371644949874	322751.5024696166
0.8080391237861113	322809.9506024068
0.8082411335670578	322868.4133472302
0.8084431938504498	322926.8907077398
0.8086453046489125	322964.9220053738
0.8088474659750746	322622.0215650452
0.8090496778415686	322279.035399606
0.809251940261029	321935.9634876257
0.8094542532460944	321592.8058076671
0.8096566168094059	321249.56233828893
0.8098590309636085	321203.1023607267
0.8100614957213493	321226.11545248504
0.8102640110952797	321249.1342975163
0.8104665770980536	321272.15889725887
0.8106691937423283	321295.18925315136
0.8108718610407639	321505.8292946221
0.8110745790060241	321859.97287319216
0.8112773476507757	322214.2049876572
0.8114801669876885	322568.52566015074
0.8116830370294355	322922.9349128122
0.8118859577886929	323092.30703067296
0.8120889292781401	322877.2072404275
0.8122919515104597	322662.0536752345
0.8124950244983374	322446.8463216502
0.8126981482544621	322231.5851662276
0.8129013227915257	322068.12497328024
0.8131045481222237	322498.3690484846
0.8133078242592543	322928.7206847078
0.8135111512153191	323359.17990884
0.813714529003123	323789.7467477782
0.8139179576353739	324220.4212284263
0.8141214371247829	328363.8219400913
0.8143249674840641	333228.1976867571
0.814528548725935	338093.78952735657
0.8147321808631167	342960.5977659228
0.8149358639083326	347828.62270654715
0.8151395978743097	350768.3391946417
0.8153433827737784	352405.12225601525
0.8155472186194719	354042.31451315363
0.8157511054241268	355679.9160683559
0.815955043200483	357317.9270239481
0.8161590319612831	358655.48481835186
0.8163630717192736	359442.0828442069
0.8165671624872033	360228.8775195675
0.8167713042778252	361015.86889359774
0.8169754971038948	361803.05701547186
0.8171797409781707	362454.14576920256
0.8173840359134155	362017.3027963553
0.8175883819223938	361580.3506127653
0.8177927790178745	361143.28919112915
0.8179972272126291	360706.11850413744
0.8182017265194322	360268.8385244745
0.8184062769510622	362625.34077701374
0.8186108785203001	365412.37071333046
0.8188155312399301	368200.09740712744
0.8190202351227402	370988.521032601
0.819224990181521	373777.6417639792
0.8194297964290664	375259.77366980305
0.8196346538781738	375954.070627952
0.8198395625416434	376648.54116034025
0.8200445224322789	377343.18531036185
0.820249533562887	378038.00312142074
0.8204545959462778	378922.62814849534
0.8206597095952644	380112.68434925436
0.8208648745226633	381303.03806406446
0.8210700907412941	382493.68936730304
0.8212753582639793	383684.63833336625
0.8214806771035456	384273.41390611726
0.8216860472728215	381150.3804906845
0.8218914687846397	378026.56631689763
0.822096941651836	374901.9711895657
0.822302465887249	371776.59491345385
0.8225080415037209	368650.43729327124
0.8227136685140968	370293.2670945621
0.8229193469312254	372477.97606804926
0.8231250767679583	374663.23121878045
0.8233308580371503	376849.0326832981
0.8235366907516598	379035.38059818355
0.8237425749243477	381686.2517608531
0.8239485105680789	384583.7014279819
0.824154497695721	387481.8754575257
0.824360536320145	390380.7740305774
0.8245666264542252	393280.3973282722
0.8247727681108388	395696.4882205058
0.8249789613028664	397419.6355222967
0.8251852060431922	399143.21361091454
0.825391502344703	400867.2225940537
0.8255978502202894	402591.6625794403
0.8258042496828445	404211.0649294999
0.8260107007452654	405318.6557409702
0.8262172034204517	406426.5234501423
0.8264237577213068	407534.66812624194
0.8266303636607373	408643.08983851114
0.8268370212516525	409751.78865620785
0.8270437305069654	408873.2870958756
0.8272504914395923	407839.2574563152
0.8274573040624523	406804.9693093448
0.8276641683884679	405770.42259033845
0.8278710844305652	404735.6172346512
0.8280780522016729	405360.3091068733
0.8282850717147234	406743.82851372607
0.8284921429826521	408127.6938004292
0.8286992660183978	409511.90505345503
0.8289064408349024	410896.46235929313
0.8291136674451112	411513.32429204223
0.8293209458619727	411161.8785791796
0.8295282760984382	410810.3450048891
0.829735658167463	410458.7235472047
0.8299430920820048	410107.0141841563
0.8301505778550254	409767.29690848355
0.8303581154994891	409475.7095797118
0.8305657050283641	409184.0493541075
0.8307733464546212	408892.31621344713
0.8309810397912352	408600.5101395011
0.8311887850511829	408308.6311140371
0.8313965822474458	412082.87859415764
0.8316044313930077	416046.8034629718
0.8318123325008561	420011.7193130069
0.8320202855839813	423977.62639200257
0.8322282906553774	427944.52494776837
0.8324363477280413	429385.4645065502
0.8326444568149735	429809.42285443563
0.8328526179291771	430233.4871919075
0.8330608310836596	430657.6575454643
0.8332690962914304	431081.933941609
0.8334774135655034	431256.19214169646
0.833685782918895	431151.09688825643
0.8338942043646247	431045.97536100313
0.834102677915716	430940.8275533679
0.834311203585195	430835.65345878084
0.8345197813860912	431532.2119751345
0.8347284113314379	434927.74008086364
0.8349370934342709	438324.1170686173
0.8351458277076294	441721.3431506138
0.8353546141645565	445119.4185391365
0.8355634528180977	448518.3434465048
0.8357723436813022	444323.6080447111
0.8359812867672226	440034.0511109712
0.8361902820889144	435743.421788
0.8363993296594368	431451.71980769676
0.8366084294918518	427158.944901897
0.8368175815992247	428339.60437379166
0.8370267859946247	431406.0356476541
0.8372360426911234	434473.2335293341
0.8374453517017962	437541.1982104841
0.8376547130397217	440609.92988280405
0.8378641267179816	442596.02964974585
0.8380735927496613	443507.612415518
0.8382831111478488	444419.42307698104
0.8384926819256358	445331.46169110894
0.8387023050961173	446243.72831489117
0.8389119806723914	447088.0735199491
0.8391217086675596	447740.8348909064
0.8393314890947265	448393.7594522059
0.8395413219670003	449046.8472446458
0.8397512072974922	449700.0983090343
0.8399611450993165	450416.95700348023
0.8401711353855914	454284.61703557067
0.8403811781694378	458153.24398266815
0.8405912734639802	462022.8380865033
0.8408014212823464	465893.39958886633
0.8410116216376671	469764.9287316044
0.8412218745430766	472919.56312371936
0.8414321800117124	475866.1158496173
0.8416425380567154	478813.40521369805
0.8418529486912297	481761.43140012055
0.8420634119284025	484710.1945930872
0.8422739277813847	486346.8409499169
0.8424844962633302	486827.22112697165
0.842695117387396	487307.72139907
0.8429057911667428	487788.3417962364
0.8431165176145345	488269.08234850236
0.8433272967439382	488903.8541033369
0.8435381285681244	489914.21620217187
0.8437490131002665	490924.8308915313
0.8439599503535415	491935.6982345624
0.84417094034113	492946.81829443004
0.8443819830762154	493979.2129304893
0.8445930785719846	495435.351546292
0.8448042268416277	496891.85419674794
0.8450154278983382	498348.7209728663
0.8452266817553128	499805.95196567854
0.8454379884257517	501263.5472662391
0.8456493479228583	502898.03888735716
0.845860760259839	504575.45013977203
0.846072225449904	506253.280745
0.8462837435062666	507931.53080787964
0.8464953144421433	509610.20043327595
0.8467069382707537	510831.5351507229
0.8469186150053215	511696.3695688217
0.847130344659073	512561.4201955252
0.8473421272452377	513426.68708488456
0.8475539627770492	514292.17029096716
0.8477658512677435	515359.7765480505
0.8479777927305605	516856.3719546082
0.8481897871787432	518353.3415100171
0.848401834625538	519850.6853078158
0.8486139350841944	521348.4034415629
0.8488260885679657	522815.22487237817
0.8490382950901076	523901.2290050744
0.8492505546638802	524987.5046388045
0.8494628673025462	526074.0518414425
0.8496752330193721	527160.8706808827
0.8498876518276269	528247.9612250314
0.8501001237405839	528362.5238669821
0.8503126487715191	528282.927249373
0.850525226933712	528203.3107326096
0.8507378582404455	528123.674311717
0.8509505427050057	528044.0179817191
0.8511632803406821	528455.1211366099
0.8513760711607672	529202.4210856414
0.8515889151785576	529949.9078596612
0.8518018124073523	530697.5815053739
0.8520147628604541	531445.4420694977
0.8522277665511693	532713.86662042
0.8524408234928071	534944.9826774199
0.8526539336986805	537176.6565134346
0.8528670971821053	539408.8882679084
0.8530803139564007	541641.6780803183
0.8532935840348901	543855.9592859787
0.8535069074308987	545909.7651572593
0.8537202841577566	547964.0844800095
0.8539337142287962	550018.9173825906
0.8541471976573534	552074.2639933961
0.8543607344567677	554130.1244408546
0.8545743246403821	555810.4634170603
0.8547879682215422	557431.5037528442
0.8550016652135977	559052.9493487119
0.8552154156299011	560674.8003059786
0.8554292194838088	562297.0567259858
0.8556430767886797	563631.8205760404
0.855856987557877	564792.1139738999
0.8560709518047664	565952.697445108
0.8562849695427177	567113.5710621843
0.8564990407851035	568274.7348976653
0.8567131655452999	569444.3610585821
0.8569273438366862	570627.6697772545
0.8571415756726455	571811.2743231066
0.8573558610665638	572995.1747700957
0.8575702000318304	574179.3711921952
0.8577845925818384	575381.1710128817
0.857999038729984	576691.3793644628
0.8582135384896665	578001.9152681315
0.858428091874289	579312.7788057761
0.8586426988972576	580623.970059305
0.8588573595719821	581935.4891106475
0.8590720739118751	583058.9968872642
0.8592868419303532	584160.5797917556
0.8595016636408359	585262.4380919733
0.8597165390567462	586364.5718567655
0.8599314681915105	587466.9811549993
0.8601464510585584	588517.6068204803
0.860361487671323	589540.8624638068
0.8605765780432408	590564.3739210437
0.8607917221877518	591588.1412561458
0.8610069201182988	592612.1645330813
0.8612221718483286	593097.0035781157
0.8614374773912907	592804.2877277309
0.8616528367606385	592511.4986983836
0.8618682499698288	592218.6364717787
0.8620837170323213	591925.7010296172
0.8622992379615795	591899.1707811893
0.8625148127710699	593191.3335455264
0.8627304414742627	594483.8193505546
0.8629461240846313	595776.6282770344
0.8631618606156526	597069.7604057458
0.8633776510808066	598363.2158174892
0.8635934954935769	600394.462203769
0.8638093938674504	602486.6679555032
0.8640253462159173	604579.3967586752
0.8642413525524714	606672.648744048
0.8644574128906095	608766.4240424166
0.8646735272438323	610024.0704565567
0.8648896956256433	610892.96476722
0.8651059180495498	611762.0763014609
0.8653221945290621	612631.4051135845
0.8655385250776946	613500.9512579123
0.8657549097089641	614888.284661257
0.8659713484363913	616938.5681097175
0.8661878412735006	618989.3641290409
0.866404388233819	621040.6728473688
0.8666209893308775	623092.4943928753
0.8668376445782103	624920.4374862284
0.8670543539893549	625832.9823210224
0.8672711175778525	626745.7552920257
0.8674879353572469	627658.7564562708
0.8677048073410862	628571.9858708074
0.8679217335429217	629485.4435926981
0.8681387139763074	630191.966973679
0.8683557486548015	630888.3756700977
0.8685728375919655	631584.9584686912
0.8687899808013633	632281.715412983
0.8690071782965637	632978.6465465117
0.869224430091138	634784.2673202505
0.8694417361986609	637041.3930171407
0.8696590966327107	639299.0829954545
0.869876511406869	641557.337396263
0.8700939805347206	643816.1563606707
0.8703115040298544	645942.0291167481
0.870529081905862	647915.7917441059
0.8707467141763385	649890.0478121197
0.8709644008548827	651864.7974441506
0.8711821419550964	653840.0407635882
0.8713999374905854	655683.2793958068
0.871617787474958	657069.6805490826
0.8718356919218269	658456.4283026478
0.8720536508448075	659843.5227431516
0.8722716642575187	661230.9639572647
0.8724897321735832	662618.7520316818
0.8727078546066265	663675.1954327399
0.8729260315702784	664726.8568270265
0.873144263078171	665778.7811366604
0.8733625491439405	666830.9684273718
0.8735808897812266	667883.4187649065
0.8737992850036719	668134.710885629
0.874017734824923	668102.2155720978
0.8742362392586293	668069.7121347381
0.874454798318444	668037.2005715191
0.8746734120180236	668004.6808804092
0.8748920803710283	668245.3504751088
0.875110803391121	668760.6176079297
0.8753295810919689	669276.0135575343
0.875548413487242	669791.5383561262
0.8757673005906139	670307.1920359177
0.8759862424157616	671266.231569612
0.8762052389763657	673508.0957389754
0.8764242902861098	675750.5203743797
0.8766433963586814	677993.5056159435
0.8768625572077712	680237.0516038182
0.8770817728470732	682463.2565757959
0.8773010432902849	683292.2827308186
0.8775203685511077	684121.5161423811
0.8777397486432454	684950.9568622955
0.8779591835804065	685780.6049423909
0.8781786733763015	686610.4604345054
0.8783982180446457	686649.5375488404
0.878617817599157	686453.3209292206
0.8788374720535569	686257.055255446
0.8790571814215703	686060.740515253
0.8792769457169257	685864.376696375
0.879496764953355	684451.915011046
0.8797166391445934	681945.7924896062
0.8799365683043796	679439.0434375359
0.8801565524464557	676931.6676982027
0.8803765915845676	674423.6651149321
0.8805966857324639	674061.6312229573
0.880816834903897	679091.1116776309
0.881037039112623	684121.8495024203
0.8812572983724012	689153.8450116654
0.8814776126969944	694187.0985197899
0.8816979821001687	699004.6682745885
0.8819184065956938	698716.5896562123
0.8821388861973429	698428.4390181811
0.8823594209188923	698140.2163424905
0.882580010774122	697851.9216111314
0.8828006557768155	697563.5548060891
0.8830213559407598	697939.5301956034
0.8832421112797452	698482.7065162403
0.8834629218075651	699026.0186309569
0.8836837875380171	699569.4665737023
0.8839047084849018	700113.0503784335
0.884125684662023	700751.0220599894
0.8843467160831886	701464.684159773
0.8845678027622095	702178.5246750817
0.8847889447129001	702892.5436505192
0.8850101419490785	703606.7411307005
0.8852313944845657	704538.7966279383
0.885452702333187	705947.558795286
0.8856740655087704	707356.6731531753
0.8858954840251476	708766.1397896536
0.8861169578961539	710175.9587927905
0.886338487135628	711312.0109991245
0.886560071757412	708800.5308192289
0.8867817117753515	706288.4227692883
0.8870034072032955	703775.6866923342
0.8872251580550963	701262.3224313637
0.8874469643446101	698748.3298293265
0.8876688260856963	700864.7645730277
0.8878907432922178	703940.1847827545
0.8881127159780409	707016.3738475319
0.8883347441570356	710093.331959579
0.8885568278430749	713171.0593111509
0.8887789670500358	715851.7306431571
0.8890011617917983	718250.8652526092
0.8892234120822464	720650.5996457147
0.8894457179352669	723050.9339724166
0.8896680793647509	725451.868382702
0.8898904963845921	726501.8971205996
0.8901129690086883	724973.4795215072
0.8903354972509405	723444.6798180153
0.8905580811252535	721915.4979145965
0.8907807206455347	720385.9337157038
0.8910034158256963	718695.6750429813
0.8912261666796527	715572.2905143121
0.8914489732213227	712448.1251395098
0.8916718354646282	709323.1787233608
0.8918947534234944	706197.4510706107
0.8921177271118502	703070.9419859494
0.8923407565436284	697922.4581908599
0.8925638417327644	692442.9757241363
0.8927869826931977	686962.1233867944
0.8930101794388711	681479.9008363684
0.8932334319837308	675996.3077303057
0.8934567403417267	670672.4753218688
0.8936801045268123	665447.4362745635
0.8939035245529441	660221.0909675
0.8941270004340824	654993.4390741077
0.894350532184191	649764.4802677433
0.8945741198172371	652062.7186433733
0.8947977633471915	666846.6581339622
0.8950214627880284	681634.293609423
0.8952452181537254	696425.6259937439
0.8954690294582639	711220.6562111699
0.8956928967156286	724070.3811503979
0.8959168199398075	724274.9766193349
0.8961407991447926	724479.6232371392
0.8963648343445789	724684.3210165979
0.896588925553165	724889.0699705015
0.8968130727845534	725093.8701116435
0.8970372760527496	724108.1603606718
0.8972615353717629	722973.241013934
0.8974858507556059	721838.0379373594
0.8977102222182949	720702.551060016
0.8979346497738496	719566.7803109526
0.8981591334362931	727617.103556727
0.8983836732196523	740693.2534730317
0.8986082691379572	753772.672426807
0.8988329212052417	766855.3612353207
0.8990576294355432	779941.3207160479
0.8992823938429022	788853.72985274
0.8995072144413631	791557.9638174549
0.8997320912449734	794262.87384066
0.8999570242677847	796968.4600913703
0.9001820135238516	799674.7227386435
0.9004070590272328	802005.3726151233
0.9006321607919896	802363.9680762853
0.9008573188321878	802722.653186313
0.9010825331618959	803081.4279676181
0.9013078037951865	803440.2924426185
0.9015331307461353	803799.2466337375
0.9017585140288219	805412.2495828962
0.9019839536573292	807133.6625233991
0.9022094496457435	808855.505817136
0.9024350020081551	810577.7795716983
0.9026606107586572	812300.4838946986
0.902886275911347	817404.9944661182
0.9031119974803249	824140.8395565611
0.9033377754796951	830878.3686082767
0.903563609923565	837617.5820422522
0.903789500826046	844358.4802795908
0.9040154482012526	849009.657041897
0.904241452063303	850952.7618296301
0.9044675124263188	852896.3523935596
0.9046936293044254	854840.4288551299
0.9049198027117517	856784.9913358164
0.9051460326624297	858593.5170288162
0.9053723191705955	859821.148464367
0.9055986622503881	861049.0868077757
0.9058250619159507	862277.3321357701
0.9060515181814298	863505.8845250973
0.9062780310609752	864734.7440525212
0.9065046005687405	857072.8171044369
0.906731226718883	848912.9668442984
0.9069579095255627	840751.0766216057
0.907184649002944	832587.1459263565
0.907411445165195	824421.1742484253
0.9076382980264862	829374.6888001611
0.907865207600993	839778.78789151
0.9080921739028933	850185.4880076286
0.9083191969463691	860594.7897987745
0.9085462767456058	871006.6939153734
0.9087734133147922	877271.1008087666
0.9090006066681211	878743.6566323102
0.909227856819788	880216.580594808
0.9094551637839932	881689.8727882983
0.9096825275749393	883163.5333048366
0.9099099482068329	885098.5475695862
0.9101374256938848	888672.3954549955
0.9103649600503083	892247.1368023743
0.9105925512903209	895822.7718350893
0.9108201994281437	899399.3007765663
0.9110479044780008	902976.7238502745
0.9112756664541204	906325.8513098984
0.911503485370734	909670.5699333819
0.9117313612420768	913016.1247365212
0.9119592940823873	916362.5159283603
0.912187283905908	919709.7437179983
0.9124153307268845	914495.5757851069
0.9126434345595664	906172.5143779573
0.9128715954182063	897847.3722054638
0.9130998133170609	889520.148747423
0.9133280882703902	881190.8434835182
0.913556420292458	879720.1068701007
0.9137848093975312	885324.4932251466
0.9140132555998806	890930.2806767804
0.9142417589137806	896537.4695752774
0.9144703193535092	902146.0602710027
0.9146989369333476	906378.849407464
0.9149276116675811	906459.0074106382
0.9151563435704979	906539.1854533128
0.9153851326563907	906619.3835404983
0.9156139789395548	906699.6016772056
