#wavelength	surface flux
0.8	112390.57103200584
0.8002000000000001	112813.64938548091
0.8004000500000003	113490.79644987624
0.8006001500125003	114170.67807679651
0.8008003000500035	114850.72967412356
0.8010005001250161	115530.95128435027
0.8012007502500472	116211.34294997854
0.8014010504376099	116646.26084513175
0.8016014007002193	116999.00427854246
0.8018018010503944	117351.83589781151
0.8020022515006572	117704.75572498555
0.8022027520635323	118057.76378211608
0.8024033027515483	118413.87042799854
0.8026039035772362	118773.01611322358
0.8028045545531306	119132.25158486994
0.8030052556917691	119491.57686538438
0.803206007005692	119850.99197721864
0.8034068085074435	120265.94706889693
0.8036076602095705	120836.44073638834
0.8038085621246229	121407.07702729617
0.8040095142651542	121977.85597727707
0.8042105166437206	122548.77762199528
0.8044115692728815	123117.0735762141
0.8046126721651998	123566.43694345599
0.8048138253332411	124015.91265153934
0.8050150287895745	124465.50072855015
0.805216282546772	124915.20120258007
0.8054175866174087	125365.01410172826
0.8056189410140631	125771.03542828644
0.8058203457493168	126164.73057332232
0.8060218008357541	126558.52414214396
0.8062233062859632	126952.41615935798
0.8064248621125346	127346.40664957605
0.806626468328063	127844.45446976625
0.8068281249451449	128431.91486256223
0.8070298319763813	129019.52212045714
0.8072315894343755	129607.2762801661
0.8074333973317341	130195.17737841519
0.8076352556810671	130582.69249274544
0.8078371644949874	130487.5881677758
0.8080391237861113	130392.46006672489
0.8082411335670578	130297.30818364878
0.8084431938504498	130202.13251260179
0.8086453046489125	130091.9943381538
0.8088474659750746	129703.69662256318
0.8090496778415686	129315.30183254315
0.809251940261029	128926.80994382588
0.8094542532460944	128538.22093213612
0.8096566168094059	128149.53477319387
0.8098590309636085	127926.35003931669
0.8100614957213493	127741.86921295107
0.8102640110952797	127557.34226637884
0.8104665770980536	127372.7691880699
0.8106691937423283	127188.1499664913
0.8108718610407639	127112.3623080943
0.8110745790060241	127119.80877913393
0.8112773476507757	127127.25711179133
0.8114801669876885	127134.70730653188
0.8116830370294355	127142.15936382112
0.8118859577886929	127014.96204954521
0.8120889292781401	126608.05643371065
0.8122919515104597	126201.04909147216
0.8124950244983374	125793.9399973981
0.8126981482544621	125386.72912605057
0.8129013227915257	125017.81598062588
0.8131045481222237	125088.49108054893
0.8133078242592543	125159.18384924697
0.8135111512153191	125229.89429113717
0.813714529003123	125300.62241063784
0.8139179576353739	125371.36821216841
0.8141214371247829	127961.60693733052
0.8143249674840641	131041.06184778221
0.814528548725935	134121.28662195965
0.8147321808631167	137202.28145233484
0.8149358639083326	140284.04653141662
0.8151395978743097	142095.9029838691
0.8153433827737784	143049.68830906934
0.8155472186194719	144003.71208060053
0.8157511054241268	144957.9743580744
0.815955043200483	145912.47520111833
0.8161590319612831	146651.5286510639
0.8163630717192736	146995.54852686412
0.8165671624872033	147339.65440763292
0.8167713042778252	147683.84631487224
0.8169754971038948	148028.12427008853
0.8171797409781707	148262.23117947625
0.8173840359134155	147616.17991636015
0.8175883819223938	146969.967140429
0.8177927790178745	146323.5928113035
0.8179972272126291	145677.05688859557
0.8182017265194322	145030.35933190762
0.8184062769510622	146578.2967324904
0.8186108785203001	148464.36783441628
0.8188155312399301	150350.9104541151
0.8190202351227402	152237.92470947097
0.819224990181521	154125.4107183895
0.8194297964290664	154955.1671620378
0.8196346538781738	155147.30200582676
0.8198395625416434	155339.48488332663
0.8200445224322789	155531.71580654592
0.820249533562887	155723.99478749596
0.8204545959462778	156069.349160497
0.8206597095952644	156661.08321614697
0.8208648745226633	157252.96520531137
0.8210700907412941	157844.99516497293
0.8212753582639793	158437.1731321238
0.8214806771035456	158620.04070191726
0.8216860472728215	156280.19112504864
0.8218914687846397	153939.75658578568
0.822096941651836	151598.73693788672
0.822302465887249	149257.1320350771
0.8225080415037209	146914.94173104054
0.8227136685140968	147767.72965477966
0.8229193469312254	148983.4940509598
0.8231250767679583	150199.5623882394
0.8233308580371503	151415.93474260264
0.8235366907516598	152632.61119005535
0.8237425749243477	154235.07989414924
0.8239485105680789	156042.26467846654
0.824154497695721	157849.90125897876
0.824360536320145	159657.98974863644
0.8245666264542252	161466.53026041648
0.8247727681108388	162892.0498743237
0.8249789613028664	163768.72031035981
0.8251852060431922	164645.60991400568
0.825391502344703	165522.71874005208
0.8255978502202894	166400.04684330578
0.8258042496828445	167232.5883916918
0.8260107007452654	167846.76381628003
0.8262172034204517	168461.0927847238
0.8264237577213068	169075.5753354098
0.8266303636607373	169690.2115067338
0.8268370212516525	170305.0013371003
0.8270437305069654	169436.36409890515
0.8272504914395923	168451.57750654503
0.8274573040624523	167466.5447175366
0.8276641683884679	166481.26567033175
0.8278710844305652	165495.74030336394
0.8280780522016729	165719.8350435087
0.8282850717147234	166497.01353873563
0.8284921429826521	167274.38632858553
0.8286992660183978	168051.95346163353
0.8289064408349024	168829.7149864642
0.8291136674451112	169035.9246912527
0.8293209458619727	168521.24256390677
0.8295282760984382	168006.4317660297
0.829735658167463	167491.49226545257
0.8299430920820048	166976.42403000096
0.8301505778550254	166443.063592759
0.8303581154994891	165837.0742284566
0.8305657050283641	165230.93336681253
0.8307733464546212	164624.64096995353
0.8309810397912352	164018.1969999943
0.8311887850511829	163411.6014190438
0.8313965822474458	165883.43431888992
0.8316044313930077	168498.77836569538
0.8318123325008561	171114.776248515
0.8320202855839813	173731.42813080404
0.8322282906553774	176348.73417606385
0.8324363477280413	177147.33147375693
0.8326444568149735	177213.65926561647
0.8328526179291771	177280.0036394239
0.8330608310836596	177346.36459932485
0.8332690962914304	177412.74214946572
0.8334774135655034	177301.53447995076
0.833685782918895	176991.91194991846
0.8338942043646247	176682.21201425386
0.834102677915716	176372.4346536051
0.834311203585195	176062.57984861644
0.8345197813860912	176319.14776146482
0.8347284113314379	178482.67240420336
0.8349370934342709	180646.7379281014
0.8351458277076294	182811.34446837773
0.8353546141645565	184976.4921602928
0.8355634528180977	187142.18113912988
0.8357723436813022	183961.67140926907
0.8359812867672226	180714.34793491656
0.8361902820889144	177466.21262969708
0.8363993296594368	174217.26529065036
0.8366084294918518	170967.50571476776
0.8368175815992247	171525.26408963845
0.8370267859946247	173394.79000658388
0.8372360426911234	175264.78330500796
0.8374453517017962	177135.24410175649
0.8376547130397217	179006.17251370393
0.8378641267179816	180165.56885506693
0.8380735927496613	180618.76615629013
0.8382831111478488	181072.07675683836
0.8384926819256358	181525.5006850365
0.8387023050961173	181979.03796921708
0.8389119806723914	182371.25773503794
0.8391217086675596	182590.6889224794
0.8393314890947265	182810.17496771755
0.8395413219670003	183029.71588446703
0.8397512072974922	183249.31168644584
0.8399611450993165	183512.41416700472
0.8401711353855914	185933.38227078598
0.8403811781694378	188354.95561659255
0.8405912734639802	190777.13435573617
0.8408014212823464	193199.9186395657
0.8410116216376671	195623.30861946588
0.8412218745430766	197553.82715196026
0.8414321800117124	199341.24546390228
0.8416425380567154	201129.11063042312
0.8418529486912297	202917.42276323604
0.8420634119284025	204706.18197408068
0.8422739277813847	205642.72542972318
0.8424844962633302	205828.2738801769
0.842695117387396	206013.86871774297
0.8429057911667428	206199.50995401846
0.8431165176145345	206385.1976006031
0.8433272967439382	206651.20966486327
0.8435381285681244	207113.108524908
0.8437490131002665	207575.12285966764
0.8439599503535415	208037.25269801068
0.84417094034113	208499.4980688136
0.8443819830762154	208972.26939476345
0.8445930785719846	209654.87718669084
0.8448042268416277	210337.65563056583
0.8450154278983382	211020.6047690517
0.8452266817553128	211703.72464482213
0.8454379884257517	212387.0153005616
0.8456493479228583	213239.91615561096
0.845860760259839	214133.83327416802
0.846072225449904	215027.97387200475
0.8462837435062666	215922.33800499112
0.8464953144421433	216816.92572901124
0.8467069382707537	217420.94718708555
0.8469186150053215	217798.45784411512
0.847130344659073	218176.06287880908
0.8473421272452377	218553.76231476132
0.8475539627770492	218931.55617557294
0.8477658512677435	219438.32107717692
0.8479777927305605	220218.86514307404
0.8481897871787432	220999.60434498743
0.848401834625538	221780.53873170176
0.8486139350841944	222561.66835201226
0.8488260885679657	223322.37075791237
0.8490382950901076	223831.88242423904
0.8492505546638802	224341.52146848253
0.8494628673025462	224851.28792248692
0.8496752330193721	225361.18181810554
0.8498876518276269	225871.20318719742
0.8501001237405839	225836.58302375974
0.8503126487715191	225693.20873763142
0.850525226933712	225549.79860793168
0.8507378582404455	225406.35262569948
0.8509505427050057	225262.87078197164
0.8511632803406821	225396.3454716997
0.8513760711607672	225719.54260482625
0.8515889151785576	226042.82053723658
0.8518018124073523	226366.17928912974
0.8520147628604541	226689.61888071068
0.8522277665511693	227286.6470682564
0.8524408234928071	228389.6440099088
0.8526539336986805	229492.91670079692
0.8528670971821053	230596.46520985782
0.8530803139564007	231700.2896060447
0.8532935840348901	232795.80502855874
0.8535069074308987	233819.0902110797
0.8537202841577566	234842.63121489712
0.8539337142287962	235866.42810396562
0.8541471976573534	236890.48094225576
0.8543607344567677	237914.78979375566
0.8545743246403821	238755.06238992538
0.8547879682215422	239566.27732547987
0.8550016652135977	240377.69506476814
0.8552154156299011	241189.31565849125
0.8554292194838088	242001.13915736342
0.8556430767886797	242629.54585365532
0.855856987557877	243146.62058397345
0.8560709518047664	243663.82458297384
0.8562849695427177	244181.15788297416
0.8564990407851035	244698.62051629965
0.8567131655452999	245217.397938195
0.8569273438366862	245738.24740944768
0.8571415756726455	246259.22709306824
0.8573558610665638	246780.33702160988
0.8575702000318304	247301.57722763313
0.8577845925818384	247832.8731985221
0.857999038729984	248426.30004074099
0.8582135384896665	249019.87523967028
0.858428091874289	249613.59883239932
0.8586426988972576	250207.4708560264
0.8588573595719821	250801.49134765958
0.8590720739118751	251285.95811512752
0.8592868419303532	251757.61177866528
0.8595016636408359	252229.3833556189
0.8597165390567462	252701.2728754666
0.8599314681915105	253173.2803676944
0.8601464510585584	253599.81885306744
0.860361487671323	254002.2667070566
0.8605765780432408	254404.81517300915
0.8607917221877518	254807.4642760785
0.8610069201182988	255210.21404142352
0.8612221718483286	255420.42274930296
0.8614374773912907	255352.96486384753
0.8616528367606385	255285.49011392076
0.8618682499698288	255217.99849530647
0.8620837170323213	255150.49000378753
0.8622992379615795	255215.1739247256
0.8625148127710699	255934.12713893977
0.8627304414742627	256653.26009145752
0.8629461240846313	257372.57282721356
0.8631618606156526	258092.06539115356
0.8633776510808066	258811.73782823444
0.8635934954935769	259501.6772764126
0.8638093938674504	260189.3371943633
0.8640253462159173	260877.16902729342
0.8642413525524714	261565.1728181818
0.8644574128906095	262253.34861001774
0.8646735272438323	262890.05627389206
0.8648896956256433	263502.90900386294
0.8651059180495498	264115.9149470163
0.8653221945290621	264729.0741416549
0.8655385250776946	265342.38662609295
0.8657549097089641	266096.45905897545
0.8659713484363913	267030.7273928826
0.8661878412735006	267965.22929387365
0.866404388233819	268899.9648203398
0.8666209893308775	269834.93403068715
0.8668376445782103	270670.65717450593
0.8670543539893549	271100.56164929265
0.8672711175778525	271530.5736001984
0.8674879353572469	271960.69305409136
0.8677048073410862	272390.92003784794
0.8679217335429217	272821.25457835075
0.8681387139763074	273050.89766112866
0.8683557486548015	273270.62296988326
0.8685728375919655	273490.4032099654
0.8687899808013633	273710.238395107
0.8690071782965637	273930.12853904517
0.869224430091138	274888.28096952493
0.8694417361986609	276147.0485609803
0.8696590966327107	277406.1308443333
0.869876511406869	278665.5278982572
0.8700939805347206	279925.23980144394
0.8703115040298544	281086.65411396953
0.870529081905862	282135.6161437324
0.8707467141763385	283184.84041400225
0.8709644008548827	284234.3269903397
0.8711821419550964	285284.07593832054
0.8713999374905854	286242.5423410004
0.871617787474958	286885.29486298945
0.8718356919218269	287528.20807310956
0.8720536508448075	288171.2820115323
0.8722716642575187	288814.51671843923
0.8724897321735832	289457.91223402316
0.8727078546066265	289904.0285933187
0.8729260315702784	290347.2527715462
0.873144263078171	290790.58775581775
0.8733625491439405	291234.0335738354
0.8735808897812266	291677.5902533077
0.8737992850036719	291636.73182306264
0.874017734824923	291424.25203635433
0.8742362392586293	291211.7191296994
0.874454798318444	290999.1330898178
0.8746734120180236	290786.49390342634
0.8748920803710283	290710.32274848066
0.875110803391121	290771.3233392874
0.8753295810919689	290832.339180242
0.875548413487242	290893.37027515675
0.8757673005906139	290954.4166278452
0.8759862424157616	291290.21495987196
0.8762052389763657	292421.0608998629
0.8764242902861098	293552.18955133803
0.8766433963586814	294683.6009849764
0.8768625572077712	295815.2952714735
0.8770817728470732	296936.67675208865
0.8773010432902849	297231.0507578685
0.8775203685511077	297525.4983571503
0.8777397486432454	297820.01956833154
0.8779591835804065	298114.61440981587
0.8781786733763015	298409.28290001024
0.8783982180446457	298145.6354180822
0.878617817599157	297715.8115437101
0.8788374720535569	297285.88021336973
0.8790571814215703	296855.84140019683
0.8792769457169257	296425.6950773206
0.879496764953355	295156.61208516435
0.8797166391445934	293133.0493366763
0.8799365683043796	291108.980697501
0.8801565524464557	289084.40604116593
0.8803765915845676	287059.3252411649
0.8805966857324639	286324.88645966793
0.880816834903897	288833.2414992939
0.881037039112623	291342.22362768074
0.8812572983724012	293851.8330015994
0.8814776126969944	296362.0697778627
0.8816979821001687	298722.62005648436
0.8819184065956938	297545.34227407153
0.8821388861973429	296367.7701722119
0.8823594209188923	295189.90367732797
0.882580010774122	294011.7427158208
0.8828006557768155	292833.2872140726
0.8830213559407598	292498.6590791453
0.8832421112797452	292376.2525337721
0.8834629218075651	292253.81538676267
0.8836837875380171	292131.34763046645
0.8839047084849018	292008.84925723117
0.884125684662023	292348.0538429793
0.8843467160831886	293057.363726946
0.8845678027622095	293766.8509383837
0.8847889447129001	294476.5155216244
0.8850101419490785	295186.3575210108
0.8852313944845657	295741.02394350857
0.885452702333187	295955.7802879238
0.8856740655087704	296170.5903214251
0.8858954840251476	296385.45405743475
0.8861169578961539	296600.3715093783
0.886338487135628	296633.8295316348
0.886560071757412	294251.8264666411
0.8867817117753515	291869.22790088115
0.8870034072032955	289486.03368547873
0.8872251580550963	287102.2436715252
0.8874469643446101	284717.8577100668
0.8876688260856963	286004.39445513225
0.8878907432922178	288051.1207039291
0.8881127159780409	290098.3586342869
0.8883347441570356	292146.10837412975
0.8885568278430749	294194.3700514054
0.8887789670500358	295975.0391919491
0.8890011617917983	297565.96716100903
0.8892234120822464	299157.29286206194
0.8894457179352669	300749.01639453886
0.8896680793647509	302341.1378579001
0.8898904963845921	302949.05075134826
0.8901129690086883	301678.4603119933
0.8903354972509405	300407.5522250289
0.8905580811252535	299136.3264110418
0.8907807206455347	297864.7827906028
0.8910034158256963	296520.8128387287
0.8912261666796527	294532.076322153
0.8914489732213227	292542.8426214476
0.8916718354646282	290553.111612315
0.8918947534234944	288562.8831704321
0.8921177271118502	286572.15717143996
0.8923407565436284	282788.2863681815
0.8925638417327644	278711.0401071326
0.8927869826931977	274632.774534517
0.8930101794388711	270553.48939550854
0.8932334319837308	266473.184435216
0.8934567403417267	262331.33875628543
0.8936801045268123	258150.8511608692
0.8939035245529441	253969.31844355696
0.8941270004340824	249786.74034306378
0.894350532184191	245603.1165980465
0.8945741198172371	246431.7220403472
0.8947977633471915	255574.453374065
0.8950214627880284	264719.4703906158
0.8952452181537254	273866.7736614153
0.8954690294582639	283016.36375803803
0.8956928967156286	290913.77824242937
0.8959168199398075	290672.14902242547
0.8961407991447926	290430.4593951165
0.8963648343445789	290188.7093454007
0.896588925553165	289946.8988581726
0.8968130727845534	289705.02791832265
0.8970372760527496	289041.91820336354
0.8972615353717629	288325.94482297037
0.8974858507556059	287609.792449232
0.8977102222182949	286893.46103740047
0.8979346497738496	286176.9505427155
0.8981591334362931	291782.85251036275
0.8983836732196523	300847.8326275053
0.8986082691379572	309915.07898967114
0.8988329212052417	318984.59216342756
0.8990576294355432	328056.3727154852
0.8992823938429022	334185.0464829269
0.8995072144413631	335935.8544954641
0.8997320912449734	337687.1002100039
0.8999570242677847	339438.7837359719
0.9001820135238516	341190.9051828215
0.9004070590272328	342606.9751442942
0.9006321607919896	342259.406283907
0.9008573188321878	341911.75053130434
0.9010825331618959	341564.00786476367
0.9013078037951865	341216.1782625563
0.9015331307461353	340868.2617029486
0.9017585140288219	341322.66031490744
0.9019839536573292	341846.28550358367
0.9022094496457435	342370.04159855674
0.9024350020081551	342893.9286325541
0.9026606107586572	343417.94663830975
0.902886275911347	346897.21158966754
0.9031119974803249	351801.9179359717
0.9033377754796951	356707.8504588625
0.903563609923565	361615.0094648818
0.903789500826046	366523.3952606559
0.9040154482012526	369724.176175488
0.904241452063303	370712.11466499674
0.9044675124263188	371700.3001391276
0.9046936293044254	372688.73265962687
0.9049198027117517	373677.41228825675
0.9051460326624297	374505.6933251029
0.9053723191705955	374650.114406948
0.9055986622503881	374794.5715940634
0.9058250619159507	374939.0648954756
0.9060515181814298	375083.59432021325
0.9062780310609752	375228.15987730696
0.9065046005687405	368660.35280807153
0.906731226718883	361716.43834726774
0.9069579095255627	354770.78790785786
0.907184649002944	347823.4010558376
0.907411445165195	340874.27735709725
0.9076382980264862	344531.93660834356
0.907865207600993	352596.2090783939
0.9080921739028933	360662.4976165593
0.9083191969463691	368730.802726858
0.9085462767456058	376801.12491343817
0.9087734133147922	381352.03611831536
0.9090006066681211	381836.79141266865
0.909227856819788	382321.6678958449
0.9094551637839932	382806.66559814266
0.9096825275749393	383291.78454986576
0.9099099482068329	384179.597859264
0.9101374256938848	386498.3848214463
0.9103649600503083	388817.7514803681
0.9105925512903209	391137.6979809541
0.9108201994281437	393458.2244681677
0.9110479044780008	395779.3310870005
0.9112756664541204	397893.768621379
0.911503485370734	400003.990863802
0.9117313612420768	402114.74066178565
0.9119592940823873	404226.0181472181
0.912187283905908	406337.8234520226
0.9124153307268845	401889.3389209749
0.9126434345595664	395058.5489021418
0.9128715954182063	388226.0511858105
0.9130998133170609	381391.84534504666
0.9133280882703902	374555.930952823
0.913556420292458	372962.34022228204
0.9137848093975312	376776.5993862071
