#wavelength	surface flux
0.8	3409568.445865859
0.8002000000000001	3422260.1549229785
0.8004000500000003	3435118.7012383253
0.8006001500125003	3447982.115361132
0.8008003000500035	3460848.745337471
0.8010005001250161	3473718.59197131
0.8012007502500472	3486591.6560667884
0.8014010504376099	3497906.1681044484
0.8016014007002193	3508700.363425452
0.8018018010503944	3519497.257295285
0.8020022515006572	3530296.8503885907
0.8022027520635323	3541099.1433801604
0.8024033027515483	3551804.227349192
0.8026039035772362	3562414.080079111
0.8028045545531306	3573026.585272213
0.8030052556917691	3583641.7435916183
0.803206007005692	3594259.5557005946
0.8034068085074435	3605073.3695451734
0.8036076602095705	3616431.8676373265
0.8038085621246229	3627793.205353994
0.8040095142651542	3639157.3834050973
0.8042105166437206	3650524.40250071
0.8044115692728815	3661837.817277014
0.8046126721651998	3670726.215309991
0.8048138253332411	3679616.8354424695
0.8050150287895745	3688509.678229989
0.805216282546772	3697404.7442282033
0.8054175866174087	3706302.0339929126
0.8056189410140631	3715716.7029858152
0.8058203457493168	3725279.547896474
0.8060218008357541	3734844.783518349
0.8062233062859632	3744412.4104491333
0.8064248621125346	3753982.429286644
0.806626468328063	3764412.490564375
0.8068281249451449	3775581.7768984917
0.8070298319763813	3786753.8555542054
0.8072315894343755	3797928.727229574
0.8074333973317341	3809106.3926228667
0.8076352556810671	3818606.7843349213
0.8078371644949874	3824065.3466936853
0.8080391237861113	3829525.2736930395
0.8082411335670578	3834986.5656741406
0.8084431938504498	3840449.2229782427
0.8086453046489125	3845872.3895913716
0.8088474659750746	3850536.239858232
0.8090496778415686	3855201.2560876654
0.809251940261029	3859867.4385711527
0.8094542532460944	3864534.787600265
0.8096566168094059	3869203.303466629
0.8098590309636085	3875239.0663115075
0.8100614957213493	3881596.0802403055
0.8102640110952797	3887954.683422587
0.8104665770980536	3894314.876255666
0.8106691937423283	3900676.659136956
0.8108718610407639	3907918.0792571595
0.8110745790060241	3915832.7060296806
0.8112773476507757	3923749.311458902
0.8114801669876885	3931667.8960394785
0.8116830370294355	3939588.4602661952
0.8118859577886929	3946990.323553079
0.8120889292781401	3953312.559932506
0.8122919515104597	3959636.376871028
0.8124950244983374	3965961.774763785
0.8126981482544621	3972288.7540060137
0.8129013227915257	3978736.480090176
0.8131045481222237	3986550.2766864374
0.8133078242592543	3994366.0267318487
0.8135111512153191	4002183.730714769
0.813714529003123	4010003.3891236866
0.8139179576353739	4017825.0024472075
0.8141214371247829	4038008.8394123698
0.8143249674840641	4060594.586245657
0.814528548725935	4083185.9795156387
0.8147321808631167	4105783.020633969
0.8149358639083326	4128385.7110125716
0.8151395978743097	4143836.957805757
0.8153433827737784	4154456.434244174
0.8155472186194719	4165078.5655516973
0.8157511054241268	4175703.3523920453
0.815955043200483	4186330.7954291105
0.8161590319612831	4195517.07975219
0.8163630717192736	4202060.044599508
0.8165671624872033	4208604.645188031
0.8167713042778252	4215150.881926707
0.8169754971038948	4221698.755224571
0.8171797409781707	4226973.85403511
0.8173840359134155	4222076.250272881
0.8175883819223938	4217177.4221097175
0.8177927790178745	4212277.36923951
0.8179972272126291	4207376.091356084
0.8182017265194322	4202473.588153192
0.8184062769510622	4208912.640486806
0.8186108785203001	4217098.7887228
0.8188155312399301	4225286.983495843
0.8190202351227402	4233477.225317587
0.819224990181521	4241669.514699782
0.8194297964290664	4260399.575902573
0.8196346538781738	4285484.7084215805
0.8198395625416434	4310576.112223708
0.8200445224322789	4335673.788876796
0.820249533562887	4360777.739949041
0.8204545959462778	4380448.834002189
0.8206597095952644	4391370.708091593
0.8208648745226633	4402295.3126495285
0.8210700907412941	4413222.648358601
0.8212753582639793	4424152.71590159
0.8214806771035456	4432839.935803797
0.8216860472728215	4427693.817847664
0.8218914687846397	4422546.413362041
0.822096941651836	4417397.722025295
0.822302465887249	4412247.743515718
0.8225080415037209	4407096.477511509
0.8227136685140968	4419264.235846826
0.8229193469312254	4433401.253544202
0.8231250767679583	4447541.805496007
0.8233308580371503	4461685.8925857935
0.8235366907516598	4475833.515697362
0.8237425749243477	4490523.977386653
0.8239485105680789	4505503.951058133
0.824154497695721	4520487.66972302
0.824360536320145	4535475.134317576
0.8245666264542252	4550466.34577828
0.8247727681108388	4564231.653317281
0.8249789613028664	4576239.30947744
0.8251852060431922	4588249.9675516505
0.825391502344703	4600263.628290373
0.8255978502202894	4612280.2924442915
0.8258042496828445	4623648.425121494
0.8260107007452654	4631855.171099191
0.8262172034204517	4640063.968763374
0.8264237577213068	4648274.818626976
0.8266303636607373	4656487.721203047
0.8268370212516525	4664702.677004757
0.8270437305069654	4667582.37349846
0.8272504914395923	4670045.713589649
0.8274573040624523	4672509.669515859
0.8276641683884679	4674974.241431051
0.8278710844305652	4677439.429489223
0.8280780522016729	4684955.231261904
0.8282850717147234	4694781.256452803
0.8284921429826521	4704609.738149988
0.8286992660183978	4714440.676967606
0.8289064408349024	4724274.073519922
0.8291136674451112	4732064.060091013
0.8293209458619727	4737276.256711295
0.8295282760984382	4742489.756380726
0.829735658167463	4747704.559425079
0.8299430920820048	4752920.666170187
0.8301505778550254	4758443.490315856
0.8303581154994891	4765186.6893792525
0.8305657050283641	4771931.574242421
0.8307733464546212	4778678.145326801
0.8309810397912352	4785426.403053962
0.8311887850511829	4792176.347845541
0.8313965822474458	4808687.893161086
0.8316044313930077	4825656.575554521
0.8318123325008561	4842629.50011857
0.8320202855839813	4859606.667913752
0.8322282906553774	4876588.080000884
0.8324363477280413	4886121.721165156
0.8326444568149735	4892657.5902767535
0.8328526179291771	4899195.093355621
0.8330608310836596	4905734.230810268
0.8332690962914304	4912275.003049269
0.8334774135655034	4918134.39154152
0.833685782918895	4923232.290295276
0.8338942043646247	4928331.463523718
0.834102677915716	4933431.911545469
0.834311203585195	4938533.6346792225
0.8345197813860912	4946093.8613899425
0.8347284113314379	4961927.237887657
0.8349370934342709	4977764.572729488
0.8351458277076294	4993605.86690501
0.8353546141645565	5009451.121404102
0.8355634528180977	5025300.337216812
0.8357723436813022	5018251.532260554
0.8359812867672226	5010918.18396664
0.8361902820889144	5003583.002335657
0.8363993296594368	4996245.986909264
0.8366084294918518	4988907.137229012
0.8368175815992247	4998531.697656331
0.8370267859946247	5014001.668792386
0.8372360426911234	5029475.50742122
0.8374453517017962	5044953.214509709
0.8376547130397217	5060434.791024969
0.8378641267179816	5071801.833368098
0.8380735927496613	5079085.189559293
0.8382831111478488	5086370.366589531
0.8384926819256358	5093657.364914023
0.8387023050961173	5100946.184988103
0.8389119806723914	5108258.350865624
0.8391217086675596	5115632.919223653
0.8393314890947265	5123009.331223765
0.8395413219670003	5130387.587326879
0.8397512072974922	5137767.687994023
0.8399611450993165	5145360.373330673
0.8401711353855914	5163420.2122627245
0.8403811781694378	5181484.566154505
0.8405912734639802	5199553.436134762
0.8408014212823464	5217626.823332523
0.8410116216376671	5235704.728877081
0.8412218745430766	5251716.126320295
0.8414321800117124	5267128.937505936
0.8416425380567154	5282545.601894382
0.8418529486912297	5297966.120448929
0.8420634119284025	5313390.494133101
0.8422739277813847	5324173.935174615
0.8424844962633302	5330867.832964774
0.842695117387396	5337563.404229372
0.8429057911667428	5344260.649386786
0.8431165176145345	5350959.568855493
0.8433272967439382	5357818.611122992
0.8435381285681244	5365065.86692884
0.8437490131002665	5372314.934548639
0.8439599503535415	5379565.814435337
0.84417094034113	5386818.507042012
0.8443819830762154	5394258.562839325
0.8445930785719846	5405438.399615053
0.8448042268416277	5416621.031349969
0.8450154278983382	5427806.458742818
0.8452266817553128	5438994.682492514
0.8454379884257517	5450185.70329815
0.8456493479228583	5461342.056787743
0.845860760259839	5472492.177326273
0.846072225449904	5483645.0853949385
0.8462837435062666	5494800.781690623
0.8464953144421433	5505959.266910387
0.8467069382707537	5515263.307965349
0.8469186150053215	5523122.018333287
0.847130344659073	5530982.693378819
0.8473421272452377	5538845.333593105
0.8475539627770492	5546709.9394674525
0.8477658512677435	5555214.564503637
0.8479777927305605	5565076.137243454
0.8481897871787432	5574940.175376453
0.848401834625538	5584806.679518992
0.8486139350841944	5594675.65028756
0.8488260885679657	5604296.432195634
0.8490382950901076	5610864.210384484
0.8492505546638802	5617433.630517886
0.8494628673025462	5624004.693006319
0.8496752330193721	5630577.398260384
0.8498876518276269	5637151.746690753
0.8501001237405839	5629244.395048561
0.8503126487715191	5618443.936805361
0.850525226933712	5607640.778447606
0.8507378582404455	5596834.919300262
0.8509505427050057	5586026.358688124
0.8511632803406821	5580070.716058528
0.8513760711607672	5577438.795156812
0.8515889151785576	5574806.216274867
0.8518018124073523	5572172.979248203
0.8520147628604541	5569539.083912285
0.8522277665511693	5577739.854721346
0.8524408234928071	5605981.298864041
0.8526539336986805	5634229.8033677805
0.8528670971821053	5662485.369997648
0.8530803139564007	5690748.000519139
0.8532935840348901	5718606.957565214
0.8535069074308987	5743003.9774834225
0.8537202841577566	5767407.096656633
0.8539337142287962	5791816.316609638
0.8541471976573534	5816231.638867617
0.8543607344567677	5840653.064956164
0.8545743246403821	5855194.675501721
0.8547879682215422	5868169.9242206365
0.8550016652135977	5881148.41675173
0.8552154156299011	5894130.153905957
0.8554292194838088	5907115.136494482
0.8556430767886797	5918168.571842774
0.855856987557877	5928050.015046217
0.8560709518047664	5937933.928610454
0.8562849695427177	5947820.313153086
0.8564990407851035	5957709.169291858
0.8567131655452999	5967529.17954586
0.8569273438366862	5977234.787717454
0.8571415756726455	5986942.822291093
0.8573558610665638	5996653.283873378
0.8575702000318304	6006366.173071049
0.8577845925818384	6016253.119185469
0.857999038729984	6027214.593090474
0.8582135384896665	6038178.8073639525
0.858428091874289	6049145.762691
0.8586426988972576	6060115.459756876
0.8588573595719821	6071087.899247023
0.8590720739118751	6080037.400406418
0.8592868419303532	6088750.305046542
0.8595016636408359	6097465.387912826
0.8597165390567462	6106182.649549822
0.8599314681915105	6114902.090502231
0.8601464510585584	6120433.835876711
0.860361487671323	6124273.800572391
0.8605765780432408	6128114.7252592435
0.8607917221877518	6131956.610177271
0.8610069201182988	6135799.455566527
0.8612221718483286	6110172.6624760395
0.8614374773912907	6042053.6056939885
0.8616528367606385	5973917.51914776
0.8618682499698288	5905764.398579852
0.8620837170323213	5837594.239731813
0.8622992379615795	5779746.507449947
0.8625148127710699	5773050.384597322
0.8627304414742627	5766352.587713982
0.8629461240846313	5759653.116381421
0.8631618606156526	5752951.9701810265
0.8633776510808066	5746249.148694082
0.8635934954935769	5832299.649627267
0.8638093938674504	5925974.958142045
0.8640253462159173	6019673.685483948
0.8642413525524714	6113395.837507685
0.8644574128906095	6207141.420069408
0.8646735272438323	6215892.814489837
0.8648896956256433	6185110.84562265
0.8651059180495498	6154321.181263246
0.8653221945290621	6123523.81948778
0.8655385250776946	6092718.758371828
0.8657549097089641	6090985.6528913565
0.8659713484363913	6126480.4674138175
0.8661878412735006	6161984.155639925
0.866404388233819	6197496.719788085
0.8666209893308775	6233018.162077265
0.8668376445782103	6263080.608021327
0.8670543539893549	6270833.389025429
0.8672711175778525	6278588.108224789
0.8674879353572469	6286344.766103938
0.8677048073410862	6294103.363147561
0.8679217335429217	6301863.89984045
0.8681387139763074	6319854.532446941
0.8683557486548015	6338357.771432186
0.8685728375919655	6356865.636227198
0.8687899808013633	6375378.12798837
0.8690071782965637	6393895.247872506
0.869224430091138	6400225.069215733
0.8694417361986609	6401595.592996331
0.8696590966327107	6402966.459407873
0.869876511406869	6404337.6685360195
0.8700939805347206	6405709.220466447
0.8703115040298544	6409202.06285505
0.870529081905862	6415120.635094265
0.8707467141763385	6421040.686976539
0.8709644008548827	6426962.2188717825
0.8711821419550964	6432885.231149996
0.8713999374905854	6440879.036433024
0.871617787474958	6456016.754718901
0.8718356919218269	6471158.257434362
0.8720536508448075	6486303.545525503
0.8722716642575187	6501452.619938659
0.8724897321735832	6516605.4816204235
0.8727078546066265	6530292.634703796
0.8729260315702784	6543960.853708402
0.873144263078171	6557632.489767744
0.8733625491439405	6571307.543736103
0.8735808897812266	6584986.016467959
0.8737992850036719	6591154.9173476985
0.874017734824923	6594664.382408286
0.8742362392586293	6598174.724835139
0.874454798318444	6601685.944847598
0.8746734120180236	6605198.042665059
0.8748920803710283	6611516.937325782
0.875110803391121	6620657.09275624
0.8753295810919689	6629799.533225561
0.875548413487242	6638944.259304999
0.8757673005906139	6648091.271565957
0.8759862424157616	6661700.782279083
0.8762052389763657	6688219.528410743
0.8764242902861098	6714744.904228918
0.8766433963586814	6741276.911391055
0.8768625572077712	6767815.551554991
0.8770817728470732	6794138.071394854
0.8773010432902849	6803075.024768545
0.8775203685511077	6812014.212380593
0.8777397486432454	6820955.634789532
0.8779591835804065	6829899.292554084
0.8781786733763015	6838845.186233065
0.8783982180446457	6825462.743601034
0.878617817599157	6805434.027345358
0.8788374720535569	6785400.303910627
0.8790571814215703	6765361.572045043
0.8792769457169257	6745317.830496491
0.879496764953355	6734904.216025613
0.8797166391445934	6733150.620072105
0.8799365683043796	6731396.585719609
0.8801565524464557	6729642.112858524
0.8803765915845676	6727887.201379223
0.8805966857324639	6735759.34425406
0.880816834903897	6767814.831582398
0.881037039112623	6799878.332782582
0.8812572983724012	6831949.849858062
0.8814776126969944	6864029.384812826
0.8816979821001687	6895708.836893397
0.8819184065956938	6917789.401224233
0.8821388861973429	6939875.485696173
0.8823594209188923	6961967.091689211
0.882580010774122	6984064.220583737
0.8828006557768155	7006166.873760498
0.8830213559407598	7027945.900828104
0.8832421112797452	7049647.587640587
0.8834629218075651	7071354.6998747615
0.8836837875380171	7093067.238887001
0.8839047084849018	7114785.206033997
0.884125684662023	7110288.692260176
0.8843467160831886	7084779.144830131
0.8845678027622095	7059263.22001323
0.8847889447129001	7033740.916215119
0.8850101419490785	7008212.231841064
0.8852313944845657	7005692.874747172
0.885452702333187	7053551.452910653
0.8856740655087704	7101421.995718669
0.8858954840251476	7149304.506162374
0.8861169578961539	7197198.987233668
0.886338487135628	7240192.449913803
0.886560071757412	7217817.477530112
0.8867817117753515	7195436.911403324
0.8870034072032955	7173050.750134995
0.8872251580550963	7150658.992326376
0.8874469643446101	7128261.63657829
0.8876688260856963	7146637.218494289
0.8878907432922178	7173457.035146014
0.8881127159780409	7200283.556751885
0.8883347441570356	7227116.784988191
0.8885568278430749	7253956.721531527
0.8887789670500358	7265471.430108379
0.8890011617917983	7266112.944659245
0.8892234120822464	7266754.6195887495
0.8894457179352669	7267396.454936985
0.8896680793647509	7268038.450744058
0.8898904963845921	7267247.583728171
0.8901129690086883	7263722.272775998
0.8903354972509405	7260196.080496089
0.8905580811252535	7256669.006668107
0.8907807206455347	7253141.051071672
0.8910034158256963	7247880.6390571175
0.8912261666796527	7227143.893832109
0.8914489732213227	7206401.964420787
0.8916718354646282	7185654.849527093
0.8918947534234944	7164902.547854695
0.8921177271118502	7144145.058106892
0.8923407565436284	7131864.62702411
0.8925638417327644	7120964.81113167
0.8927869826931977	7110062.2702852525
0.8930101794388711	7099157.003803625
0.8932334319837308	7088249.011005378
0.8934567403417267	7090795.868145676
0.8936801045268123	7101705.661907231
0.8939035245529441	7112618.183117221
0.8941270004340824	7123533.432457516
0.894350532184191	7134451.410610144
0.8945741198172371	7167090.599463341
0.8947977633471915	7235755.45853272
0.8950214627880284	7304437.483816865
0.8952452181537254	7373136.679607289
0.8954690294582639	7441853.050196703
0.8956928967156286	7502726.861934746
0.8959168199398075	7512608.992730578
0.8961407991447926	7522493.594059113
0.8963648343445789	7532380.66653798
0.896588925553165	7542270.21078496
0.8968130727845534	7552162.227418004
0.8970372760527496	7554695.221020269
0.8972615353717629	7556307.776470034
0.8974858507556059	7557920.735058662
0.8977102222182949	7559534.096886936
0.8979346497738496	7561147.862055667
0.8981591334362931	7587554.602038387
0.8983836732196523	7627526.418028588
0.8986082691379572	7667508.226972761
0.8988329212052417	7707500.031369169
0.8990576294355432	7747501.833716711
0.8992823938429022	7772243.6447318755
0.8995072144413631	7774287.10393725
0.8997320912449734	7776331.074007425
0.8999570242677847	7778375.555070118
0.9001820135238516	7780420.547253076
0.9004070590272328	7784630.707473052
0.9006321607919896	7800189.789622078
0.9008573188321878	7815752.761541657
0.9010825331618959	7831319.624204208
0.9013078037951865	7846890.378582427
0.9015331307461353	7862465.025649234
0.9017585140288219	7884083.431469901
0.9019839536573292	7906227.47112772
0.9022094496457435	7928377.046795435
0.9024350020081551	7950532.159857093
0.9026606107586572	7972692.81169701
0.902886275911347	7994892.057945315
0.9031119974803249	8017112.7884522695
0.9033377754796951	8039339.074141852
0.903563609923565	8061570.916402847
0.903789500826046	8083808.316624422
0.9040154482012526	8096830.031147098
0.904241452063303	8097909.683287762
0.9044675124263188	8098989.605341461
0.9046936293044254	8100069.7973756725
0.9049198027117517	8101150.259457894
0.9051460326624297	8106023.9484037645
0.9053723191705955	8127050.147983567
0.9055986622503881	8148081.604113244
0.9058250619159507	8169118.318106956
0.9060515181814298	8190160.291279178
0.9062780310609752	8211207.524944679
0.9065046005687405	8207634.806838154
0.906731226718883	8202687.427691326
0.9069579095255627	8197738.811699716
0.907184649002944	8192788.95855411
0.907411445165195	8187837.867945211
0.9076382980264862	8204344.494371873
0.907865207600993	8229767.1116431495
0.9080921739028933	8255196.084568736
0.9083191969463691	8280631.41473755
0.9085462767456058	8306073.103738918
0.9087734133147922	8325298.981734145
0.9090006066681211	8337342.981073837
0.909227856819788	8349389.991413348
0.9094551637839932	8361440.013505461
0.9096825275749393	8373493.048103092
0.9099099482068329	8386076.518561762
0.9101374256938848	8400537.603962306
0.9103649600503083	8415002.304634193
0.9105925512903209	8429470.621481245
0.9108201994281437	8443942.555407524
0.9110479044780008	8458418.107317267
0.9112756664541204	8473843.915316178
0.911503485370734	8489295.248125732
0.9117313612420768	8504750.44376849
0.9119592940823873	8520209.503210153
0.912187283905908	8535672.42741668
0.9124153307268845	8529757.8982997
0.9126434345595664	8516081.721505282
0.9128715954182063	8502402.125666678
0.9130998133170609	8488719.109929109
0.9133280882703902	8475032.673437605
0.913556420292458	8475196.248903304
0.9137848093975312	8489647.115851276
0.9140132555998806	8504101.595515981
0.9142417589137806	8518559.688800603
0.9144703193535092	8533021.396608556
0.9146989369333476	8544628.787998965
0.9149276116675811	8547619.469664747
0.9151563435704979	8550610.899000943
0.9153851326563907	8553603.076194474
0.9156139789395548	8556596.001432305
