#wavelength	surface flux
0.676892	159969.70289292236
0.678297	164085.94359891638
0.679702	168093.1235664166
0.681109	172102.36826861452
0.682517	176251.7309462291
0.683926	180402.07578528757
0.685337	184494.593578621
0.686749	188634.79090087864
0.688164	192765.27261224872
0.689581	196676.22704363483
0.691	199226.51430431468
0.692422	200142.50628092658
0.693847	206127.30100807996
0.695274	213058.21474760585
0.696705	218234.55620312114
0.698139	222331.8816602063
0.699576	226673.78646646516
0.701017	230738.136252735
0.702461	234013.25881708195
0.70391	239804.70164067458
0.705362	245542.09459915047
0.706819	249661.0351436246
0.70828	253944.87065661247
0.709745	258137.54605005885
0.711216	263584.3484943143
0.71269	268076.69049483427
0.71417	271977.33103924827
0.715655	273127.1194511685
0.717145	271896.57884528476
0.71864	279595.24196447665
0.72014	284592.8954471579
0.721647	287680.2188799088
0.723158	290164.2119916426
0.724676	291548.3728705932
0.726199	293499.8151015398
0.727728	297879.9553671739
0.729264	296993.29107912275
0.730805	300289.1748247398
0.732353	306639.59718331636
0.733907	307927.49156681716
0.735468	309522.200843117
0.737035	309611.4730580532
0.738609	311111.0884840973
0.74019	310240.5933282709
0.741777	304709.6347968918
0.743372	299857.8651083289
0.744973	294185.80555575783
0.746582	284520.8381270282
0.748197	272234.07177720836
0.74982	256640.93832967375
0.751451	236968.39382316248
0.753088	212804.28247811057
0.754734	184593.5114659604
0.756386	152583.10077181394
0.758047	117497.91631050692
0.759715	82376.45218332285
0.76139	49180.25331320161
0.763074	22430.877427340074
0.764765	6519.160191528704
0.766464	1093.9487961252544
0.768172	1460.3229657220534
0.769887	1723.0669707017641
0.77161	12414.250963946572
0.773341	40350.31437876879
0.775081	81943.05320439485
0.776829	129598.02104691681
0.778585	161795.93614643315
0.780349	187971.6426199483
0.782121	271659.83712742245
0.783902	334989.9059340582
0.785691	383415.361356599
0.787489	427048.25248892035
0.789295	465405.7049731595
0.79111	494916.7467945424
0.792933	416416.85616196546
0.794764	225460.75132911894
0.796604	511522.8045516801
0.798453	624564.4845320405
0.80031	657228.169307581
0.802176	684464.8267897073
0.804051	709738.2768831903
0.805934	734170.1852186691
0.807826	754701.097533283
0.809727	761806.7844280454
0.811636	769672.8700715997
0.813554	786807.7165694336
0.81548	835028.3041912272
0.817416	861337.0967666948
0.81936	884972.8970535826
0.821313	905047.835724848
0.823274	911986.7971858354
0.825244	952826.5146566104
0.827223	974388.7499593066
0.829211	983562.5408759305
0.831208	998857.8733828611
0.833213	1031430.7693610415
0.835227	1049814.4322868919
0.837249	1056231.8893940027
0.83928	1082426.057898245
0.841321	1129879.2361835008
0.843369	1167016.2039698607
0.845427	1193125.3032257017
0.847493	1221863.7452992958
0.849567	1241325.3967826904
0.851651	1242948.251360562
0.853742	1286392.6444331084
0.855843	1332376.065470032
0.857952	1361309.4758367587
0.86007	1386221.1689148324
0.862196	1386874.7151965424
0.864331	1417590.2903299357
0.866474	1452780.7717581375
0.868626	1482295.8633789683
0.870786	1516132.419319528
0.872955	1547069.4334159754
0.875132	1564625.4239930827
0.877317	1592220.7607125314
0.879511	1597222.8367397105
0.881713	1621466.560133685
0.883923	1647818.126000104
0.886142	1663114.491440647
0.888369	1676916.3071205844
0.890604	1685023.2643867137
0.892847	1619077.2053190544
0.895099	1638127.053370221
0.897358	1724984.487024888
0.899626	1824823.0871357291
0.901901	1883034.9952840551
0.904185	1950002.0388544616
0.906476	1971073.5429103442
0.908776	2003944.8310212083
0.911083	2068000.1195966671
0.913398	2060986.7585870854
0.915721	2056413.2478968932
0.918051	2026931.3394485146
0.92039	2171293.797822681
0.922736	2189350.680166298
0.925089	2027442.942554796
0.927451	1663240.9820209923
0.929819	1275808.607796785
0.932195	1555923.1835011186
0.934579	1508298.974742147
0.93697	1666639.0770437852
0.939369	1951892.8114334245
0.941774	1987401.0392596785
0.944187	1662248.1829663008
0.946607	1553095.9861871672
0.949035	1873467.8300002092
0.951469	1815728.7484127928
0.953911	1901308.8131410342
0.956359	2294576.0527398735
0.958814	1880956.0238178906
0.961277	1709423.4476426349
0.963746	1786583.548089674
0.966222	1858365.4406173346
0.968705	1851424.3174900657
0.971194	2402028.8186374255
0.97369	2652497.3547852635
0.976193	2546609.4694906836
0.978702	2736228.719762232
0.981217	2788901.9486872954
0.983739	2888009.7743062195
0.986268	2947793.880417368
0.988802	3102482.46183122
0.991343	3250951.6883898736
0.99389	3299879.1731642643
0.996444	3421213.313793433
0.999003	3493525.7193900733
1.00157	3529275.615744509
1.00414	3597873.064192769
1.00672	3704334.006041644
1.0093	3787180.5903228875
1.01189	3870650.713344072
1.01448	3983292.5635148827
1.01708	4052845.6315197907
1.01969	4115816.004671152
1.0223	4155577.5926740104
1.02492	4110269.0133689977
1.02754	4207801.845068734
1.03017	4112192.9496972556
1.0328	4397052.1770905275
1.03544	4494671.613091135
1.03808	4563756.320572085
1.04073	4633569.576464049
1.04339	4699527.23339866
1.04604	4760604.1334461095
1.04871	4783985.815078511
1.05138	4829833.288491944
1.05405	4929035.341667031
1.05673	5015243.919304804
1.05941	5083495.56557768
1.0621	5143075.312500217
1.06479	5206222.574871388
1.06749	5265150.548443883
1.07019	5285084.57760945
1.07289	5364517.958640093
1.0756	5453156.073053786
1.07832	5497436.527072088
1.08104	5577130.127952697
1.08376	5652579.128576756
1.08649	5675711.56270821
1.08922	5618579.263325601
1.09195	5541704.556006747
1.09469	5485043.277362062
1.09743	5529756.550597456
1.10018	4410781.930819273
1.10293	3417034.0511603574
1.10568	2822092.5369807133
1.10844	4118801.872991886
1.1112	3619413.2001160746
1.11396	2877898.8270687456
1.11673	2859476.255271632
1.1195	2852725.442429922
1.12228	2196574.1953053824
1.12505	3192349.026161663
1.12783	3209589.651591069
1.13062	3318010.6153826895
1.13341	1826079.7353096101
1.1362	2977123.0015795175
1.13899	4206274.288430687
1.14178	3808442.5577268843
1.14458	4400476.574394115
1.14738	4961785.667647661
1.15019	3312093.3460274385
1.153	1485542.3372326714
1.1558	1929257.1976333847
1.15862	2091412.6640693871
1.16143	2247238.116264123
1.16425	3254913.662100691
1.16707	4365119.668131141
1.16989	3724063.554202741
1.17271	4171495.8905551704
1.17554	5268483.227285826
1.17837	6038188.054805958
1.1812	6319384.057995749
1.18403	7038284.154196015
1.18686	6997018.971752154
1.1897	7009851.151399046
1.19253	7681217.275129151
1.19537	8004775.298450064
1.19822	8175167.708210327
1.20106	8400576.419573063
1.2039	8264499.072292451
1.20675	8520605.571225004
1.2096	8650008.56543661
1.21245	8660756.197449217
1.2153	8959291.146326214
1.21815	9127560.693396801
1.221	9251162.12793021
1.22385	9414085.586876495
1.22671	9586487.75322226
1.22957	9684382.469748693
1.23242	9716204.588763775
1.23528	9848218.37477083
1.23814	10001375.86878564
1.241	10102614.485988162
1.24387	10202184.32569162
1.24673	10283675.810575664
1.24959	10323491.31631596
1.25245	10292597.222873252
1.25532	10546902.726076428
1.25818	10689170.637830073
1.26105	10672096.847964818
1.26392	10707090.020693416
1.26678	10794470.696450958
1.26965	10817494.199548293
1.27252	10803259.5745568
1.27538	11007609.665234987
1.27825	11036037.61535726
1.28112	10900321.862792205
1.28399	11093259.88425433
1.28686	10977017.752659086
1.28973	10648180.199530164
1.2926	10486525.920022784
1.29546	10785986.589284811
1.29833	10985113.562573696
1.3012	10476631.560160147
1.30407	10428229.90847434
1.30694	10328140.679106629
1.30981	10654387.54037764
1.31267	10268484.816718854
1.31554	10902046.845026437
1.31841	11517576.143962713
1.32128	10632090.491275076
1.32414	9343068.734607533
1.32701	8998971.383508518
1.32987	7331834.732178409
1.33274	4166265.2983286977
1.3356	2659120.222271603
1.33847	907378.3297600178
1.34133	284149.17305564834
1.34419	719789.0622529623
1.34705	991453.0970833707
1.34991	477213.9757083642
1.35277	196339.42014295934
1.35563	303520.9796397563
1.35849	326741.3712843049
1.36135	132754.47877931703
1.3642	327145.37839457224
1.36706	344828.9202082424
1.36991	265437.7329663442
1.37277	863747.8967365779
1.37562	1792920.924564246
1.37847	2083626.399321873
1.38132	764615.8964862817
1.38417	80934.97074213029
1.38701	184351.93998797424
1.38986	142481.96840823448
1.39271	185022.39406886976
1.39555	301477.4606807603
1.39839	229445.54601462954
1.40123	494023.020623803
1.40407	936761.8804529252
1.40691	1307812.6623890903
1.40974	635553.7542376814
1.41258	171884.27806137048
1.41541	473402.332703971
1.41824	606525.7947060993
1.42107	314515.95638583926
1.4239	210238.34799620963
1.42673	510652.6061897318
1.42955	868685.100045875
1.43237	584990.2618780702
1.43519	1092192.450953133
1.43801	724032.8853469802
1.44083	910631.7805425115
1.44365	1492000.3592354106
1.44646	1678151.5640603655
1.44927	3268692.4844010393
1.45208	4183822.759065216
1.45489	3212791.3183089085
1.45769	4025662.224187581
1.4605	4592920.799706402
1.4633	4802734.134857196
1.4661	5128418.209826395
1.4689	3598984.494882083
1.47169	3817543.2686790666
1.47449	3622069.7825439614
1.47728	3565726.695315306
1.48007	3663452.3180324445
1.48286	5399327.088963695
1.48564	6814913.327040868
1.48842	6868887.590083627
1.4912	7063659.450933677
1.49398	6714299.02957586
1.49676	5782901.742048062
1.49953	7171428.341740066
1.5023	8686585.140540633
1.50507	8552645.06067441
1.50784	7949856.621001469
1.51061	8384473.237090892
1.51337	9011088.775178479
1.51613	9953611.770950288
1.51888	11011775.720820334
1.52164	12557869.653084021
1.52439	13482821.96082126
1.52714	12806102.582440462
1.52989	12537958.706121664
1.53263	13360118.280761153
1.53538	14281213.159013813
1.53812	14432599.32610494
1.54086	14346722.762040207
1.54359	14445021.415026667
1.54632	15189518.613036212
1.54905	15275594.06671501
1.55178	15972608.756053701
1.5545	15863506.413659431
1.55723	15313387.023396865
1.55995	15526429.978377169
1.56266	16042800.395129586
1.56538	17014100.82141921
1.56809	17528572.7122299
1.5708	17415571.338884294
1.57351	16725785.201335529
1.57621	16089296.186638104
1.57891	14797740.729467373
1.58161	15838653.760153973
1.5843	17964290.91799276
1.587	18393716.073025495
1.58969	18300590.277869787
1.59238	18105656.578612104
1.59506	17623708.176646173
1.59774	17097948.397562344
1.60042	16708499.31929402
1.6031	16762927.065794062
1.60577	17070127.051196437
1.60844	17121189.13892809
1.61111	16714230.340693373
1.61378	16091143.005893493
1.61644	15769525.489103358
1.6191	15141174.780973189
1.62176	14290536.024563413
1.62441	13770491.686296405
1.62707	13169578.647084182
1.62971	11867959.239216473
1.63236	11313574.731959617
1.635	13609456.938434469
1.63764	16820853.834624365
1.64028	17835832.817003153
1.64292	17552027.507016912
1.64555	16082463.45258335
1.64818	13480680.254818931
1.65081	13313943.030272916
1.65343	15420646.64274921
1.65605	16171732.400218524
1.65867	16395718.952233238
1.66128	15881776.295656472
1.6639	13373980.88211831
1.66651	8533966.168896347
1.66911	7666227.203965521
1.67172	11735620.258658541
1.67432	14690802.312912934
1.67692	14466068.776424693
1.67951	13086629.696400395
1.68211	13251503.28036097
1.6847	13454432.443832854
1.68728	12437943.887962904
1.68987	11935039.926162109
1.69245	11003283.759602394
1.69503	8669633.97919675
1.6976	7382485.384599408
1.70018	8686100.507454924
1.70275	8666237.1870024
1.70531	9106289.97597073
1.70788	10629493.285916455
1.71044	10534025.818474866
1.713	11399361.887334416
1.71556	12266253.23091696
1.71811	12874144.34194245
1.72066	13893799.04303087
1.72321	13633132.568149371
1.72575	13099233.971514875
1.7283	12707614.661524806
1.73084	11998695.034085246
1.73337	11125432.58788237
1.73591	10534630.223237647
1.73844	10469393.237178724
1.74097	10670537.170730626
1.74349	10035618.847757308
1.74602	9085004.783355659
1.74854	8642857.45274532
1.75105	7777286.640269716
1.75357	6508245.530772534
1.75608	7670626.820003217
1.75859	10248966.24067337
1.7611	11126081.837365774
1.7636	10561787.170990622
1.7661	8288308.056436231
1.7686	6508351.418744366
1.7711	4911010.792043086
1.77359	3382691.4895296986
1.77608	2011175.4593598503
1.77857	1410241.5145957158
1.78105	1739305.7846855766
1.78354	2106574.742864945
1.78602	1636477.4022305822
1.78849	1185503.7325390293
1.79097	1581527.0564238871
1.79344	2304173.6410636986
1.79591	3265710.950472949
1.79837	4377407.599591519
1.80084	2726807.8550053933
1.8033	1063282.3831634447
1.80576	469790.0100174024
1.80821	318441.25827301096
1.81067	999952.9615770907
1.81312	1563710.2539237777
1.81557	832566.0341825492
1.81801	429717.40592555475
1.82046	1078709.4958721208
1.8229	1638399.742435104
1.82533	1078509.6575228826
1.82777	346135.5086350315
1.8302	206520.2657856891
1.83263	416677.58725749055
1.83506	754100.9701995524
1.83749	1273205.8775778809
1.83991	1516910.7410614216
1.84233	1172135.9128943884
1.84475	1066780.2122063488
1.84716	1289651.4920358493
1.84957	1749416.3576809734
1.85198	1767905.6969441155
1.85439	899382.5047496049
1.8568	587587.8946217104
1.8592	761585.6193586526
1.8616	574627.1405721608
1.864	280049.00844967895
1.86639	224845.20129688684
1.86878	361571.92291274737
1.87118	693732.0461542477
1.87356	1128954.5568291522
1.87595	1457080.9188152312
1.87833	2476477.439232126
1.88071	4100641.4492431697
1.88309	3980311.572479949
1.88547	2955001.8297962453
1.88784	2613270.5580062717
1.89021	2384237.740768221
1.89258	4000232.9314115974
1.89494	5311588.750266571
1.89731	3361103.983413353
1.89967	1167677.3727160143
1.90203	311540.4393589273
1.90439	265190.4748892321
1.90674	465563.0638089881
1.90909	509259.37864847487
1.91144	321752.22205099877
1.91379	144950.57318235142
1.91613	135065.68503270534
1.91848	256959.7725138748
1.92082	403196.50394138915
1.92315	398290.3450286401
1.92549	287542.1659078342
1.92782	332819.9485532245
1.93015	509711.3905294271
1.93248	672515.0850611232
1.93481	709617.328742962
1.93713	622054.3827897054
1.93945	663939.2680673534
1.94177	910292.0717906527
1.94409	1087208.478459973
1.94641	1136624.900682763
1.94872	1445098.6682476988
1.95103	1808199.4837624584
1.95334	1184174.0638832666
1.95564	779666.0542137306
1.95795	912501.0261341042
1.96025	953215.4286030893
1.96255	979013.6481239491
1.96484	1213604.347909016
1.96714	1836582.630499497
1.96943	2692765.8875425262
1.97172	3201450.8773587537
1.97401	2913907.6989747635
1.97629	3153719.6407372053
1.97858	4036985.625647747
1.98086	4571740.998782614
1.98314	5192690.72672072
1.98541	5600643.935145499
1.98769	5155047.4026259985
1.98996	3992858.346636822
1.99223	3820338.251624452
1.9945	4643438.05061543
1.99677	4384238.169618416
1.99903	4288388.646451989
2.00129	5324253.155386425
2.00355	6823705.72770588
2.00581	7733610.173242545
2.00806	8138224.297950326
2.01031	9761332.776817191
2.01256	10442931.360952713
2.01481	9356912.631404316
2.01706	8139114.86279212
2.0193	8215383.328915241
2.02154	9773863.840176648
2.02378	11383026.311529947
2.02602	11695565.203239651
2.02825	12169392.291447883
2.03049	12880202.75034143
2.03272	13704012.15109838
2.03494	14477267.055327447
2.03717	15088381.80940881
2.03939	15577402.091190832
2.04162	16590018.678799214
2.04384	17559192.51271385
2.04605	18587148.046722468
2.04827	19451868.442885354
2.05048	19356459.838967547
2.05269	18057410.479491495
2.0549	17775701.734478842
2.05711	18347059.222317044
2.05931	19224382.26139002
2.06151	19914428.663471185
2.06371	20482518.16287849
2.06591	20858223.71485726
2.06811	21144069.04837545
2.0703	21295324.676085398
2.07249	21238394.025535386
2.07468	20867341.047322955
2.07686	20776504.544584364
2.07905	20987758.567335468
2.08123	21218726.487547964
2.08341	21336677.75509769
2.08559	21378402.10017882
2.08776	21485965.885343444
2.08994	21405500.1527271
2.09211	21148910.93657056
2.09428	20853354.17657784
2.09645	20878185.429795347
2.09861	20844620.63223855
2.10077	20710864.062068615
2.10293	20494281.065266408
2.10509	20223985.911333535
2.10725	19958687.97961543
2.1094	20143615.905621048
2.11155	20301532.36543125
2.1137	20194743.00581538
2.11585	19603191.80065491
2.11799	19167642.572792858
2.12013	18974939.68351419
2.12227	18988148.772485334
2.12441	19148682.14571792
2.12655	19257261.743294377
2.12868	19232497.828515295
2.13081	19230591.591790184
2.13294	19232583.224885654
2.13507	18869549.219838236
2.13719	18184787.34121932
2.13931	17599783.76611824
2.14143	17094620.9685016
2.14355	16306333.12905117
2.14567	15885607.639329761
2.14778	15577926.791334005
2.14989	15231006.010360278
2.152	14561746.721900236
2.1541	14765113.783293119
2.15621	15049109.26130896
2.15831	15079561.004489519
2.16041	14198783.538763706
2.16251	13758929.402749
2.1646	13489221.533593336
2.1667	13360257.037984423
2.16879	13560256.8414054
2.17087	13764602.53131159
2.17296	13875936.661981551
2.17504	13840228.602792539
2.17713	13594138.490140174
2.1792	13168600.996568374
2.18128	12613668.670421394
2.18336	11966872.195752889
2.18543	11284339.85251748
2.1875	10585599.314971805
2.18957	9792027.731837684
2.19163	8563319.22621968
2.1937	6846257.184491103
2.19576	5130399.232045913
2.19782	3645455.366629444
2.19987	2937815.601073072
2.20193	2569156.123482305
2.20398	2479774.9159192983
2.20603	2573570.6199548864
2.20808	2829765.7732864623
2.21012	3160357.2538037053
2.21217	3540439.422083983
2.21421	3720088.82496439
2.21625	3674220.020229911
2.21828	3432051.6076810113
2.22032	3297368.3499692134
2.22235	3201954.255905655
2.22438	3060253.455448585
2.22641	2676245.1742054624
2.22843	2255937.3346465635
2.23046	1894974.5858138246
2.23248	1678869.6526159176
2.2345	1611423.625849626
2.23651	1562259.5438849826
2.23853	1512681.2688093768
2.24054	1343698.3662406625
2.24255	1155033.4269639368
2.24456	964409.2226680394
2.24657	1000242.4542981363
2.24857	1145778.908641413
2.25057	1348530.4203994605
2.25257	1422374.9063069616
2.25457	1492111.3852635878
2.25656	1558987.3497581177
2.25856	1624874.0994657364
2.26055	1526059.5103259597
2.26254	1345516.4132633035
2.26453	1142057.8695555476
2.26651	1025682.8889292217
2.2685	981524.5330666488
2.27048	1075968.985852892
2.27246	1215859.5140890274
2.27443	1347146.1959773721
2.27641	1368793.1176645171
2.27838	1307283.8157141092
2.28036	1213094.5259329607
2.28233	1147024.6753808463
2.28429	1092349.783559297
2.28626	1039824.5270269314
2.28823	966239.1652865222
2.29019	929307.3816349177
2.29215	920767.8247860433
2.29411	973145.475089794
2.29607	1025447.9593728647
2.29802	1077497.9436543235
2.29998	1144742.0381927795
2.30193	1286368.4598122581
2.30388	1513395.349084286
2.30583	1951509.0795271858
2.30778	2394009.2157075536
2.30972	2809627.433121683
2.31167	2785114.5269180015
2.31361	2501391.3311551274
2.31555	1755157.3336631088
2.31749	1184941.0103301276
2.31943	751335.5253700947
2.32137	727125.1342268892
2.32331	728384.8942028033
2.32524	749815.4022790177
2.32718	733875.3445877463
2.32911	724928.540103607
2.33104	726799.8589045099
2.33297	718006.6268827457
2.3349	704664.5600974313
2.33683	684276.0835814544
2.33876	663505.6349341347
2.34068	641046.6656705603
2.34261	594365.8844227787
2.34453	550693.4665362898
2.34646	509945.27803828137
2.34838	537736.8602485063
2.3503	603479.5935835005
2.35223	745855.958164678
2.35415	886031.8109532318
2.35607	1022917.1054849224
2.35799	1121159.9629745076
2.35991	1217575.1420395817
2.36183	1311784.5023164323
2.36375	1262519.8835659258
2.36566	1141125.1800853238
2.36758	860093.3266521131
2.3695	632289.7451451479
2.37142	438606.8507704309
2.37334	460576.2275855026
2.37526	499757.38457009906
2.37718	565743.0593661135
2.3791	633212.2080185001
2.38101	706106.8952575604
2.38293	818189.0013595818
2.38485	922898.2568058468
2.38677	1020079.4436877895
2.3887	1002876.9248318224
2.39062	969136.87776916
2.39254	936573.6773315438
2.39446	948929.39488714
2.39639	990293.6130172397
2.39831	1042991.670690077
2.40024	1067801.107774848
2.40216	1039330.9249590054
2.40409	1064265.531959412
2.40602	1124634.1950108851
2.40795	1345722.0157182026
2.40989	1541430.684970338
2.41182	1703676.3901425973
2.41376	1782949.6146260214
2.4157	1866078.3265150809
2.41764	2049941.4762508404
2.41958	2172953.215301672
2.42152	2246487.639122719
2.42347	2027326.4088000513
