#wavelength	surface flux
0.6450077295303345	39315.77684030909
0.6472567915916443	40894.153208944386
0.6494921445846558	42558.41967528462
0.6517150402069092	44257.07035071669
0.6539263725280762	45939.00639190305
0.6561272740364075	47678.12235278886
0.6583186388015747	49420.65513515489
0.6605015397071838	51267.841868418356
0.6626768708229065	53083.73692139794
0.6648455858230591	54982.366985321656
0.6670085787773132	56829.15895450438
0.6691668033599854	56454.480600822426
0.6713210344314575	55715.19519424211
0.6734722256660461	62610.562201611865
0.6756211519241333	65104.44161646887
0.6777685880661011	67377.66367003245
0.6799154281616211	69563.5535065941
0.6820623278617859	71858.40605957445
0.6842101216316223	74265.56902164537
0.6863595843315125	76660.6949186103
0.688511312007904	79094.72505441103
0.6906660795211792	81443.5988767405
0.6928245425224304	83720.90410427513
0.6949873566627502	86733.61593488276
0.6971551775932312	89516.2876567392
0.6993286609649658	92256.33918446684
0.7015084028244019	95033.93258039767
0.7036949396133423	97950.01420155815
0.7058889269828796	101022.12701044891
0.7080909013748169	104024.31210336808
0.710301399230957	107133.85350067346
0.712520956993103	110371.57756396882
0.7147500514984131	113556.94527130897
0.7169892191886902	116329.62068858909
0.7192389369010925	120043.70335088659
0.7214996814727783	123458.60342288841
0.723771870136261	126920.64766141823
0.7260559797286987	130333.72373749768
0.7283523678779602	134032.80992002157
0.7306615710258484	137563.95087175898
0.7329838871955872	141671.7833090766
0.7353196740150452	145489.30000816303
0.7376693487167358	149337.31367138893
0.7400332689285278	153309.28600579916
0.7424117922782898	156684.84496758686
0.7448052167892456	160262.54621918514
0.7472138404846191	163202.19607826552
0.7496379613876343	165474.79216727678
0.7520779371261597	166368.90384300673
0.7545340061187744	164983.06244624662
0.7570064663887024	159213.34631203415
0.7594954967498779	145322.24604235956
0.7620013952255249	113034.64727615651
0.7645244002342224	49085.871083248225
0.7670646905899048	11301.241958262906
0.7696225643157959	11200.84563572107
0.7721980810165405	86089.9044225514
0.7747915983200073	156378.70865231828
0.7774031162261963	192659.29036080674
0.7800329327583313	205463.15638508654
0.7826811671257019	232300.99770254412
0.7853479981422424	247327.22939073594
0.7880334854125977	259449.9027408139
0.7907378077507019	270087.13201461016
0.7934610247612	236429.73098001012
0.7962033748626709	251575.93754569732
0.7989648580551147	300578.5792642786
0.801745593547821	310761.1747694102
0.8045456409454346	320673.0182369337
0.8073651194572449	330528.16380436777
0.8102040886878967	339044.9520024772
0.8130625486373901	348241.3804138287
0.8159406185150146	361057.1606297793
0.8188382983207703	371612.20076927776
0.8217556476593018	382420.3317613076
0.8246926665306091	394034.4830092311
0.8276493549346924	405638.5962876087
0.8306257724761963	416515.27312362054
0.8336219191551208	429265.15532796975
0.8366377949714661	440430.37876852794
0.8396733403205872	453290.9585861749
0.8427285552024841	468504.06312340166
0.8458034992218018	482126.1742698116
0.8488980531692505	496097.1794925541
0.8520121574401855	508825.7642784809
0.8551458716392517	525127.4464275984
0.8582990765571594	540346.53085185
0.8614717125892639	552333.8724169389
0.8646637797355652	566994.7610043017
0.8678751587867737	584351.3016169628
0.8711057901382446	600886.382986691
0.8743556141853333	617407.1369323949
0.87762451171875	634559.0674533343
0.8809124231338501	649398.4375414274
0.8842192888259888	669055.1784116448
0.8875449895858765	686001.5440665722
0.8908893465995789	701579.5184658142
0.894252359867096	713733.8443467803
0.8976338505744934	738961.8759657393
0.9010337591171265	763121.6534536021
0.9044519662857056	786269.120449857
0.9078882932662964	805974.3828989425
0.9113426208496094	829404.9215670096
0.914814829826355	847476.3255483123
0.9183048605918884	864474.2411382828
0.9218124747276306	894523.6160389312
0.925337553024292	899625.8424741069
0.9288799166679382	857352.6324012439
0.9324395060539246	899647.019595124
0.9360161423683167	929623.660640721
0.9396095871925354	980105.0047828535
0.943219780921936	989619.4983729332
0.9468464851379395	990519.3576452243
0.9504896402359009	1040337.0091571574
0.9541489481925964	1065669.4629187994
0.9578243494033813	1097104.6934853555
0.9615156054496765	1085904.0216230107
0.9652225375175476	1124973.297212019
0.9689450263977051	1145807.6639916715
0.9726828336715698	1236521.7513485383
0.9764357805252075	1255759.4562996821
0.9802037477493286	1297861.3651569893
0.983986496925354	1333052.216327585
0.9877838492393494	1369562.8519371345
0.9915955662727356	1412958.27606882
0.9954215884208679	1449178.9077327072
0.9992615580558777	1485479.944268329
1.0031154155731201	1517952.895297418
1.0069829225540161	1558969.8108607358
1.0108637809753418	1598267.5173095276
1.0147579908370972	1640392.69637885
1.018665075302124	1678711.3245229814
1.022585153579712	1714474.320501925
1.0265177488327026	1747940.4110696346
1.0304628610610962	1775986.4084912166
1.0344202518463135	1836195.5944827625
1.0383895635604858	1876535.3713521874
1.0423706769943237	1918069.1147469338
1.0463634729385376	1959308.9567341276
1.0503677129745483	1996844.0730804855
1.0543830394744873	2042944.7213234312
1.058409333229065	2087300.854350151
1.0624464750289917	2130537.613703338
1.0664942264556885	2174710.797916827
1.0705522298812866	2215758.513852577
1.0746204853057861	2264690.0105835707
1.0786986351013184	2308651.5737036667
1.0827864408493042	2356346.22647703
1.086883783340454	2400156.5117745516
1.0909905433654785	2431664.2375445645
1.0951062440872192	2468857.8914370327
1.0992310047149658	2462227.7136559295
1.10336434841156	2344893.3913825955
1.1075061559677124	2407869.5319509404
1.1116561889648438	2426225.548288939
1.115814208984375	2354178.2438905723
1.1199802160263062	2409644.995473509
1.124153733253479	2518880.8573014904
1.1283347606658936	2611680.8075598367
1.1325229406356812	2437479.0588046997
1.1367181539535522	2647834.127107815
1.1409201622009277	2792364.7420574953
1.145128846168518	2912435.522212948
1.1493438482284546	2882332.904212542
1.1535650491714478	2490572.606249705
1.1577922105789185	2727358.351930485
1.1620250940322876	2803764.3722451874
1.1662636995315552	3093849.4184712023
1.170507550239563	3071760.4349875296
1.174756646156311	3261697.7766931853
1.1790107488632202	3419465.437870681
1.1832695007324219	3525637.37457947
1.1875330209732056	3584355.3452969985
1.191800832748413	3673651.845620421
1.1960728168487549	3762358.5653431644
1.2003488540649414	3839012.9642813606
1.2046287059783936	3881409.7969510974
1.2089121341705322	3958992.1625485313
1.2131990194320679	4018682.3600149546
1.2174891233444214	4099478.080145404
1.2217823266983032	4166117.8249535686
1.2260783910751343	4236949.014724603
1.230377197265625	4301442.471220579
1.2346785068511963	4365020.139544565
1.238982081413269	4434473.179786428
1.2432878017425537	4499107.725985489
1.2475954294204712	4563103.581069577
1.2519049644470215	4614113.06507541
1.256216049194336	4696197.104619085
1.2605286836624146	4756321.596638256
1.2648425102233887	4815828.870068642
1.2691574096679688	4879337.259050133
1.2734732627868652	4938658.70590224
1.2777899503707886	5009397.20969109
1.2821072340011597	5060084.38502876
1.2864248752593994	5124320.292190015
1.2907428741455078	5151661.574984978
1.2950609922409058	5219397.265602025
1.2993791103363037	5285119.658779965
1.303696870803833	5313350.601298463
1.3080145120620728	5376744.629398997
1.3123314380645752	5431217.705442705
1.3166478872299194	5550095.375385634
1.3209635019302368	5573789.482209046
1.3252781629562378	5500982.316334295
1.3295916318893433	5360713.99988867
1.3339040279388428	4674679.565577441
1.3382149934768677	3261995.5846632672
1.3425244092941284	2528173.86288042
1.3468321561813354	3697221.9779088027
1.3511382341384888	2854133.467725803
1.3554422855377197	2054310.5369367513
1.3597444295883179	2369057.555855454
1.3640443086624146	2598628.6279192287
1.3683418035507202	2772388.107294852
1.3726370334625244	3813481.063804887
1.3769296407699585	4792541.878395859
1.381219506263733	3248944.1292810314
1.3855066299438477	1968178.4594727198
1.3897908926010132	2315547.32717742
1.3940720558166504	2454897.5382604436
1.3983501195907593	2241489.5012855507
1.4026249647140503	3393427.383901896
1.4068963527679443	4456385.701327943
1.4111642837524414	2589346.0984845664
1.4154287576675415	3041462.5048319497
1.419689416885376	3492139.71976063
1.4239463806152344	2531652.471372506
1.4281994104385376	4122632.0479224497
1.4324485063552856	3121863.702046369
1.436693549156189	3668664.8864918216
1.440934419631958	3855519.278949285
1.4451709985733032	4702403.043784721
1.449403166770935	5738804.71495746
1.453631043434143	5898290.782284885
1.4578542709350586	6120311.717922666
1.4620729684829712	6195484.154288818
1.4662868976593018	6457014.330612861
1.4704961776733398	6108419.755218356
1.4747005701065063	6243817.568263089
1.4788999557495117	6319244.361556779
1.4830944538116455	6845267.725849538
1.4872838258743286	7171697.54455083
1.491468071937561	7236458.394633519
1.4956470727920532	7092200.1715516355
1.4998208284378052	7420541.041203332
1.5039892196655273	7706866.0262245685
1.5081522464752197	7630197.980842534
1.5123097896575928	7774703.289173804
1.5164618492126465	8002268.550520515
1.5206083059310913	8300469.006508462
1.5247491598129272	8513483.212711098
1.5288842916488647	8447171.113297679
1.5330137014389038	8609459.854769869
1.5371372699737549	8751464.984771391
1.541254997253418	8777550.400043324
1.545366883277893	8894297.875711914
1.5494728088378906	8992348.344248474
1.5535727739334106	9106380.555935958
1.5576666593551636	9068151.818107715
1.561754584312439	9146864.736111557
1.5658363103866577	9338100.306599002
1.5699119567871094	9431740.630910167
1.5739814043045044	9414980.244093487
1.5780447721481323	9328991.346032145
1.582101821899414	9481565.3892708
1.5861525535583496	9730122.19190044
1.5901970863342285	9768841.705459826
1.5942351818084717	9800360.470563527
1.5982669591903687	9795653.005768145
1.6022924184799194	9849551.796976922
1.606311559677124	9947468.773367772
1.6103241443634033	9985438.99205285
1.6143304109573364	9995097.02832336
1.6183301210403442	10029570.619646283
1.6223233938217163	10022176.259282997
1.6263102293014526	10064189.087165248
1.6302905082702637	9986749.35201854
1.634264349937439	10110145.04729946
1.638231635093689	10441048.505464131
1.6421923637390137	10516149.085882593
1.646146535873413	10456510.38906084
1.6500942707061768	10348515.123323444
1.6540353298187256	10575644.311607737
1.6579699516296387	10655921.36006312
1.661897897720337	10629478.060634835
1.6658192873001099	10095978.864697445
1.6697341203689575	10118687.994619837
1.6736423969268799	10746751.713167956
1.677544116973877	10789629.66254087
1.6814392805099487	10780601.971366674
1.6853278875350952	10840025.051632447
1.6892099380493164	10796829.707295166
1.6930854320526123	10658962.524258517
1.696954369544983	10358380.167272868
1.7008168697357178	10572697.412014566
1.7046726942062378	10569156.361106277
1.708522081375122	10820262.075706381
1.712364912033081	10856705.524871511
1.7162011861801147	11021865.945635777
1.7200311422348022	11195099.528090136
1.723854422569275	11193254.928091453
1.7276713848114014	11167520.868806819
1.731481909751892	11048508.512126502
1.7352858781814575	10910157.567977322
1.7390835285186768	10880426.380409889
1.7428747415542603	10816223.737461478
1.7466596364974976	10546941.162900386
1.7504380941390991	10346179.418146394
1.7542102336883545	9760957.69080336
1.7579760551452637	10680572.343921395
1.7617355585098267	11133441.630113391
1.7654887437820435	10674386.73260815
1.7692357301712036	9908832.544881577
1.7729763984680176	8920068.066123689
1.776710867881775	7143772.376997572
1.7804391384124756	6997468.619418661
1.7841613292694092	7582353.427669789
1.7878772020339966	6421031.68760235
1.7915871143341064	7220245.110064659
1.7952908277511597	7594724.664349736
1.7989884614944458	7093964.768486625
1.8026801347732544	5249328.500602009
1.806365728378296	3478077.973086109
1.8100452423095703	3950287.3310726425
1.8137187957763672	5581422.635046708
1.817386507987976	3458609.8732198235
1.8210482597351074	5461275.015447946
1.8247040510177612	6059669.430753701
1.828354001045227	3276799.0934135313
1.8319982290267944	4318611.69541569
1.8356364965438843	5587753.687336933
1.8392690420150757	6934956.666132713
1.8428958654403687	6772217.852216561
1.8465168476104736	6844436.8708987245
1.8501322269439697	6746819.000172402
1.8537418842315674	4297925.569072202
1.8573459386825562	4425749.1963846125
1.860944390296936	4820727.543893003
1.864537239074707	3496358.5049279053
1.8681244850158691	4605945.550956173
1.871706247329712	6299995.726507124
1.8752825260162354	7367662.0518830875
1.8788533210754395	8288442.157901495
1.8824186325073242	9204285.619934738
1.8859784603118896	8307785.324539041
1.8895330429077148	7842648.675103117
1.8930821418762207	9186427.308720192
1.8966259956359863	8776030.817346463
1.9001644849777222	5580626.622973911
1.9036977291107178	3941666.954109138
1.9072256088256836	5364972.985221862
1.9107483625411987	5007971.48723939
1.9142658710479736	3076522.674750888
1.9177782535552979	3625634.2252066787
1.9212853908538818	5054802.382648344
1.9247875213623047	4371743.73207318
1.9282845258712769	4747988.152856789
1.9317764043807983	6029740.407441549
1.9352631568908691	6233108.228637688
1.9387450218200684	5521966.900752112
1.942221760749817	6142487.219113901
1.9456936120986938	6243688.682496356
1.9491604566574097	6328263.371187835
1.952622413635254	5860761.76595161
1.956079363822937	5179431.417744248
1.959531545639038	6136555.853439794
1.962978720664978	6285422.557336425
1.966421127319336	7106721.498418322
1.9698586463928223	8649954.071717769
1.9732913970947266	8831371.720575666
1.9767193794250488	9006636.930482207
1.9801424741744995	9997438.204629766
1.9835609197616577	10569509.311065808
1.9869745969772339	10620441.16074133
1.990383505821228	9545608.23149718
1.9937876462936401	9812271.601469684
1.9971871376037598	9796173.831474623
2.000581979751587	9993365.060073
2.003972291946411	11269409.371978475
2.007357597351074	11599432.837848015
2.0107386112213135	12235698.014566343
2.0141148567199707	12330733.114277761
2.017486572265625	11771277.613708185
2.0208535194396973	12161724.10185494
2.0242159366607666	12877472.550102035
2.027573823928833	13064335.656512044
2.0309269428253174	13258703.550858952
2.034275770187378	13532548.077171981
2.0376198291778564	13690891.637530701
2.040959596633911	13824532.828115504
2.044294595718384	14036147.074187215
2.0476250648498535	14269149.512903528
2.0509510040283203	14271214.682160199
2.054272413253784	14148369.90818916
2.057589530944824	14267408.051664054
2.0609018802642822	14428102.747199262
2.0642096996307373	14546336.420046858
2.0675129890441895	14626278.419865217
2.0708119869232178	14674903.149973208
2.074106216430664	14660659.194310326
2.0773961544036865	14663016.903755797
2.080681324005127	14733319.992701288
2.0839622020721436	14787066.758642087
2.087238311767578	14831308.193569733
2.090510129928589	14841792.759826684
2.0937774181365967	14817922.377341833
2.0970399379730225	14856931.224827988
2.1002981662750244	14874075.544866754
2.1035518646240234	14853033.504494987
2.1068007946014404	14814371.971345989
2.1100454330444336	14888491.742893603
2.1132853031158447	14971855.590558402
2.116520881652832	14935572.455908183
2.1197516918182373	14928019.09673752
2.1229779720306396	14972477.553834537
2.12619948387146	15014797.351427613
2.1294167041778564	15031476.152113188
2.132629156112671	15059943.076881615
2.1358368396759033	15032021.848049706
2.139039993286133	14967723.976818375
2.1422386169433594	14921848.637642566
2.145432472229004	14883503.313227607
2.1486217975616455	14863948.491111614
2.151806354522705	14800567.046464989
2.1549863815307617	14834330.799491512
2.1581614017486572	14872482.508131407
2.16133189201355	14800105.436328176
2.1644976139068604	14788442.164432622
2.167658567428589	14799701.483813042
2.1708147525787354	14828157.885394448
2.173966407775879	14825771.146511989
2.1771130561828613	14810591.37878211
2.1802549362182617	14786655.214106992
2.183391809463501	14723632.277583528
2.1865241527557373	14623105.577609979
2.1896514892578125	14470304.48596802
2.1927738189697266	14061265.729322923
2.1958916187286377	13358266.975000799
2.1990041732788086	12721134.321629696
2.2021119594573975	12416348.49126101
2.2052149772644043	12362819.759598898
2.208312749862671	12533567.39390238
2.2114057540893555	12859504.482125526
2.214493751525879	13062369.0621287
2.217576742172241	12973721.869638039
2.2206547260284424	12903079.685931675
2.2237277030944824	12836438.873550015
2.2267956733703613	12442803.381271362
2.2298583984375	11939188.9932931
2.2329163551330566	11680179.239801338
2.235969066619873	11635230.875496786
2.2390167713165283	11496378.807464063
2.2420592308044434	11025472.075860783
2.2450966835021973	10576139.555566918
2.248128890991211	10762980.47433529
2.2511560916900635	11257140.774169192
2.254178285598755	11478298.739396408
2.257194995880127	11610303.92931503
2.260206699371338	11547779.95004317
2.2632133960723877	11065345.570649548
2.266214609146118	10551728.606518831
2.2692108154296875	10456329.004283503
2.2722020149230957	10813006.960788487
2.2751877307891846	11137400.443427522
2.278168201446533	11059290.246277269
2.2811436653137207	10776529.955753952
2.284113883972168	10561483.188060395
2.287078857421875	10348578.708964624
2.290038824081421	10082318.756971896
2.2929933071136475	9823282.651725737
2.295942783355713	9529230.72749571
2.298887014389038	9199203.669461038
2.301826238632202	8980657.57851086
2.304760217666626	8988763.620848687
2.3076889514923096	9212354.543169929
2.310612440109253	9499740.406985825
2.3135311603546143	9332992.30820614
2.3164443969726562	8282002.4699894935
2.319352865219116	7300770.757681354
2.322256088256836	7151388.1771277515
2.3251543045043945	7153547.843230912
2.328047275543213	7127257.944795672
2.330935478210449	7277015.566926134
2.3338186740875244	7445595.168059586
2.3366971015930176	7589635.570400834
2.3395702838897705	7704991.238315179
2.3424389362335205	7737962.227863729
2.3453025817871094	7731843.657686068
2.348161458969116	7801419.4966844525
2.351015567779541	8080654.919433449
2.353865146636963	8515887.752302093
2.3567099571228027	8874407.433424134
2.3595502376556396	9171968.667020315
2.3623859882354736	9549525.872495523
2.3652172088623047	9314777.615638595
2.368043899536133	7853611.426275248
2.370866537094116	6831785.30569427
2.3736846446990967	6998717.6607771665
2.3764986991882324	7151425.734053129
2.3793084621429443	7097856.7456184905
2.3821144104003906	7333433.974297971
2.384916305541992	8079290.541143387
2.387714147567749	8915669.963750433
2.3905084133148193	9256498.100919431
2.393299102783203	9161280.301697887
2.3960859775543213	8823858.287184574
2.398869514465332	8568203.445628582
2.4016497135162354	8349703.412427173
2.4044265747070312	8350072.251189378
2.407200336456299	8703779.282001544
2.409970998764038	9229342.832407713
2.4127390384674072	9581828.92916475
2.415503978729248	9779111.980322838
2.418266534805298	10178427.096466888
2.4210267066955566	10345618.13546928
2.4237842559814453	10057822.758780906
2.426539897918701	9788175.167482575
2.429293394088745	9849110.29139234
2.4320452213287354	10160551.06105612
2.4347951412200928	10368556.05344878
2.4375438690185547	10346802.886502452
2.440291166305542	10134611.796369487
2.443037271499634	9700447.590169858
2.445782423019409	9111319.87851242
2.4485268592834473	8597897.099637114
2.451270818710327	8520478.458628714
2.454014539718628	9089458.691766204
2.4567582607269287	9674017.947797637
2.4595019817352295	9424165.35572062
2.4622461795806885	9590239.640005903
2.4649908542633057	9326800.706902804
2.4677364826202393	8329671.702613771
2.4704833030700684	6867981.065221843
2.473231554031372	5547179.995454349
2.4759814739227295	4615636.698985587
2.4787333011627197	4510205.565948604
2.481487512588501	5123881.552192391
