#wavelength	surface flux
0.7	250676455.32691112
0.7001166666666666	258365416.88083345
0.7002333527777778	259068012.58544937
0.700350058336574	259770725.38934904
0.7004667833462966	260473555.31204844
0.7005835278101878	261176502.37307024
0.7007002917314895	261879566.5919344
0.7008170751134447	262582747.9881683
0.7009338779592968	263286046.58130124
0.7010507002722901	262315738.52434897
0.7011675420556689	259308458.07785556
0.701284403312678	256300676.41795927
0.7014012840465635	253292393.46111536
0.7015181842605713	250283609.1237792
0.701635103957948	247274323.32238898
0.701752043141941	244264535.97336566
0.701869001815798	241254246.99311322
0.7019859799827672	233533259.4194717
0.7021029776460976	222532953.2076058
0.7022199948090387	211530813.61135727
0.7023370314748403	200526840.32518095
0.7024540876467528	189521033.04345864
0.702571163328027	178513391.46054083
0.7026882585219152	167503915.2706632
0.7028053732316688	156492604.1681031
0.7029225074605406	154407572.178102
0.7030396612117841	155769747.07977703
0.7031568344886527	157132149.0106026
0.7032740272944008	158494778.00841576
0.7033912396322832	159857634.11106262
0.7035084715055552	161220717.35639188
0.7036257229174727	162584027.78226253
0.7037429938712924	163947565.4265388
0.7038602843702709	168137639.99524644
0.7039775944176659	172807775.71190256
0.7040949240167356	177478689.78451335
0.7042122731707383	182150382.34280047
0.7043296418829335	186822853.51651654
0.7044470301565806	191496103.43542752
0.70456443799494	196170132.22932133
0.7046818654012724	200844940.02801695
0.7047993123788394	202078933.1190343
0.7049167789309024	203309182.4939015
0.7050342650607243	204539636.91033307
0.7051517707715678	205770296.40250015
0.7052692960666963	207001161.00458196
0.705386840949374	208232230.7507636
0.7055044054228656	209463505.67523828
0.7056219894904361	210256528.14490092
0.7057395931553511	208263330.98521215
0.705857216420877	206269801.62599522
0.7059748592902804	204275940.0118862
0.7060925217668288	202281746.08750618
0.70621020385379	200287219.79747242
0.7063279055544321	198292361.08639282
0.7064456268720246	196297169.8988583
0.7065633678098366	195247955.29535422
0.7066811283711383	196804718.4808529
0.7067989085592001	198361741.12688252
0.7069167083772933	199919023.27668545
0.7070345278286895	201476564.9735144
0.707152366916661	203034366.26062647
0.7072702256444803	204592427.18128455
0.7073881040154211	206150747.77876487
0.7075060020327569	206372801.83172247
0.7076239196997625	204648446.39024347
0.7077418570197124	202923803.5561926
0.7078598139958823	201198873.28166953
0.7079777906315483	199473655.51876566
0.7080957869299869	197748150.21956933
0.7082138028944751	196022357.33615732
0.7083318385282908	194296276.82059687
0.7084498938347124	194746405.28608215
0.708567968817018	197041887.11495116
0.7086860634784875	199337751.52412766
0.7088041778224007	201633998.57737422
0.7089223118520377	203930628.33845994
0.7090404655706796	206227640.87117118
0.709158638981608	208525036.23930722
0.709276832088105	210822814.5066717
0.7093950448934531	211690934.3224454
0.7095132774009353	211877196.6468993
0.7096315296138355	212063490.01507404
0.7097498015354378	212249814.4321434
0.7098680931690269	212436169.9032821
0.7099864045178884	212622556.43366623
0.7101047355853081	212808974.02847207
0.7102230863745722	212995422.6928769
0.7103414568889679	209328900.45491904
0.7104598471317828	204786274.30394614
0.7105782571063047	200242891.04861817
0.7106966868158224	195698750.56274787
0.710815136263625	191153852.72013083
0.7109336054530023	186608197.39453715
0.7110520943872445	182061784.4597242
0.7111706030696424	177514613.78941935
0.7112891315034873	177031138.02474532
0.7114076796920712	176741508.4277865
0.7115262476386865	176451830.55922818
0.7116448353466263	176162104.41102532
0.711763442819184	175872329.97513092
0.711882070059654	175582507.24349695
0.7120007170713306	175292636.20807457
0.7121193838575091	175328959.29802343
0.7122380704214853	178767913.55241257
0.7123567767665555	182207440.96584058
0.7124755028960166	185647541.63383916
0.7125942488131658	189088215.6519465
0.7127130145213015	192529463.11573297
0.7128318000237216	195971284.12075275
0.7129506053237256	199413678.76261163
0.7130694304246129	201656716.0141717
0.7131882753296837	199704745.18705973
0.7133071400422386	197752449.03147608
0.7134260245655789	195799827.49320117
0.7135449289030065	193846880.51800263
0.7136638530578235	191893608.05164257
0.7137827970333332	189940010.03986862
0.7139017608328388	187986086.42842653
0.7140207444596443	186807505.3076163
0.7141397479170543	187012442.74275407
0.7142587712083737	187217414.33413076
0.7143778143369084	187422420.0874395
0.7144968773059646	187627460.00837383
0.7146159601188489	187832534.10262826
0.7147350627788687	188037642.37589842
0.7148541852893318	188242784.8338807
0.7149733276535467	189968449.03973234
0.7150924898748222	193227626.5243615
0.715211671956468	196487347.20523873
0.7153308739017941	199747611.17289868
0.715450095714111	203008418.51788497
0.71556933739673	206269769.3307626
0.7156885989529628	209531663.70210862
0.7158078803861218	212794101.72252136
0.7159271816995193	209766957.1000194
0.7160465028964692	203047396.19813874
0.7161658439802853	196326715.3694414
0.7162852049542819	189604914.4272738
0.7164045858217744	182881993.1849451
0.716523986586078	176157951.45574546
0.7166434072505089	169432789.0529277
0.716762847818384	162706505.789707
0.7168823082930204	159546071.4540841
0.7170017886777359	157434497.7664074
0.7171212889758488	155322572.14978412
0.7172408091906781	153210294.5455574
0.7173603493255433	151097664.89506269
0.7174799093837642	148984683.13962743
0.7175994893686615	146871349.22056535
0.7177190892835562	144757663.07918438
0.7178387091317702	150246282.35347703
0.7179583489166254	156498993.0146418
0.7180780086414448	162752745.79425493
0.7181976883095517	169007540.8659978
0.7183173879242699	175263378.40358654
0.718437107488924	181520258.58076635
0.7185568470068389	187778181.5713114
0.7186766064813399	193875344.71447095
0.7187963859157535	195928096.60456666
0.7189161853134061	197981190.61997727
0.719036004677625	200034626.81772402
0.7191558440117378	202088405.25483575
0.7192757033190732	204142525.98835656
0.7193955826029597	206196989.0753305
0.7195154818667269	208251794.5728207
0.7196354011137046	209505736.71063048
0.7197553403472235	207070992.9939133
0.7198752995706147	204635843.4865777
0.7199952787872098	202200288.1209892
0.720115278000341	199764326.82950655
0.7202352972133411	197327959.54447496
0.7203553364295432	194891186.19823292
0.7204753956522815	192454006.72309637
0.7205954748848902	190409157.0823617
0.7207155741307044	189229802.79830542
0.7208356933930594	188050251.9552039
0.7209558326752915	186870504.52029485
0.7210759919807375	185690560.4608118
0.7211961713127342	184510419.743987
0.7213163706746197	183330082.33704084
0.7214365900697322	182149548.20719478
0.7215568295014103	180350274.35730985
0.721677088972994	177812674.67039216
0.7217973684878227	175274652.05019754
0.7219176680492374	172736206.4262299
0.7220379876605789	170197337.72799313
0.722158327325189	167658045.88497236
0.7222786870464099	165118330.8266458
0.7223990668275843	162578192.48247507
0.7225194666720555	159926417.82603636
0.7226398865831676	157195381.80111596
0.7227603265642646	154463890.60353127
0.722880786618692	151731944.1574078
0.7230012667497951	148999542.38687846
0.7231217669609201	146266685.2160537
0.7232422872554135	143533372.56903622
0.7233628276366229	140799604.3699062
0.7234833881078956	140910100.27632585
0.7236039686725803	142100644.89874357
0.7237245693340255	143291387.94526315
0.7238451900955812	144482329.44895938
0.7239658309605971	145673469.44290483
0.7240864919324239	146864807.96018416
0.7242071730144127	148056345.03388312
0.724327874209915	149248080.69709185
0.7244485955222832	148946434.19368064
0.7245693369548704	148397786.45086023
0.7246900985110294	147849047.2667502
0.7248108801941148	147300216.626108
0.7249316820074803	146751294.5136942
0.7250525039544815	146202280.91426077
0.7251733460384739	145653175.81256068
0.7252942082628137	145110884.50802752
0.7254150906308574	148569660.8605626
0.7255359931459625	152029013.6758234
0.7256569158114868	155488943.04988784
0.7257778586307888	158949449.07884967
0.7258988216072273	162410531.8588153
0.7260198047441617	165872191.48590714
0.7261408080449525	169334428.05627605
0.72626183151296	172025002.8374517
0.7263828751515454	169584055.95517316
0.7265039389640706	167142702.24841473
0.726625022953898	164700941.6493703
0.7267461271243904	162258774.09022492
0.7268672514789111	159816199.5031546
0.7269883960208241	157373217.8203219
0.7271095607534942	154929828.97387376
0.7272307456802866	152519664.39074802
0.7273519508045666	150199944.89871976
0.7274731761297006	147879838.78677726
0.7275944216590555	145559345.99048284
0.7277156873959987	143238466.4453882
0.7278369733438982	140917200.08703232
0.727958279506122	138595546.85095623
0.7280796058860397	136273506.6726713
0.7282009524870207	135827272.15569803
0.7283223193124353	138156061.15485772
0.7284437063656539	140485238.2855125
0.7285651136500483	142814803.61235955
0.7286865411689898	145144757.20008957
0.7288079889258514	147475099.11342323
0.7289294569240056	149805829.4170704
0.7290509451668262	152136948.17577085
0.7291724536576875	153880100.34323907
0.7292939823999636	155136027.4914883
0.7294155313970303	156392163.96093142
0.7295371006522632	157648509.78645247
0.7296586901690385	158905065.00294343
0.7297802999507332	160161829.64530325
0.7299019300007252	161418803.74844006
0.7300235803223919	162675987.34725732
0.7301452509191123	162093509.90061516
0.7302669417942654	160661707.3258393
0.7303886529512311	159229666.11730057
0.7305103843933897	157797386.23522672
0.7306321361241218	156364867.63984028
0.7307539081468093	154932110.29135206
0.7308757004648336	153499114.14997548
0.7309975130815778	152065879.17590696
0.7311193460004248	151714048.50540286
0.7312411992247582	151607029.40322265
0.7313630727579622	151499992.46452543
0.7314849666034219	151392937.68633834
0.7316068807645224	151285865.06568825
0.7317288152446498	151178774.59960136
0.7318507700471907	151071666.28510338
0.7319727451755319	150964540.11921972
0.732094740633061	150682479.0859339
0.7322167564231665	150392496.2231521
0.7323387925492371	150102465.0298932
0.7324608490146619	149812385.49810216
0.732582925822831	149522257.61972243
0.7327050229771347	149232081.3866966
0.7328271404809642	148941856.790965
0.7329492783377112	148496181.97355083
0.7330714365507675	146522668.2199399
0.7331936151235259	144548825.5473705
0.7333158140593796	142574653.90102458
0.7334380333617229	140600153.22606793
0.7335602730339499	138625323.46766454
0.7336825330794556	136650164.57096767
0.7338048135016354	134674676.48112518
0.7339271143038857	132765632.2684983
0.734049435489603	131080005.6379817
0.7341717770621846	129394098.06969303
0.7342941390250283	127707909.51681052
0.7344165213815324	126021439.93250318
0.734538924135096	124334689.2699293
0.7346613472891185	122647657.4822472
0.734783790847	120960344.52259992
0.7349062548121412	119635495.83024481
0.7350287391879431	118951593.79128796
0.7351512439778078	118267577.76865655
0.7352737691851374	117583447.74335554
0.735396314813335	116899203.69638303
0.7355188808658037	116214845.60873716
0.7356414673459482	115530373.46140862
0.7357640742571725	114845787.23538932
0.7358867016028818	114973231.56562322
0.7360093493864824	115902763.22185129
0.7361320176113801	116832449.8000208
0.736254706280982	117762291.32595336
0.7363774153986956	118692287.82547477
0.7365001449679286	119622439.32441087
0.7366228949920899	120552745.84859756
0.7367456654745885	121483207.42387158
0.7368684564188344	121101795.67221147
0.7369912678282374	119978789.54834622
0.7371140997062088	118855596.2567932
0.7372369520561599	117732215.76635718
0.7373598248815024	116608648.04584196
0.7374827181856494	115484893.0640381
0.7376056319720137	114360950.7897372
0.7377285662440091	113236821.19172372
0.7378515210050496	111227574.62089033
0.7379744962585505	108951744.77447306
0.738097492007927	106675535.62308195
0.7382205082565949	104398947.10350035
0.738343545007971	102121979.15249929
0.7384666022654723	99844631.70683742
0.7385896800325165	97566904.70327139
0.7387127783125219	95288798.07853521
0.7388358971089073	96428230.78402993
0.7389590364250921	97910679.15564673
0.7390821962644963	99393374.60199323
0.7392053766305403	100876317.1642453
0.7393285775266454	102359506.88359216
0.7394517989562333	103842943.80122699
0.7395750409227259	105326627.9583457
0.7396983034295463	106734251.85381058
0.739821586480118	106444592.2849177
0.7399448900778645	106154884.43943058
0.7400682142262109	105865128.30930166
0.740191558928582	105575323.8864847
0.7403149241884034	105285471.16293082
0.7404383100091014	104995570.13058962
0.7405617163941028	104705620.78140987
0.7406851433468352	104158746.82818352
0.7408085908707264	102436634.52857047
0.7409320589692048	100714235.21024166
0.7410555476456997	98991548.82535839
0.7411790569036406	97268575.3260789
0.7413025867464579	95545314.66454904
0.7414261371775823	93821766.79290846
0.7415497082004452	92097931.66329059
0.7416732998184786	90799075.91690467
0.741796912035115	90412284.47135998
0.7419205448537874	90025428.56057446
0.7420441982779297	89638508.1738038
0.742167872310976	89251523.30030167
0.7422915669563612	88864473.92932065
0.7424152822175206	88477360.05011122
0.7425390180978901	88090181.65192215
0.7426627746009065	87738025.1568241
0.7427865517300065	87428582.84306823
0.7429103494886282	87119088.95559308
0.7430341678802096	86809543.48580359
0.7431580069081896	86499946.42510249
0.7432818665760077	86190297.76489083
0.7434057468871037	85880597.49656941
0.7435296478449182	85570845.61153676
0.7436535694528923	84602436.7839895
0.7437775117144678	83183031.01388207
0.7439014746330868	81763388.67614844
0.7440254582121922	80343509.73135728
0.7441494624552276	78923394.14007476
0.7442734873656368	77503041.86286066
0.7443975329468645	76082452.86026588
0.7445215992023557	74661627.09283751
0.7446456861355559	73399569.50668338
0.7447697937499119	72195874.79238366
0.7448939220488703	70991979.46229848
0.7450180710358784	69787883.48299268
0.7451422407143843	68583586.82102352
0.7452664310878367	67379089.44294292
0.7453906421596846	66174391.315300584
0.7455148739333779	64969492.404636584
0.7456391264123667	64624248.72713236
0.7457633996001021	64416433.73665547
0.7458876935000356	64208584.110346474
0.7460120081156189	64000699.84243348
0.7461363434503048	63792780.92714241
0.7462606995075466	63584827.3586986
0.7463850762907978	63376839.131327026
0.7465094738035127	63168805.98880354
0.7466338920491467	62958056.71405798
0.746758331031155	62747272.31443309
0.7468827907529935	62536452.784075186
0.7470072712181189	62325598.11712887
0.7471317724299886	62114708.30773803
0.7472562943920602	61903783.35004578
0.7473808371077922	61692823.23819371
0.7475054005806435	61418469.47791345
0.7476299848140736	60753806.551022924
0.7477545898115426	60089032.84697777
0.7478792155765113	59424148.34731511
0.7480038621124406	58759153.03356971
0.7481285294227926	58094046.88727216
0.7482532175110298	57428829.88994953
0.7483779263806148	56763502.02312828
0.7485026560350116	56074706.129652105
0.7486274064776842	55322580.215770625
0.748752177712097	54570328.947571546
0.7488769697417158	53817952.304159485
0.749001782570006	53065450.264641106
0.7491266162004343	52312822.80811636
0.7492514706364677	51560069.91368185
0.7493763458815739	50807191.56043085
0.7495012419392209	50077411.82407718
0.7496261588128773	49380897.86426995
0.7497510965060128	48684267.81880227
0.7498760550220971	47987521.66832727
0.7500010343646007	47290659.39349375
0.7501260345369949	46593680.97494741
0.750251055542751	45896586.393332094
0.7503760973853414	45199375.629286095
0.7505011600682389	44501533.62989531
0.750626243594917	43803145.28226501
0.7507513479688495	43104640.53657783
0.7508764731935109	42406019.37343279
0.7510016192723765	41707281.773427054
0.7511267862089218	41008427.7171553
0.7512519740066232	40309457.185207255
0.7513771826689577	39610370.15817015
0.7515024121994025	38964962.93357868
0.7516276626014359	38344531.00726511
0.751752933878536	37723995.67563159
0.7518782260341824	37103356.92144258
0.7520035390718548	36482614.72746093
0.7521288729950334	35861769.07644727
0.7522542278071992	35240819.9511584
0.7523796035118337	34619767.334348336
0.7525050001124189	34014572.66144801
0.7526304176124378	33412748.381757013
0.7527558560153731	32810823.798020177
0.752881315324709	32208798.893518798
0.7530067955439299	31606673.65153312
0.7531322966765205	31004448.055341244
0.7532578187259665	30402122.08821649
0.7533833616957542	29799695.733430568
0.75350892558937	29214061.47327578
0.7536345104103016	28629123.940993547
0.7537601161620366	28044088.9191229
0.7538857428480638	27458956.39141471
0.7540113904718717	26873726.34161932
0.7541370590369503	26288398.75348243
0.7542627485467898	25702973.610747147
0.7543884590048808	25126705.256369714
0.7545141904147151	24642626.375987954
0.7546399427797842	24158466.81579358
0.7547657161035808	23674226.562339097
0.754891510389598	23189905.602175735
0.7550173256413296	22705503.921852145
0.7551431618622698	22221021.50791529
0.7552690190559135	21736458.346909545
0.7553948972257561	21250116.926334217
0.7555207963752938	20757996.583647583
0.755646716508023	20265794.220904116
0.755772657627441	19773509.824433353
0.7558986197370455	19281143.380563106
0.756024602840335	18788694.87561901
0.7561506069408084	18296164.29592409
0.7562766320419653	17803551.62779878
0.7564026781473054	17328431.56446476
0.75652874526033	16884159.109809134
0.7566548333845401	16439812.60974417
0.7567809425234375	15995392.051929355
0.7569070726805247	15550897.424021821
0.7570332238593047	15106328.713676363
0.7571593960632813	14661685.908545425
0.7572855892959586	14216968.996280273
0.7574118035608413	13812235.941591587
0.7575380388614347	13446625.457661495
0.7576642952012449	13080954.038650608
0.7577905725837782	12715221.674403748
0.7579168710125422	12349428.354762195
0.7580431904910444	11983574.069567231
0.7581695310227928	11617658.808658531
0.7582958926112967	11251682.561872551
0.7584222752600652	10908218.775265804
0.7585486789726085	10577665.333795782
0.7586751037524372	10247056.800085392
0.7588015496030628	9916393.164952071
0.7589280165279966	9585674.419213548
0.7590545045307512	9254900.553684069
0.7591810136148396	8924071.55917701
0.7593075437837755	8593187.42650371
0.7594340950410726	8300940.270066591
0.7595606673902461	8019870.40586397
0.7596872608348112	7738753.696683699
0.7598138753782836	7457590.134718875
0.75994051102418	7176379.712160128
0.7600671677760173	6895122.421197841
0.7601938456373134	6613818.254020178
0.7603205446115863	6332467.20281481
0.7604472647023548	6090248.665006645
0.7605740059131385	5851884.185642662
0.7607007682474575	5613479.97886522
0.7608275517088319	5375036.038053844
0.7609543563007835	5136552.356585138
0.7610811820268336	4898028.927836329
0.7612080288905045	4659465.745183188
0.7613348968953197	4422524.609974622
0.7614617860448022	4219640.614889809
0.7615886963424764	4016722.805805539
0.7617156277918667	3813771.1770866173
0.7618425803964988	3610785.723096076
0.7619695541598982	3407766.4381965897
0.7620965490855914	3204713.31674977
0.7622235651771058	3001626.353115808
0.7623506024379685	2807954.34640212
0.7624776608717082	2655665.2036483265
0.7626047404818536	2503350.679370734
0.7627318412719337	2351010.769339356
0.762858963245479	2198645.469322878
0.7629861064060198	2046254.7750897165
0.7631132707570876	1893838.6824073577
0.7632404563022137	1741397.1870430224
0.7633676630449308	1601733.9232218442
0.7634948909887717	1489302.0774124446
0.7636221401372697	1376851.4929622228
0.7637494104939593	1264382.16674782
0.7638767020623748	1151894.0956458773
0.7640040148460518	1039387.276531956
0.7641313488485262	926861.7062815201
0.7642587040733344	814317.3817692479
0.7643860805240132	720448.6919343262
0.7645134782041005	648872.371081697
0.7646408971171346	577284.1208422293
0.764768337266654	505683.93922774796
0.7648957986561985	434071.82424964104
0.7650232812893079	362447.77391904726
