#wavelength	surface flux
0.6450077295303345	24023.7771028693
0.6472567915916443	24983.23944864627
0.6494921445846558	25974.231066631164
0.6517150402069092	26989.383409156555
0.6539263725280762	28019.864663140157
0.6561272740364075	29081.734177660503
0.6583186388015747	30161.793011837828
0.6605015397071838	31287.340827227203
0.6626768708229065	32423.935663254637
0.6648455858230591	33593.88472694987
0.6670085787773132	34776.31157068037
0.6691668033599854	35446.530385578655
0.6713210344314575	36079.858813937775
0.6734722256660461	38508.55244334719
0.6756211519241333	39898.71674866758
0.6777685880661011	41274.75362951501
0.6799154281616211	42657.824921499574
0.6820623278617859	44090.63029121109
0.6842101216316223	45575.23554238029
0.6863595843315125	47084.079745012015
0.688511312007904	48630.432512527506
0.6906660795211792	50177.87069840648
0.6928245425224304	51715.51226045864
0.6949873566627502	53506.65771382311
0.6971551775932312	55249.247061775066
0.6993286609649658	57004.60771886504
0.7015084028244019	58800.711254048
0.7036949396133423	60672.62108804391
0.7058889269828796	62621.3698803386
0.7080909013748169	64560.97842068334
0.710301399230957	66558.3966563152
0.712520956993103	68646.62770021749
0.7147500514984131	70785.36460018535
0.7169892191886902	72826.38622910797
0.7192389369010925	75177.40543390509
0.7214996814727783	77445.8463640046
0.723771870136261	79769.81395590307
0.7260559797286987	82126.78470301404
0.7283523678779602	84620.55328378412
0.7306615710258484	87122.09482119206
0.7329838871955872	89881.27062447059
0.7353196740150452	92588.29746917963
0.7376693487167358	95353.45251744265
0.7400332689285278	98229.47951646459
0.7424117922782898	100981.91420299423
0.7448052167892456	103900.31737186947
0.7472138404846191	106723.537080854
0.7496379613876343	109486.04340647228
0.7520779371261597	111983.46225214681
0.7545340061187744	113964.08804285161
0.7570064663887024	114749.27837363834
0.7594954967498779	112750.21560837826
0.7620013952255249	101557.85797972299
0.7645244002342224	58219.6086593751
0.7670646905899048	18055.97764075375
0.7696225643157959	15579.979261460772
0.7721980810165405	88357.12206586865
0.7747915983200073	128939.88656032013
0.7774031162261963	143587.85277256646
0.7800329327583313	149892.3830333694
0.7826811671257019	159668.4824181296
0.7853479981422424	166373.69073742253
0.7880334854125977	172511.9287894531
0.7907378077507019	178355.77159656404
0.7934610247612	169181.37322703566
0.7962033748626709	174643.04817335668
0.7989648580551147	196080.0241918732
0.801745593547821	202292.8640769772
0.8045456409454346	208586.60760349588
0.8073651194572449	215013.30186687014
0.8102040886878967	221046.80948539556
0.8130625486373901	227318.52238395592
0.8159406185150146	234937.7309048302
0.8188382983207703	241973.21939218254
0.8217556476593018	249039.90604911436
0.8246926665306091	256641.27235901737
0.8276493549346924	264400.3066756154
0.8306257724761963	271978.7858133284
0.8336219191551208	280308.26816559833
0.8366377949714661	288196.14921067737
0.8396733403205872	296824.0051715406
0.8427285552024841	306367.7783260477
0.8458034992218018	315443.52197010105
0.8488980531692505	324779.0021048708
0.8520121574401855	334117.1660912922
0.8551458716392517	344307.62687100243
0.8582990765571594	354475.43699208606
0.8614717125892639	364071.59024749004
0.8646637797355652	374421.16764209996
0.8678751587867737	385524.68131635396
0.8711057901382446	396765.7843962527
0.8743556141853333	408204.45914758113
0.87762451171875	419910.83887042606
0.8809124231338501	431115.2165455395
0.8842192888259888	443780.59776396095
0.8875449895858765	455866.78328740166
0.8908893465995789	467758.3540925077
0.894252359867096	478749.5884340043
0.8976338505744934	494216.1972991923
0.9010337591171265	509514.55102741095
0.9044519662857056	524459.0926548446
0.9078882932662964	538357.1910181615
0.9113426208496094	553834.1376877573
0.914814829826355	567811.4746829624
0.9183048605918884	581590.7793250493
0.9218124747276306	600264.8451378656
0.925337553024292	610453.7320607785
0.9288799166679382	602921.2139168052
0.9324395060539246	626332.5814481229
0.9360161423683167	645740.8947302989
0.9396095871925354	672658.4929814467
0.943219780921936	684697.1506738287
0.9468464851379395	693743.0783657174
0.9504896402359009	721431.7668437945
0.9541489481925964	739902.4863376578
0.9578243494033813	761204.3176438835
0.9615156054496765	767015.5739826697
0.9652225375175476	791791.2074066165
0.9689450263977051	809671.1853468644
0.9726828336715698	853237.1272441831
0.9764357805252075	870792.7615309218
0.9802037477493286	896919.82710232
0.983986496925354	921069.0896804899
0.9877838492393494	945934.5703910554
0.9915955662727356	973342.4950977847
0.9954215884208679	998330.4129104501
0.9992615580558777	1023729.764872162
1.0031154155731201	1047797.4343903842
1.0069829225540161	1075279.9057374294
1.0108637809753418	1102737.6879538165
1.0147579908370972	1131153.5887652747
1.018665075302124	1158411.2226935585
1.022585153579712	1184982.8278037214
1.0265177488327026	1210758.2532399914
1.0304628610610962	1234804.1179839876
1.0344202518463135	1270736.6672857883
1.0383895635604858	1300102.1991223486
1.0423706769943237	1330363.9043892976
1.0463634729385376	1360785.5671926232
1.0503677129745483	1390163.167551443
1.0543830394744873	1422489.1074210573
1.058409333229065	1454034.8183498404
1.0624464750289917	1485392.2750567584
1.0664942264556885	1517539.7716448724
1.0705522298812866	1548959.8479579664
1.0746204853057861	1583954.7528271137
1.0786986351013184	1617792.1096305167
1.0827864408493042	1652831.2899561014
1.086883783340454	1686504.356344866
1.0909905433654785	1716301.5046362553
1.0951062440872192	1748214.9161409822
1.0992310047149658	1763822.3535230376
1.10336434841156	1737238.0356710441
1.1075061559677124	1778465.8280489335
1.1116561889648438	1803432.6927170374
1.115814208984375	1787921.006516948
1.1199802160263062	1829579.3965548943
1.124153733253479	1892165.8427509835
1.1283347606658936	1949359.3480011814
1.1325229406356812	1893152.9462078044
1.1367181539535522	1999791.7496202146
1.1409201622009277	2079538.3646829752
1.145128846168518	2146713.2098894604
1.1493438482284546	2151626.29296377
1.1535650491714478	2005329.6263699378
1.1577922105789185	2126664.9093568195
1.1620250940322876	2180241.5195287014
1.1662636995315552	2319521.916729786
1.170507550239563	2332396.155290844
1.174756646156311	2428923.0823405497
1.1790107488632202	2510960.2003462063
1.1832695007324219	2572174.8275756105
1.1875330209732056	2616967.8395298296
1.191800832748413	2673172.101457061
1.1960728168487549	2729697.743645422
1.2003488540649414	2782258.2733674333
1.2046287059783936	2822854.7794081927
1.2089121341705322	2876302.4324335055
1.2131990194320679	2923633.973538953
1.2174891233444214	2978615.0477470756
1.2217823266983032	3027605.86839188
1.2260783910751343	3077898.527096429
1.230377197265625	3125663.7048101714
1.2346785068511963	3172979.55446103
1.238982081413269	3223648.0339117926
1.2432878017425537	3274630.536155296
1.2475954294204712	3325514.9376220345
1.2519049644470215	3374351.864286423
1.256216049194336	3429827.062365876
1.2605286836624146	3478496.2343579447
1.2648425102233887	3526703.2332502953
1.2691574096679688	3576300.537077248
1.2734732627868652	3624801.3685788442
1.2777899503707886	3677397.802645539
1.2821072340011597	3722987.164524457
1.2864248752593994	3773716.848653801
1.2907428741455078	3811413.9649057207
1.2950609922409058	3864583.7936773966
1.2993791103363037	3917181.5771965114
1.303696870803833	3954832.50570429
1.3080145120620728	4005848.5966008874
1.3123314380645752	4054352.494567389
1.3166478872299194	4128741.12442371
1.3209635019302368	4165787.6553317285
1.3252781629562378	4168247.251028912
1.3295916318893433	4136812.902464603
1.3339040279388428	3871296.776925532
1.3382149934768677	3127236.947732276
1.3425244092941284	2688365.4035269883
1.3468321561813354	3434118.8258146658
1.3511382341384888	2931248.4693149347
1.3554422855377197	2314809.578991976
1.3597444295883179	2596845.1092744526
1.3640443086624146	2720034.0826073308
1.3683418035507202	2955325.4970023325
1.3726370334625244	3604627.775953541
1.3769296407699585	4147694.315910282
1.381219506263733	3220731.990567664
1.3855066299438477	2386930.6272674403
1.3897908926010132	2685977.332297357
1.3940720558166504	2717701.9655114296
1.3983501195907593	2587459.309384652
1.4026249647140503	3397002.055268682
1.4068963527679443	4104209.801492767
1.4111642837524414	2871997.9715874083
1.4154287576675415	3197963.5401219474
1.419689416885376	3597025.403527779
1.4239463806152344	2887850.4440364596
1.4281994104385376	3999899.2908246536
1.4324485063552856	3283732.219629042
1.436693549156189	3670601.115049247
1.440934419631958	3828142.121393409
1.4451709985733032	4416966.895238057
1.449403166770935	4983774.595456173
1.453631043434143	5085974.244631544
1.4578542709350586	5213129.81237292
1.4620729684829712	5269298.489825712
1.4662868976593018	5413791.247148
1.4704961776733398	5271322.95971223
1.4747005701065063	5359186.603778881
1.4788999557495117	5422563.158608129
1.4830944538116455	5693137.373511202
1.4872838258743286	5872245.763436062
1.491468071937561	5928581.821434108
1.4956470727920532	5885792.88329868
1.4998208284378052	6056605.409354164
1.5039892196655273	6207614.6295530265
1.5081522464752197	6200164.5865065
1.5123097896575928	6289326.407038859
1.5164618492126465	6410018.716975313
1.5206083059310913	6556043.966080979
1.5247491598129272	6667180.524363974
1.5288842916488647	6666277.266940765
1.5330137014389038	6757055.627913584
1.5371372699737549	6840384.740615262
1.541254997253418	6879461.512621027
1.545366883277893	6953997.04253339
1.5494728088378906	7021966.401853784
1.5535727739334106	7094227.499502513
1.5576666593551636	7104197.744920927
1.561754584312439	7159226.364405408
1.5658363103866577	7262606.4591024155
1.5699119567871094	7327727.162216758
1.5739814043045044	7347839.953627655
1.5780447721481323	7331010.680841352
1.582101821899414	7418738.76365439
1.5861525535583496	7550217.506984927
1.5901970863342285	7592684.609314217
1.5942351818084717	7634366.811157028
1.5982669591903687	7660794.490646803
1.6022924184799194	7708664.293769617
1.606311559677124	7778417.016780674
1.6103241443634033	7819127.689003846
1.6143304109573364	7848517.733738739
1.6183301210403442	7886739.979255903
1.6223233938217163	7908228.668379734
1.6263102293014526	7951209.712912991
1.6302905082702637	7944911.776667388
1.634264349937439	8014005.323168904
1.638231635093689	8162274.344464593
1.6421923637390137	8216838.017555534
1.646146535873413	8222526.419445074
1.6500942707061768	8209173.793553525
1.6540353298187256	8322438.991920788
1.6579699516296387	8380951.817299478
1.661897897720337	8398241.171527578
1.6658192873001099	8220727.646813216
1.6697341203689575	8258146.502366202
1.6736423969268799	8527066.494881224
1.677544116973877	8568526.235054405
1.6814392805099487	8591126.78577624
1.6853278875350952	8638875.539540282
1.6892099380493164	8646454.679389495
1.6930854320526123	8613479.04371381
1.696954369544983	8517530.589848787
1.7008168697357178	8627786.7378541
1.7046726942062378	8649206.788349269
1.708522081375122	8765117.1055196
1.712364912033081	8802140.396528358
1.7162011861801147	8886996.90728173
1.7200311422348022	8978538.399842752
1.723854422569275	8997681.80905111
1.7276713848114014	9009165.258367201
1.731481909751892	8980846.748216003
1.7352858781814575	8943727.69109523
1.7390835285186768	8949650.958827041
1.7428747415542603	8940558.79874058
1.7466596364974976	8839473.649166463
1.7504380941390991	8767462.696211347
1.7542102336883545	8513181.134659393
1.7579760551452637	8960697.736898746
1.7617355585098267	9186174.76300687
1.7654887437820435	9002215.094445022
1.7692357301712036	8664019.444645608
1.7729763984680176	8166449.4910473535
1.776710867881775	7156623.332130437
1.7804391384124756	7077796.305422375
1.7841613292694092	7414216.48800563
1.7878772020339966	6713359.629918157
1.7915871143341064	7252890.586269886
1.7952908277511597	7386575.646080501
1.7989884614944458	6820363.366555555
1.8026801347732544	5612881.774007655
1.806365728378296	4333048.7604417885
1.8100452423095703	4621427.823862224
1.8137187957763672	5945227.56924725
1.817386507987976	4460548.22230953
1.8210482597351074	5855073.855525637
1.8247040510177612	6323344.8206070205
1.828354001045227	4272995.50610941
1.8319982290267944	5258190.517844818
1.8356364965438843	6182217.499209491
1.8392690420150757	7097985.654812267
1.8428958654403687	7122740.375362363
1.8465168476104736	7179118.436567513
1.8501322269439697	6956735.124132768
1.8537418842315674	4987327.439827935
1.8573459386825562	5224495.885973621
1.860944390296936	5603660.041025555
1.864537239074707	4554569.694815244
1.8681244850158691	5615355.871545374
1.871706247329712	6884341.222237222
1.8752825260162354	7618633.268815964
1.8788533210754395	8136198.760481718
1.8824186325073242	8680401.502566747
1.8859784603118896	8148932.102575907
1.8895330429077148	7851590.235190853
1.8930821418762207	8653668.6902847
1.8966259956359863	8419094.639684506
1.9001644849777222	6395577.397974056
1.9036977291107178	5035084.939635257
1.9072256088256836	6087241.597398923
1.9107483625411987	5883728.281017874
1.9142658710479736	4305134.085800749
1.9177782535552979	4807372.135238119
1.9212853908538818	6027552.079960923
1.9247875213623047	5449558.49022555
1.9282845258712769	5804346.763177253
1.9317764043807983	6846118.682181054
1.9352631568908691	7001342.5759138
1.9387450218200684	6441333.798664937
1.942221760749817	6864818.079090758
1.9456936120986938	6927363.983682296
1.9491604566574097	6863360.2067267075
1.952622413635254	6510511.488269596
1.956079363822937	6119297.970540803
1.959531545639038	6918891.915186861
1.962978720664978	7059843.066015029
1.966421127319336	7620385.527516816
1.9698586463928223	8633016.667735236
1.9732913970947266	8764111.040968921
1.9767193794250488	8871381.66551033
1.9801424741744995	9473576.725638611
1.9835609197616577	9808574.594313633
1.9869745969772339	9828892.990886828
1.990383505821228	9226507.674266161
1.9937876462936401	9394914.882193731
1.9971871376037598	9396970.075886073
2.000581979751587	9497920.56619004
2.003972291946411	10224582.517590724
2.007357597351074	10421180.836585738
2.0107386112213135	10751536.55909796
2.0141148567199707	10812617.835369674
2.017486572265625	10545640.514504297
2.0208535194396973	10753562.851992257
2.0242159366607666	11118855.363944508
2.027573823928833	11218102.970098635
2.0309269428253174	11317831.103780996
2.034275770187378	11454304.041509278
2.0376198291778564	11536150.871040286
2.040959596633911	11602622.109365446
2.044294595718384	11705456.397933811
2.0476250648498535	11815118.768530793
2.0509510040283203	11825335.221778724
2.054272413253784	11786237.396957124
2.057589530944824	11847704.758236416
2.0609018802642822	11924078.788624085
2.0642096996307373	11982306.479480827
2.0675129890441895	12024728.320875924
2.0708119869232178	12055644.963320818
2.074106216430664	12061101.260922961
2.0773961544036865	12071892.70948924
2.080681324005127	12110520.151908316
2.0839622020721436	12142309.424492821
2.087238311767578	12170855.37263748
2.090510129928589	12187368.094523259
2.0937774181365967	12190868.542506814
2.0970399379730225	12219538.665894592
2.1002981662750244	12239658.517269278
2.1035518646240234	12245474.239543252
2.1068007946014404	12246449.928229015
2.1100454330444336	12289082.54443064
2.1132853031158447	12332499.094483338
2.116520881652832	12330123.493116977
2.1197516918182373	12340283.320780983
2.1229779720306396	12371636.290924063
2.12619948387146	12401480.037771085
2.1294167041778564	12420686.091673575
2.132629156112671	12444155.404362287
2.1358368396759033	12444789.209766239
2.139039993286133	12430488.57445149
2.1422386169433594	12423275.982783712
2.145432472229004	12419871.355242673
2.1486217975616455	12423509.302185552
2.151806354522705	12408545.00596979
2.1549863815307617	12430716.899096362
2.1581614017486572	12455153.650348512
2.16133189201355	12437396.52450461
2.1644976139068604	12443572.480297677
2.167658567428589	12457754.299313957
2.1708147525787354	12477405.037042903
2.173966407775879	12484297.171537565
2.1771130561828613	12488284.769440142
2.1802549362182617	12491473.425003126
2.183391809463501	12478155.02340515
2.1865241527557373	12448516.40341815
2.1896514892578125	12397543.884183913
2.1927738189697266	12237632.715361478
2.1958916187286377	11947655.36339244
2.1990041732788086	11681865.620098213
2.2021119594573975	11563129.229896773
2.2052149772644043	11556758.53082643
2.208312749862671	11647525.30187958
2.2114057540893555	11797074.338716416
2.214493751525879	11883212.013589626
2.217576742172241	11844077.03848954
2.2206547260284424	11818109.910088016
2.2237277030944824	11795010.438348783
2.2267956733703613	11625987.288906492
2.2298583984375	11403935.264266731
2.2329163551330566	11290144.25417741
2.235969066619873	11274279.111004502
2.2390167713165283	11209847.543717433
2.2420592308044434	10978370.576371273
2.2450966835021973	10754521.589481944
2.248128890991211	10848030.612034513
2.2511560916900635	11098599.653022613
2.254178285598755	11214507.399446558
2.257194995880127	11280287.061661681
2.260206699371338	11249755.150869556
2.2632133960723877	11013765.577193325
2.266214609146118	10759720.432236703
2.2692108154296875	10718320.929855362
2.2722020149230957	10911925.923587931
2.2751877307891846	11088926.427332966
2.278168201446533	11058567.056150176
2.2811436653137207	10923585.439214401
2.284113883972168	10826695.911081364
2.287078857421875	10730442.467838528
2.290038824081421	10588802.37938607
2.2929933071136475	10407912.781127209
2.295942783355713	10153251.168141361
2.298887014389038	9843599.110295855
2.301826238632202	9591817.168482669
2.304760217666626	9474561.23853852
2.3076889514923096	9505476.188215764
2.310612440109253	9653950.303080844
2.3135311603546143	9608490.710467048
2.3164443969726562	9025562.490166932
2.319352865219116	8437172.505551357
2.322256088256836	8336604.262117276
2.3251543045043945	8347544.334955591
2.328047275543213	8355422.389265135
2.330935478210449	8493329.245981077
2.3338186740875244	8657730.028722597
2.3366971015930176	8809930.430977363
2.3395702838897705	8946948.33251785
2.3424389362335205	9046279.530308887
2.3453025817871094	9121016.839460082
2.348161458969116	9190728.535567101
2.351015567779541	9316754.539745703
2.353865146636963	9504421.089739095
2.3567099571228027	9661674.68847641
2.3595502376556396	9825918.70575683
2.3623859882354736	10085548.258519568
2.3652172088623047	9939847.210176485
2.368043899536133	8964025.227188604
2.370866537094116	8355879.247877362
2.3736846446990967	8551981.700527906
2.3764986991882324	8610969.687778754
2.3793084621429443	8480007.165198663
2.3821144104003906	8603404.872869272
2.384916305541992	9159582.018492475
2.387714147567749	9819807.303049756
2.3905084133148193	10124085.00002754
2.393299102783203	10058010.887388557
2.3960859775543213	9743225.707962433
2.398869514465332	9483981.585641764
2.4016497135162354	9301584.940313015
2.4044265747070312	9300584.884872008
2.407200336456299	9535129.09219257
2.409970998764038	9871873.241494406
2.4127390384674072	10096476.36796336
2.415503978729248	10230527.056204299
2.418266534805298	10485610.458125114
2.4210267066955566	10606800.29608965
2.4237842559814453	10468985.2599988
2.426539897918701	10320612.40353349
2.429293394088745	10333621.279370192
2.4320452213287354	10486517.19456574
2.4347951412200928	10613571.955706809
2.4375438690185547	10621930.195878014
2.440291166305542	10472119.252449665
2.443037271499634	10171702.685516112
2.445782423019409	9777329.519495042
2.4485268592834473	9427970.009210289
2.451270818710327	9360478.812317679
2.454014539718628	9731652.033484034
2.4567582607269287	10124700.033339795
2.4595019817352295	9945497.510752281
2.4622461795806885	10071081.867393905
2.4649908542633057	9894056.451183697
2.4677364826202393	9149469.113424575
2.4704833030700684	7979080.951141826
2.473231554031372	6803403.855927283
2.4759814739227295	5893618.572504097
2.4787333011627197	5795492.639441138
2.481487512588501	6412740.609340633
2.4842441082000732	6861739.112773068
