#wavelength	surface flux
0.7	53977.95530544203
0.7001166666666666	54099.606152495326
0.7002333527777778	54174.93106144841
0.700350058336574	54250.26852455296
0.7004667833462966	54325.61854390125
0.7005835278101878	54400.981121586316
0.7007002917314895	54476.356259700864
0.7008170751134447	54551.74396033843
0.7009338779592968	54627.144225592725
0.7010507002722901	54659.02315298727
0.7011675420556689	54637.92952593417
0.701284403312678	54616.83238327658
0.7014012840465635	54595.73172442853
0.7015181842605713	54574.627548804005
0.701635103957948	54553.519855816885
0.701752043141941	54532.40864488095
0.701869001815798	54511.29391540982
0.7019859799827672	54549.88726419083
0.7021029776460976	54630.04295474391
0.7022199948090387	54710.21200457885
0.7023370314748403	54790.394415922055
0.7024540876467528	54870.590191000476
0.702571163328027	54950.79933204127
0.7026882585219152	55031.021841272464
0.7028053732316688	55111.257720921734
0.7029225074605406	55292.12293384915
0.7030396612117841	55511.87072774461
0.7031568344886527	55731.655146272424
0.7032740272944008	55951.47619553652
0.7033912396322832	56171.33388164228
0.7035084715055552	56391.2282106955
0.7036257229174727	56611.15918880365
0.7037429938712924	56831.12682207502
0.7038602843702709	57005.23784149424
0.7039775944176659	57171.59404411609
0.7040949240167356	57337.97797277178
0.7042122731707383	57504.38963208216
0.7043296418829335	57670.829026669184
0.7044470301565806	57837.29616115528
0.70456443799494	58003.79104016366
0.7046818654012724	58170.31366831864
0.7047993123788394	58294.05559281211
0.7049167789309024	58417.76901635478
0.7050342650607243	58541.503058801565
0.7051517707715678	58665.2577235887
0.7052692960666963	58789.03301415324
0.705386840949374	58912.828933932826
0.7055044054228656	59036.6454863659
0.7056219894904361	59149.16580971823
0.7057395931553511	59189.78741301965
0.705857216420877	59230.41578658832
0.7059748592902804	59271.050931552556
0.7060925217668288	59311.692849041
0.70621020385379	59352.341540182344
0.7063279055544321	59392.99700610551
0.7064456268720246	59433.65924793971
0.7065633678098366	59488.04249939053
0.7066811283711383	59580.20406271634
0.7067989085592001	59672.3809863027
0.7069167083772933	59764.5732727096
0.7070345278286895	59856.78092449762
0.707152366916661	59949.00394422763
0.7072702256444803	60041.242334460825
0.7073881040154211	60133.49609775918
0.7075060020327569	60251.655430287086
0.7076239196997625	60407.53957126381
0.7077418570197124	60563.449692930546
0.7078598139958823	60719.38579961755
0.7079777906315483	60875.34789565582
0.7080957869299869	61031.33598537664
0.7082138028944751	61187.35007311233
0.7083318385282908	61343.39016319609
0.7084498938347124	61403.859680576104
0.708567968817018	61383.29054286732
0.7086860634784875	61362.717976968896
0.7088041778224007	61342.14198230947
0.7089223118520377	61321.56255831762
0.7090404655706796	61300.97970442179
0.709158638981608	61280.39342005029
0.709276832088105	61259.80370463139
0.7093950448934531	61372.02312135911
0.7095132774009353	61547.600985767414
0.7096315296138355	61723.20811315319
0.7097498015354378	61898.84450839348
0.7098680931690269	62074.51017636614
0.7099864045178884	62250.20512195035
0.7101047355853081	62425.92935002546
0.7102230863745722	62601.68286547179
0.7103414568889679	62763.67089142769
0.7104598471317828	62922.551415970935
0.7105782571063047	63081.45842060149
0.7106966868158224	63240.3919097328
0.710815136263625	63399.35188777895
0.7109336054530023	63558.338359154855
0.7110520943872445	63717.351328275945
0.7111706030696424	63876.39079955865
0.7112891315034873	63969.74381447142
0.7114076796920712	64059.97703350686
0.7115262476386865	64150.22529141214
0.7116448353466263	64240.48859069368
0.711763442819184	64330.76693385849
0.711882070059654	64421.0603234139
0.7120007170713306	64511.36876186751
0.7121193838575091	64602.421668294024
0.7122380704214853	64701.0973782831
0.7123567767665555	64799.789534223746
0.7124755028960166	64898.498138857096
0.7125942488131658	64997.223194924474
0.7127130145213015	65095.96470516814
0.7128318000237216	65194.722672329866
0.7129506053237256	65293.49709915293
0.7130694304246129	65389.77238486623
0.7131882753296837	65477.268280374825
0.7133071400422386	65564.77875853269
0.7134260245655789	65652.3038217702
0.7135449289030065	65739.84347251826
0.7136638530578235	65827.39771320808
0.7137827970333332	65914.96654627146
0.7139017608328388	66002.54997414035
0.7140207444596443	66087.97795294602
0.7141397479170543	66169.54902252059
0.7142587712083737	66251.1336872733
0.7143778143369084	66332.7319494702
0.7144968773059646	66414.34381137749
0.7146159601188489	66495.96927526173
0.7147350627788687	66577.60834338996
0.7148541852893318	66659.26101802952
0.7149733276535467	66697.7957878255
0.7150924898748222	66692.844125791
0.715211671956468	66687.89163847949
0.7153308739017941	66682.93832575342
0.715450095714111	66677.98418747525
0.71556933739673	66673.02922350734
0.7156885989529628	66668.07343371212
0.7158078803861218	66663.11681795193
0.7159271816995193	66455.07440761183
0.7160465028964692	66127.79911719883
0.7161658439802853	65800.46928090409
0.7162852049542819	65473.0848896367
0.7164045858217744	65145.645934303895
0.716523986586078	64818.15240581201
0.7166434072505089	64490.60429506554
0.716762847818384	64163.001592967164
0.7168823082930204	64045.80111887684
0.7170017886777359	63990.496614687225
0.7171212889758488	63935.18289308028
0.7172408091906781	63879.85995251971
0.7173603493255433	63824.52779146904
0.7174799093837642	63769.18640839155
0.7175994893686615	63713.835801750196
0.7177190892835562	63658.475970007756
0.7178387091317702	64272.55278249355
0.7179583489166254	64953.93284050667
0.7180780086414448	65635.42646186332
0.7181976883095517	66317.03366549018
0.7183173879242699	66998.7544703177
0.718437107488924	67680.58889527952
0.7185568470068389	68362.53695931242
0.7186766064813399	69019.72128337066
0.7187963859157535	69055.02536337872
0.7189161853134061	69090.3353274001
0.719036004677625	69125.6511764155
0.7191558440117378	69160.97291140571
0.7192757033190732	69196.30053335181
0.7193955826029597	69231.63404323484
0.7195154818667269	69266.97344203622
0.7196354011137046	69286.44041312452
0.7197553403472235	69232.80401615672
0.7198752995706147	69179.15867978944
0.7199952787872098	69125.50440253272
0.720115278000341	69071.84118289647
0.7202352972133411	69018.16901939028
0.7203553364295432	68964.48791052357
0.7204753956522815	68910.79785480532
0.7205954748848902	68951.26513654216
0.7207155741307044	69199.3406287762
0.7208356933930594	69447.45746692519
0.7209558326752915	69695.61565788058
0.7210759919807375	69943.8152085348
0.7211961713127342	70192.05612578047
0.7213163706746197	70440.33841651275
0.7214365900697322	70688.66208762655
0.7215568295014103	70770.56857529037
0.721677088972994	70653.87559705212
0.7217973684878227	70537.16316998434
0.7219176680492374	70420.43129084527
0.7220379876605789	70303.67995639307
0.722158327325189	70186.90916338509
0.7222786870464099	70070.11890857834
0.7223990668275843	69953.30918872906
0.7225194666720555	69910.90643454382
0.7226398865831676	69921.24449023137
0.7227603265642646	69931.58426892819
0.722880786618692	69941.92577092146
0.7230012667497951	69952.26899649839
0.7231217669609201	69962.61394594624
0.7232422872554135	69972.96061955234
0.7233628276366229	69983.30901760406
0.7234833881078956	70217.38883126805
0.7236039686725803	70536.44918773205
0.7237245693340255	70855.56272092162
0.7238451900955812	71174.72943970065
0.7239658309605971	71493.94935293244
0.7240864919324239	71813.22246948352
0.7242071730144127	72132.54879822071
0.724327874209915	72451.92834801202
0.7244485955222832	72023.6348894434
0.7245693369548704	71471.63983229124
0.7246900985110294	70919.5527759637
0.7248108801941148	70367.37370512531
0.7249316820074803	69815.10260444363
0.7250525039544815	69262.7394585776
0.7251733460384739	68710.28425218716
0.7252942082628137	68159.43276406889
0.7254150906308574	68591.08630256703
0.7255359931459625	69022.81178332161
0.7256569158114868	69454.60921832314
0.7257778586307888	69886.47861956403
0.7258988216072273	70318.41999903835
0.7260198047441617	70750.4333687421
0.7261408080449525	71182.51874067487
0.72626183151296	71573.93718167361
0.7263828751515454	71694.68719427475
0.7265039389640706	71815.45733187797
0.726625022953898	71936.24759783753
0.7267461271243904	72057.05799550815
0.7268672514789111	72177.88852824496
0.7269883960208241	72298.73919940379
0.7271095607534942	72419.61001234122
0.7272307456802866	72535.1632894558
0.7273519508045666	72636.31746080832
0.7274731761297006	72737.48849118936
0.7275944216590555	72838.67638340879
0.7277156873959987	72939.88114027695
0.7278369733438982	73041.10276460476
0.727958279506122	73142.34125920302
0.7280796058860397	73243.59662688384
0.7282009524870207	73216.13494907314
0.7283223193124353	72998.25688879339
0.7284437063656539	72780.34251550403
0.7285651136500483	72562.39182315211
0.7286865411689898	72344.40480568523
0.7288079889258514	72126.38145704826
0.7289294569240056	71908.32177118701
0.7290509451668262	71690.22574204454
0.7291724536576875	71559.37075606803
0.7292939823999636	71500.81267583022
0.7294155313970303	71442.24483591225
0.7295371006522632	71383.66723468764
0.7296586901690385	71325.07987052955
0.7297802999507332	71266.48274181079
0.7299019300007252	71207.87584690376
0.7300235803223919	71149.25918418106
0.7301452509191123	71332.93773918532
0.7302669417942654	71628.48748677093
0.7303886529512311	71924.08649264791
0.7305103843933897	72219.73476502593
0.7306321361241218	72515.4323121158
0.7307539081468093	72811.1791421307
0.7308757004648336	73106.97526328331
0.7309975130815778	73402.82068378979
0.7311193460004248	73873.41704875565
0.7312411992247582	74383.64206679324
0.7313630727579622	74893.9521223337
0.7314849666034219	75404.34722955062
0.7316068807645224	75914.82740261842
0.7317288152446498	76425.3926557153
0.7318507700471907	76936.04300302129
0.7319727451755319	77446.77845871831
0.732094740633061	77440.13910416322
0.7322167564231665	77410.2024329934
0.7323387925492371	77380.26077237842
0.7324608490146619	77350.31412148665
0.732582925822831	77320.3624794864
0.7327050229771347	77290.40584554586
0.7328271404809642	77260.44421883296
0.7329492783377112	77221.35241689476
0.7330714365507675	77092.54390709857
0.7331936151235259	76963.71392921745
0.7333158140593796	76834.86247967351
0.7334380333617229	76705.98955488777
0.7335602730339499	76577.09515128116
0.7336825330794556	76448.17926527394
0.7338048135016354	76319.24189328596
0.7339271143038857	76315.55590224746
0.734049435489603	76731.61931322845
0.7341717770621846	77147.75206811134
0.7342941390250283	77563.95417845318
0.7344165213815324	77980.22565581322
0.734538924135096	78396.56651175345
0.7346613472891185	78812.9767578358
0.734783790847	79229.45640562597
0.7349062548121412	79423.1806255239
0.7350287391879431	79223.08512569757
0.7351512439778078	79022.95627662085
0.7352737691851374	78822.79407273619
0.735396314813335	78622.59850848404
0.7355188808658037	78422.36957830485
0.7356414673459482	78222.10727663687
0.7357640742571725	78021.81159791877
0.7358867016028818	77961.14675115114
0.7360093493864824	78038.40280042472
0.7361320176113801	78115.6717257064
0.736254706280982	78192.9535291423
0.7363774153986956	78270.24821287887
0.7365001449679286	78347.55577906256
0.7366228949920899	78424.8762298407
0.7367456654745885	78502.20956736061
0.7368684564188344	78640.29544114137
0.7369912678282374	78812.73309787345
0.7371140997062088	78985.19949421508
0.7372369520561599	79157.69463495626
0.7373598248815024	79330.21852488717
0.7374827181856494	79502.77116880003
0.7376056319720137	79675.35257148689
0.7377285662440091	79847.96273774089
0.7378515210050496	79926.95612541684
0.7379744962585505	79977.78758242002
0.738097492007927	80028.6275113327
0.7382205082565949	80079.47591356683
0.738343545007971	80130.33279053465
0.7384666022654723	80181.19814364868
0.7385896800325165	80232.0719743215
0.7387127783125219	80282.95428396614
0.7388358971089073	80437.46912369729
0.7389590364250921	80602.4034652885
0.7390821962644963	80767.36529593678
0.7392053766305403	80932.35462022324
0.7393285775266454	81097.37144273055
0.7394517989562333	81262.41576804177
0.7395750409227259	81427.48760074028
0.7396983034295463	81584.92210168432
0.739821586480118	81571.87268876047
0.7399448900778645	81558.82110093448
0.7400682142262109	81545.7673378438
0.740191558928582	81532.71139912597
0.7403149241884034	81519.65328441835
0.7404383100091014	81506.5929933583
0.7405617163941028	81493.53052558306
0.7406851433468352	81449.06898633609
0.7408085908707264	81260.96679564824
0.7409320589692048	81072.83325459539
0.7410555476456997	80884.66835795219
0.7411790569036406	80696.47210049303
0.7413025867464579	80508.24447699092
0.7414261371775823	80319.98548221815
0.7415497082004452	80131.69511094641
0.7416732998184786	79953.14979658723
0.741796912035115	79795.547110397
0.7419205448537874	79637.91815709246
0.7420441982779297	79480.26293229568
0.742167872310976	79322.58143162797
0.7422915669563612	79164.87365071016
0.7424152822175206	79007.13958516222
0.7425390180978901	78849.37923060347
0.7426627746009065	78831.47237240292
0.7427865517300065	78984.08600997993
0.7429103494886282	79136.72508316336
0.7430341678802096	79289.3895961922
0.7431580069081896	79442.07955330654
0.7432818665760077	79594.79495874728
0.7434057468871037	79747.53581675547
0.7435296478449182	79900.30213157323
0.7436535694528923	79961.2390206334
0.7437775117144678	79959.30857834638
0.7439014746330868	79957.37781431897
0.7440254582121922	79955.44672849755
0.7441494624552276	79953.5153208285
0.7442734873656368	79951.58359125818
0.7443975329468645	79949.65153973292
0.7445215992023557	79947.71916619908
0.7446456861355559	79851.55392555735
0.7447697937499119	79720.65988983953
0.7448939220488703	79589.74403844912
0.7450180710358784	79458.80636775027
0.7451422407143843	79327.84687410628
0.7452664310878367	79196.86555387989
0.7453906421596846	79065.86240343361
0.7455148739333779	78934.83741912887
0.7456391264123667	78791.42374391247
0.7457633996001021	78646.00877494023
0.7458876935000356	78500.56957013955
0.7460120081156189	78355.10612547169
0.7461363434503048	78209.61843689631
0.7462606995075466	78064.10650037271
0.7463850762907978	77918.5703118599
0.7465094738035127	77772.95643816638
0.7466338920491467	77613.34152724531
0.746758331031155	77453.70001383893
0.7468827907529935	77294.03189351383
0.7470072712181189	77134.33716183534
0.7471317724299886	76974.61581436821
0.7472562943920602	76814.86784667661
0.7473808371077922	76655.0932543236
0.7475054005806435	76492.54739756003
0.7476299848140736	76313.0685726768
0.7477545898115426	76133.55983465604
0.7478792155765113	75954.02117851224
0.7480038621124406	75774.45259925921
0.7481285294227926	75594.8540919097
0.7482532175110298	75415.22565147543
0.7483779263806148	75235.567272968
0.7485026560350116	75042.82181748108
0.7486274064776842	74814.70559380425
0.748752177712097	74586.55135075722
0.7488769697417158	74358.35908200253
0.749001782570006	74130.12878120333
0.7491266162004343	73901.86044202073
0.7492514706364677	73673.55405811481
0.7493763458815739	73445.20962314469
0.7495012419392209	73187.62707468556
0.7496261588128773	72888.02303542272
0.7497510965060128	72588.36906215313
0.7498760550220971	72288.66514655476
0.7500010343646007	71988.91128030376
0.7501260345369949	71689.10745507489
0.750251055542751	71389.25366254215
0.7503760973853414	71089.34989437716
0.7505011600682389	70755.61705520973
0.750626243594917	70393.6238286168
0.7507513479688495	70031.57026981997
0.7508764731935109	69669.45636876323
0.7510016192723765	69307.28211538956
0.7511267862089218	68945.04749964066
0.7512519740066232	68582.75251145568
0.7513771826689577	68220.39714077245
0.7515024121994025	67820.04842611341
0.7516276626014359	67401.94651300368
0.751752933878536	66983.77491624249
0.7518782260341824	66565.53362421504
0.7520035390718548	66147.2226253054
0.7521288729950334	65728.84190789616
0.7522542278071992	65310.39146036731
0.7523796035118337	64891.87127109701
0.7525050001124189	64423.10202795742
0.7526304176124378	63943.341780980576
0.7527558560153731	63463.50157396318
0.752881315324709	62983.58139357748
0.7530067955439299	62503.581226494876
0.7531322966765205	62023.50105938507
0.7532578187259665	61543.34087891393
0.7533833616957542	61063.10067174606
0.75350892558937	60531.70345645709
0.7536345104103016	59997.81588994588
0.7537601161620366	59463.83934217385
0.7538857428480638	58929.77379831001
0.7540113904718717	58395.61924352289
0.7541370590369503	57861.375662976745
0.7542627485467898	57327.043041833516
0.7543884590048808	56786.73931182356
0.7545141904147151	56187.689027876266
0.7546399427797842	55588.53890221595
0.7547657161035808	54989.28891820126
0.754891510389598	54389.93905918926
0.7550173256413296	53790.489308533855
0.7551431618622698	53190.93964958682
0.7552690190559135	52591.290065696754
0.7553948972257561	51975.34229212834
0.7555207963752938	51304.92044013989
0.755646716508023	50634.386851176496
0.755772657627441	49963.74150661471
0.7558986197370455	49292.98438782872
0.756024602840335	48622.11547618978
0.7561506069408084	47951.13475306557
0.7562766320419653	47280.04219982024
0.7564026781473054	46579.443436231
0.75652874526033	45827.00167196826
0.7566548333845401	45074.43450074442
0.7567809425234375	44321.74190165898
0.7569070726805247	43568.92385380745
0.7570332238593047	42815.98033628138
0.7571593960632813	42062.91132816834
0.7572855892959586	41309.7168085539
0.7574118035608413	40553.77932218267
0.7575380388614347	39795.155124798
0.7576642952012449	39036.404490046814
0.7577905725837782	38277.52739685759
0.7579168710125422	37518.52382415149
0.7580431904910444	36759.39375084965
0.7581695310227928	36000.13715586989
0.7582958926112967	35240.75401812334
0.7584222752600652	34457.49260940802
0.7585486789726085	33660.45620785297
0.7586751037524372	32863.28696689735
0.7588015496030628	32065.984864400016
0.7589280165279966	31268.54987822051
0.7590545045307512	30470.981986209976
0.7591810136148396	29673.281166217457
0.7593075437837755	28875.447396087093
0.7594340950410726	28081.123412552206
0.7595606673902461	27287.72393926164
0.7596872608348112	26494.192232724727
0.7598138753782836	25700.528270904266
0.75994051102418	24906.73203175609
0.7600671677760173	24112.803493235348
0.7601938456373134	23318.74263329091
0.7603205446115863	22524.54942987026
0.7604472647023548	21748.577956489968
0.7605740059131385	20974.30154943802
0.7607007682474575	20199.896096317472
0.7608275517088319	19425.361575623127
0.7609543563007835	18650.697965840278
0.7610811820268336	17875.905245456266
0.7612080288905045	17100.98339295368
0.7613348968953197	16327.908902423622
0.7614617860448022	15595.259302363795
0.7615886963424764	14862.487594036293
0.7617156277918667	14129.593757091443
0.7618425803964988	13396.577771173168
0.7619695541598982	12663.4396159241
0.7620965490855914	11930.179270983033
0.7622235651771058	11196.796715983626
0.7623506024379685	10492.250957851507
0.7624776608717082	9914.518353180772
0.7626047404818536	9336.689459742565
0.7627318412719337	8758.764261489778
0.762858963245479	8180.742742370252
0.7629861064060198	7602.624886330821
0.7631132707570876	7024.410677314782
0.7632404563022137	6446.100099264428
0.7633676630449308	5920.022292923174
0.7634948909887717	5505.2482074888285
0.7636221401372697	5090.404993040784
0.7637494104939593	4675.492638056607
0.7638767020623748	4260.511131013864
0.7640040148460518	3845.4604603861417
0.7641313488485262	3430.3406146466637
0.7642587040733344	3015.151582265758
0.7643860805240132	2677.9249108491945
0.7645134782041005	2433.757076610936
0.7646408971171346	2189.5485477335365
0.764768337266654	1945.2993174347466
0.7648957986561985	1701.0093789308282
0.7650232812893079	1456.6787254371914
0.7651507851695227	1212.30735016797
0.7652783103003843	967.8952463362339
0.7654058566854343	817.5075069942981
0.7655334243282153	731.2025281118899
0.7656610132322699	644.8831650664473
0.765788623401142	558.5494154604158
0.7659162548383754	472.20127689616635
