#wavelength	surface flux
0.7	2441745.4515926456
0.7001166666666666	2445008.7641267967
0.7002333527777778	2447842.314059478
0.700350058336574	2450676.3362504807
0.7004667833462966	2453510.8307785112
0.7005835278101878	2456345.7977223047
0.7007002917314895	2459181.237160584
0.7008170751134447	2462017.149172102
0.7009338779592968	2464853.5338356216
0.7010507002722901	2467540.25349713
0.7011675420556689	2470044.7133060344
0.701284403312678	2472549.590524903
0.7014012840465635	2475054.885223312
0.7015181842605713	2477560.5974708362
0.701635103957948	2480066.727337067
0.701752043141941	2482573.2748916084
0.701869001815798	2485080.240204079
0.7019859799827672	2487272.5264900145
0.7021029776460976	2489245.888488946
0.7022199948090387	2491219.579381547
0.7023370314748403	2493193.599222629
0.7024540876467528	2495167.948067018
0.702571163328027	2497142.6259695436
0.7026882585219152	2499117.6329850587
0.7028053732316688	2501092.969168407
0.7029225074605406	2503945.8397884467
0.7030396612117841	2507137.9150497084
0.7031568344886527	2510330.522323515
0.7032740272944008	2513523.661698531
0.7033912396322832	2516717.3332634447
0.7035084715055552	2519911.53710695
0.7036257229174727	2523106.273317763
0.7037429938712924	2526301.5419846145
0.7038602843702709	2529628.6085334406
0.7039775944176659	2532978.4931551237
0.7040949240167356	2536328.9360909117
0.7042122731707383	2539679.9374338537
0.7043296418829335	2543031.497277022
0.7044470301565806	2546383.615713496
0.70456443799494	2549736.292836374
0.7046818654012724	2553089.528738775
0.7047993123788394	2556098.8347404636
0.7049167789309024	2559108.246976992
0.7050342650607243	2562118.160782231
0.7051517707715678	2565128.5762397693
0.7052692960666963	2568139.493433216
0.705386840949374	2571150.9124461934
0.7055044054228656	2574162.8333623447
0.7056219894904361	2577131.7923317854
0.7057395931553511	2579825.0374570964
0.705857216420877	2582518.7314565973
0.7059748592902804	2585212.8744050963
0.7060925217668288	2587907.466377423
0.70621020385379	2590602.5074484115
0.7063279055544321	2593297.997692908
0.7064456268720246	2595993.937185783
0.7065633678098366	2598753.4968951247
0.7066811283711383	2601687.490329405
0.7067989085592001	2604621.9727625903
0.7069167083772933	2607556.9442761797
0.7070345278286895	2610492.4049516898
0.707152366916661	2613428.3548706463
0.7072702256444803	2616364.7941145864
0.7073881040154211	2619301.7227650704
0.7075060020327569	2622262.849901481
0.7076239196997625	2625258.999095581
0.7077418570197124	2628255.6476478768
0.7078598139958823	2631252.7956415974
0.7079777906315483	2634250.443159987
0.7080957869299869	2637248.590286294
0.7082138028944751	2640247.237103787
0.7083318385282908	2643246.383695752
0.7084498938347124	2646162.184187656
0.708567968817018	2649007.384330018
0.7086860634784875	2651853.058672407
0.7088041778224007	2654699.207293856
0.7089223118520377	2657545.8302734043
0.7090404655706796	2660392.9276901144
0.709158638981608	2663240.499623064
0.709276832088105	2666088.5461513363
0.7093950448934531	2669189.766198257
0.7095132774009353	2672412.017920116
0.7096315296138355	2675634.8066839296
0.7097498015354378	2678858.1325792028
0.7098680931690269	2682081.995695456
0.7099864045178884	2685306.396122232
0.7101047355853081	2688531.333949079
0.7102230863745722	2691756.8092655614
0.7103414568889679	2694706.632658442
0.7104598471317828	2697594.190926491
0.7105782571063047	2700482.230454249
0.7106966868158224	2703370.7513219276
0.710815136263625	2706259.753609751
0.7109336054530023	2709149.237397957
0.7110520943872445	2712039.202766794
0.7111706030696424	2714929.649796527
0.7112891315034873	2717914.453247345
0.7114076796920712	2720904.2331967424
0.7115262476386865	2723894.5114427977
0.7116448353466263	2726885.2880685586
0.711763442819184	2729876.563157092
0.711882070059654	2732868.3367914762
0.7120007170713306	2735860.6090547973
0.7121193838575091	2738878.284002785
0.7122380704214853	2742156.203956322
0.7123567767665555	2745434.6702298475
0.7124755028960166	2748713.6829144205
0.7125942488131658	2751993.2421011054
0.7127130145213015	2755273.3478809968
0.7128318000237216	2758554.000345174
0.7129506053237256	2761835.1995847677
0.7130694304246129	2765038.6816417347
0.7131882753296837	2767969.058925538
0.7133071400422386	2770899.924605556
0.7134260245655789	2773831.278763185
0.7135449289030065	2776763.121479841
0.7136638530578235	2779695.452836949
0.7137827970333332	2782628.2729159533
0.7139017608328388	2785561.581798304
0.7140207444596443	2788559.444452546
0.7141397479170543	2791672.092150787
0.7142587712083737	2794785.2586236396
0.7143778143369084	2797898.9439575737
0.7144968773059646	2801013.148239064
0.7146159601188489	2804127.8715546005
0.7147350627788687	2807243.1139906896
0.7148541852893318	2810358.87563385
0.7149733276535467	2813424.6921803476
0.7150924898748222	2816440.1325330585
0.715211671956468	2819456.0754591622
0.7153308739017941	2822472.521042423
0.715450095714111	2825489.4693666124
0.71556933739673	2828506.920515523
0.7156885989529628	2831524.874572958
0.7158078803861218	2834543.3316227403
0.7159271816995193	2836597.3620763384
0.7160465028964692	2838085.3813511534
0.7161658439802853	2839573.6486291806
0.7162852049542819	2841062.163951754
0.7164045858217744	2842550.9273602157
0.716523986586078	2844039.9388959114
0.7166434072505089	2845529.1986001953
0.716762847818384	2847018.7065144307
0.7168823082930204	2849737.4900069223
0.7170017886777359	2852818.301239336
0.7171212889758488	2855899.6259402866
0.7172408091906781	2858981.4641953553
0.7173603493255433	2862063.816090134
0.7174799093837642	2865146.6817102265
0.7175994893686615	2868230.061141257
0.7177190892835562	2871313.954468858
0.7178387091317702	2876058.6329284552
0.7179583489166254	2880970.764954665
0.7180780086414448	2885883.7156695495
0.7181976883095517	2890797.485209553
0.7183173879242699	2895712.073711147
0.718437107488924	2900627.4813108253
0.7185568470068389	2905543.708145106
0.7186766064813399	2910389.0169691574
0.7187963859157535	2913441.5407147915
0.7189161853134061	2916494.573214383
0.719036004677625	2919548.1145527246
0.7191558440117378	2922602.164814621
0.7192757033190732	2925656.7240848984
0.7193955826029597	2928711.792448384
0.7195154818667269	2931767.369989933
0.7196354011137046	2934722.9360515564
0.7197553403472235	2937216.1792392987
0.7198752995706147	2939709.837967571
0.7199952787872098	2942203.912305633
0.720115278000341	2944698.4023227515
0.7202352972133411	2947193.3080882067
0.7203553364295432	2949688.6296712854
0.7204753956522815	2952184.367141298
0.7205954748848902	2955056.286131593
0.7207155741307044	2958757.1064030365
0.7208356933930594	2962458.5434778524
0.7209558326752915	2966160.597458848
0.7210759919807375	2969863.2684488455
0.7211961713127342	2973566.55655067
0.7213163706746197	2977270.461867184
0.7214365900697322	2980974.984501247
0.7215568295014103	2984413.2182499226
0.721677088972994	2987533.5608508885
0.7217973684878227	2990654.4235089496
0.7219176680492374	2993775.806310791
0.7220379876605789	2996897.709343097
0.722158327325189	3000020.1326925764
0.7222786870464099	3003143.076445946
0.7223990668275843	3006266.540689942
0.7225194666720555	3009243.41608693
0.7226398865831676	3012116.5274978937
0.7227603265642646	3014990.1177607523
0.722880786618692	3017864.1869553276
0.7230012667497951	3020738.7351614335
0.7231217669609201	3023613.7624589074
0.7232422872554135	3026489.268927595
0.7233628276366229	3029365.254647366
0.7234833881078956	3033029.4187848205
0.7236039686725803	3036993.2525608153
0.7237245693340255	3040957.746975766
0.7238451900955812	3044922.9021397936
0.7239658309605971	3048888.71816301
0.7240864919324239	3052855.1951555694
0.7242071730144127	3056822.333227628
0.724327874209915	3060790.132489356
0.7244485955222832	3062924.4468584443
0.7245693369548704	3064755.8563694344
0.7246900985110294	3066587.57111534
0.7248108801941148	3068419.591147042
0.7249316820074803	3070251.9165154095
0.7250525039544815	3072084.547271341
0.7251733460384739	3073917.4834657325
0.7252942082628137	3075755.2574114823
0.7254150906308574	3080219.473801646
0.7255359931459625	3084684.434227875
0.7256569158114868	3089150.1388141764
0.7257778586307888	3093616.587684578
0.7258988216072273	3098083.780963123
0.7260198047441617	3102551.718773876
0.7261408080449525	3107020.401240939
0.72626183151296	3111361.4845924447
0.7263828751515454	3114850.372631129
0.7265039389640706	3118339.842151152
0.726625022953898	3121829.89324943
0.7267461271243904	3125320.5260228934
0.7268672514789111	3128811.7405684832
0.7269883960208241	3132303.5369831612
0.7271095607534942	3135795.91536391
0.7272307456802866	3139282.1572002354
0.7273519508045666	3142750.831496336
0.7274731761297006	3146220.0839048177
0.7275944216590555	3149689.914522034
0.7277156873959987	3153160.3234443543
0.7278369733438982	3156631.3107681675
0.727958279506122	3160102.876589859
0.7280796058860397	3163575.0210058577
0.7282009524870207	3166805.468704883
0.7283223193124353	3169678.102504105
0.7284437063656539	3172551.215075621
0.7285651136500483	3175424.8064992363
0.7286865411689898	3178298.8768547503
0.7288079889258514	3181173.426221997
0.7289294569240056	3184048.454680798
0.7290509451668262	3186923.962311012
0.7291724536576875	3189932.222726324
0.7292939823999636	3193050.587380083
0.7294155313970303	3196169.4717612904
0.7295371006522632	3199288.8759565605
0.7296586901690385	3202408.8000525273
0.7297802999507332	3205529.244135842
0.7299019300007252	3208650.208293179
0.7300235803223919	3211771.6926112003
0.7301452509191123	3215377.0958166476
0.7302669417942654	3219206.221966696
0.7303886529512311	3223035.9863044373
0.7305103843933897	3226866.3889362356
0.7306321361241218	3230697.42996847
0.7307539081468093	3234529.1095075496
0.7308757004648336	3238361.427659878
0.7309975130815778	3242194.3845319026
0.7311193460004248	3246544.4283364713
0.7312411992247582	3251012.114406629
0.7313630727579622	3255480.545091131
0.7314849666034219	3259949.720514084
0.7316068807645224	3264419.6407996058
0.7317288152446498	3268890.3060718435
0.7318507700471907	3273361.716454962
0.7319727451755319	3277833.872073143
0.732094740633061	3281151.252608041
0.7322167564231665	3284417.1641434217
0.7323387925492371	3287683.619997392
0.7324608490146619	3290950.62026067
0.732582925822831	3294218.165023993
0.7327050229771347	3297486.254378106
0.7328271404809642	3300754.8884137813
0.7329492783377112	3303987.6102566216
0.7330714365507675	3306862.460336136
0.7331936151235259	3309737.78955733
0.7333158140593796	3312613.5980000575
0.7334380333617229	3315489.8857441964
0.7335602730339499	3318366.6528696273
0.7336825330794556	3321243.8994562463
0.7338048135016354	3324121.625583958
0.7339271143038857	3327305.18089551
0.734049435489603	3331512.397214535
0.7341717770621846	3335720.3147362806
0.7342941390250283	3339928.9335776106
0.7344165213815324	3344138.253855413
0.734538924135096	3348348.2756866007
0.7346613472891185	3352558.9991880883
0.734783790847	3356770.424476828
0.7349062548121412	3360454.3532323316
0.7350287391879431	3363205.283665738
0.7351512439778078	3365956.6725875563
0.7352737691851374	3368708.5200741915
0.735396314813335	3371460.8262020764
0.7355188808658037	3374213.591047645
0.7356414673459482	3376966.8146873605
0.7357640742571725	3379720.4971976806
0.7358867016028818	3383045.9859416015
0.7360093493864824	3386936.2859033933
0.7361320176113801	3390827.2342485064
0.736254706280982	3394718.831085011
0.7363774153986956	3398611.076520993
0.7365001449679286	3402503.97066454
0.7366228949920899	3406397.51362378
0.7367456654745885	3410291.7055068472
0.7368684564188344	3413990.273164146
0.7369912678282374	3417578.527740454
0.7371140997062088	3421167.380359193
0.7372369520561599	3424756.8311200384
0.7373598248815024	3428346.880122669
0.7374827181856494	3431937.5274668066
0.7376056319720137	3435528.773252168
0.7377285662440091	3439120.6175784944
0.7378515210050496	3442868.169268683
0.7379744962585505	3446663.0130469846
0.738097492007927	3450458.489299248
0.7382205082565949	3454254.5981308846
0.738343545007971	3458051.3396473257
0.7384666022654723	3461848.7139540236
0.7385896800325165	3465646.721156433
0.7387127783125219	3469445.361360048
0.7388358971089073	3473656.9261923614
0.7389590364250921	3477910.5468151383
0.7390821962644963	3482164.8763746894
0.7392053766305403	3486419.9149891604
0.7393285775266454	3490675.662776737
0.7394517989562333	3494932.119855616
0.7395750409227259	3499189.2863440006
0.7396983034295463	3503424.9162786542
0.739821586480118	3507166.3715132736
0.7399448900778645	3510908.4503237577
0.7400682142262109	3514651.152814055
0.740191558928582	3518394.479088097
0.7403149241884034	3522138.429249848
0.7404383100091014	3525883.0034032934
0.7405617163941028	3529628.201652429
0.7406851433468352	3533208.6305278144
0.7408085908707264	3536033.020318404
0.7409320589692048	3538857.8808406233
0.7410555476456997	3541683.2121729325
0.7411790569036406	3544509.014393795
0.7413025867464579	3547335.287581695
0.7414261371775823	3550162.0318151265
0.7415497082004452	3552989.2471725955
0.7416732998184786	3556059.1911299755
0.741796912035115	3559649.3365588835
0.7419205448537874	3563240.0803453624
0.7420441982779297	3566831.4225891386
0.742167872310976	3570423.3633899586
0.7422915669563612	3574015.902847579
0.7424152822175206	3577609.041061775
0.7425390180978901	3581202.778132337
0.7426627746009065	3585115.6296752524
0.7427865517300065	3589417.426582642
0.7429103494886282	3593719.940456188
0.7430341678802096	3598023.1714153755
0.7431580069081896	3602327.1195797226
0.7432818665760077	3606631.7850687704
0.7434057468871037	3610937.168002062
0.7435296478449182	3615243.268499174
0.7436535694528923	3619141.118387977
0.7437775117144678	3622759.6665784186
0.7439014746330868	3626378.8178602196
0.7440254582121922	3629998.5723339044
0.7441494624552276	3633618.930100003
0.7442734873656368	3637239.891259061
0.7443975329468645	3640861.4559116494
0.7445215992023557	3644483.6241583456
0.7446456861355559	3648020.0220743855
0.7447697937499119	3651525.191492544
0.7448939220488703	3655030.945105605
0.7450180710358784	3658537.283010931
0.7451422407143843	3662044.205305909
0.7452664310878367	3665551.712087939
0.7453906421596846	3669059.803454429
0.7455148739333779	3672568.479502815
0.7456391264123667	3676351.39688149
0.7457633996001021	3680178.7009156686
0.7458876935000356	3684006.642833859
0.7460120081156189	3687835.222742363
0.7461363434503048	3691664.4407475195
0.7462606995075466	3695494.29695568
0.7463850762907978	3699324.7914732033
0.7465094738035127	3703157.1372595867
0.7466338920491467	3707307.397396484
0.746758331031155	3711458.3492434085
0.7468827907529935	3715609.992915636
0.7470072712181189	3719762.3285284755
0.7471317724299886	3723915.356197251
0.7472562943920602	3728069.076037302
0.7473808371077922	3732223.4881639965
0.7475054005806435	3736329.641994563
0.7476299848140736	3740134.963080752
0.7477545898115426	3743940.918387123
0.7478792155765113	3747747.5080193793
0.7480038621124406	3751554.732083238
0.7481285294227926	3755362.59068444
0.7482532175110298	3759171.083928746
0.7483779263806148	3762980.2119219205
0.7485026560350116	3766744.5330260783
0.7486274064776842	3770386.4951396137
0.748752177712097	3774029.0642468287
0.7488769697417158	3777672.240448903
0.749001782570006	3781316.023847006
0.7491266162004343	3784960.4145423407
0.7492514706364677	3788605.412636127
0.7493763458815739	3792251.0182295986
0.7495012419392209	3795935.6225132095
0.7496261588128773	3799676.032663318
0.7497510965060128	3803417.0662151207
0.7498760550220971	3807158.7232725145
0.7500010343646007	3810901.003939418
0.7501260345369949	3814643.908319768
0.750251055542751	3818387.4365175106
0.7503760973853414	3822131.5886366214
0.7505011600682389	3825784.7968454654
0.750626243594917	3829362.156789907
0.7507513479688495	3832940.112961
0.7508764731935109	3836518.6654581227
0.7510016192723765	3840097.814380663
0.7511267862089218	3843677.55982802
0.7512519740066232	3847257.9018996195
0.7513771826689577	3850838.8406949
0.7515024121994025	3854303.9181643073
0.7516276626014359	3857715.273812975
0.751752933878536	3861127.198020912
0.7518782260341824	3864539.690882884
0.7520035390718548	3867952.7524936683
0.7521288729950334	3871366.3829480526
0.7522542278071992	3874780.582340846
0.7523796035118337	3878195.3507668735
0.7525050001124189	3881579.255870863
0.7526304176124378	3884956.8891041125
0.7527558560153731	3888335.0852762293
0.752881315324709	3891713.8444810454
0.7530067955439299	3895093.1668123966
0.7531322966765205	3898473.0523641314
0.7532578187259665	3901853.5012301262
0.7533833616957542	3905234.5135042653
0.75350892558937	3908536.2604566123
0.7536345104103016	3911834.8039206727
0.7537601161620366	3915133.897141975
0.7538857428480638	3918433.5402121507
0.7540113904718717	3921733.7332228343
0.7541370590369503	3925034.476265685
0.7542627485467898	3928335.7694323785
0.7543884590048808	3931636.3355062455
0.7545141904147151	3934924.7142108325
0.7546399427797842	3938213.6409785314
0.7547657161035808	3941503.1159006925
0.754891510389598	3944793.139068674
0.7550173256413296	3948083.710573851
0.7551431618622698	3951374.830507612
0.7552690190559135	3954666.4989613607
0.7553948972257561	3957769.174524371
0.7555207963752938	3960236.147736232
0.755646716508023	3962703.5321102934
0.755772657627441	3965171.3277150844
0.7558986197370455	3967639.5346191437
0.756024602840335	3970108.1528910194
0.7561506069408084	3972577.182599274
0.7562766320419653	3975046.6238124818
0.7564026781473054	3977366.6719687697
0.75652874526033	3979423.4906168324
0.7566548333845401	3981480.652068004
0.7567809425234375	3983538.1563794166
0.7569070726805247	3985596.0036082137
0.7570332238593047	3987654.1938115484
0.7571593960632813	3989712.7270465856
0.7572855892959586	3991771.6033704956
0.7574118035608413	3994033.643756115
0.7575380388614347	3996494.48746939
0.7576642952012449	3998955.7413232853
0.7577905725837782	4001417.405386152
0.7579168710125422	4003879.4797263676
0.7580431904910444	4006341.9644123074
0.7581695310227928	4008804.8595123584
0.7582958926112967	4011268.1650949293
0.7584222752600652	4012589.0311690336
0.7585486789726085	4013253.5936442968
0.7586751037524372	4013918.2668799725
0.7588015496030628	4014583.0508945226
0.7589280165279966	4015247.9457064066
0.7590545045307512	4015912.951334093
0.7591810136148396	4016578.0677960506
0.7593075437837755	4017243.295110753
0.7594340950410726	4016799.5573431486
0.7595606673902461	4016033.9621242303
0.7596872608348112	4015268.239306108
0.7598138753782836	4014502.3888675165
0.75994051102418	4013736.410787185
0.7600671677760173	4012970.305043841
0.7601938456373134	4012204.071616205
0.7603205446115863	4011437.7104829988
0.7604472647023548	4007706.0846921606
0.7605740059131385	4003679.10270697
0.7607007682474575	3999651.449558111
0.7608275517088319	3995623.1251337365
0.7609543563007835	3991594.1293219486
0.7610811820268336	3987564.4620108614
0.7612080288905045	3983534.1230885633
0.7613348968953197	3979235.4903226285
0.7614617860448022	3969445.1261276514
0.7615886963424764	3959653.1302052955
0.7617156277918667	3949859.502283628
0.7618425803964988	3940064.2420906327
0.7619695541598982	3930267.349354274
0.7620965490855914	3920468.823802467
0.7622235651771058	3910668.6651630565
0.7623506024379685	3898637.522123772
0.7624776608717082	3876832.884931685
0.7626047404818536	3855024.613633398
0.7627318412719337	3833212.707623265
0.762858963245479	3811397.1662954506
0.7629861064060198	3789577.9890440796
0.7631132707570876	3767755.1752631436
0.7632404563022137	3745928.724346597
0.7633676630449308	3714037.5189202996
0.7634948909887717	3660724.2211805936
0.7636221401372697	3607402.0378913335
0.7637494104939593	3554070.967571475
0.7638767020623748	3500731.0087399734
0.7640040148460518	3447382.1599152726
0.7641313488485262	3394024.4196157698
0.7642587040733344	3340657.7863594894
0.7643860805240132	3246157.715140375
0.7645134782041005	3102567.9855523044
0.7646408971171346	2958954.324342577
0.764768337266654	2815316.7275226996
0.7648957986561985	2671655.191103306
0.7650232812893079	2527969.7110945284
0.7651507851695227	2384260.283505748
