#wavelength	surface flux
0.7	41834940.79292457
0.7001166666666666	42252866.7691328
0.7002333527777778	42307593.47873784
0.700350058336574	42362329.30946112
0.7004667833462966	42417074.262822784
0.7005835278101878	42471828.34034349
0.7007002917314895	42526591.5435437
0.7008170751134447	42581363.873944424
0.7009338779592968	42636145.333066866
0.7010507002722901	42607377.231701836
0.7011675420556689	42476918.96425826
0.701284403312678	42346438.953770325
0.7014012840465635	42215937.196613796
0.7015181842605713	42085413.68916442
0.701635103957948	41954868.427797236
0.701752043141941	41824301.408886515
0.701869001815798	41693712.62880578
0.7019859799827672	41296967.662347674
0.7021029776460976	40714941.99973471
0.7022199948090387	40132819.3328439
0.7023370314748403	39550599.64550887
0.7024540876467528	38968282.92155938
0.702571163328027	38385869.14482352
0.7026882585219152	37803358.29912332
0.7028053732316688	37220750.368283
0.7029225074605406	37112207.33328019
0.7030396612117841	37186741.900499254
0.7031568344886527	37261288.890146196
0.7032740272944008	37335848.304291375
0.7033912396322832	37410420.145005606
0.7035084715055552	37485004.41435989
0.7036257229174727	37559601.114425756
0.7037429938712924	37634210.24727504
0.7038602843702709	37866857.43073797
0.7039775944176659	38126345.68956944
0.7040949240167356	38385877.196444154
0.7042122731707383	38645451.95856987
0.7043296418829335	38905069.98315609
0.7044470301565806	39164731.27741303
0.70456443799494	39424435.84855215
0.7046818654012724	39684183.70378661
0.7047993123788394	39753814.435631886
0.7049167789309024	39823238.55508431
0.7050342650607243	39892674.24522342
0.7051517707715678	39962121.507977515
0.7052692960666963	40031580.34527537
0.705386840949374	40101050.759046085
0.7055044054228656	40170532.7512192
0.7056219894904361	40230016.12651938
0.7057395931553511	40225895.67811172
0.705857216420877	40221774.54296264
0.7059748592902804	40217652.72095771
0.7060925217668288	40213530.211982444
0.70621020385379	40209407.01592235
0.7063279055544321	40205283.132662915
0.7064456268720246	40201158.5620896
0.7065633678098366	40224821.04462213
0.7066811283711383	40325015.41789044
0.7067989085592001	40425226.49022095
0.7069167083772933	40525454.264396794
0.7070345278286895	40625698.743201725
0.707152366916661	40725959.929419816
0.7072702256444803	40826237.825835496
0.7073881040154211	40926532.43523405
0.7075060020327569	40940270.94357872
0.7076239196997625	40827931.64803411
0.7077418570197124	40715573.62927368
0.7078598139958823	40603196.8841768
0.7079777906315483	40490801.4096223
0.7080957869299869	40378387.20248878
0.7082138028944751	40265954.25965414
0.7083318385282908	40153502.57799561
0.7084498938347124	40201830.786628634
0.708567968817018	40386495.41599612
0.7086860634784875	40571190.82280205
0.7088041778224007	40755917.01217593
0.7089223118520377	40940673.9892478
0.7090404655706796	41125461.75914907
0.709158638981608	41310280.32701221
0.709276832088105	41495129.697970025
0.7093950448934531	41616599.26319357
0.7095132774009353	41707847.86747074
0.7096315296138355	41799111.67984866
0.7097498015354378	41890390.70286196
0.7098680931690269	41981684.93904567
0.7099864045178884	42072994.39093552
0.7101047355853081	42164319.061067335
0.7102230863745722	42255658.95197745
0.7103414568889679	42044839.30084272
0.7104598471317828	41765323.287168965
0.7105782571063047	41485760.68749315
0.7106966868158224	41206151.494050734
0.710815136263625	40926495.69907614
0.7109336054530023	40646793.2948022
0.7110520943872445	40367044.27346098
0.7111706030696424	40087248.62728271
0.7112891315034873	40100717.976750486
0.7114076796920712	40128184.3136207
0.7115262476386865	40155655.22821372
0.7116448353466263	40183130.721292496
0.711763442819184	40210610.793620124
0.711882070059654	40238095.445959836
0.7120007170713306	40265584.67907492
0.7121193838575091	40314689.74699046
0.7122380704214853	40589202.838688605
0.7123567767665555	40863761.682568416
0.7124755028960166	41138366.28625567
0.7125942488131658	41413016.65737668
0.7127130145213015	41687712.80356028
0.7128318000237216	41962454.73243407
0.7129506053237256	42237242.45162973
0.7130694304246129	42421751.69250529
0.7131882753296837	42290486.19552942
0.7133071400422386	42159198.8209707
0.7134260245655789	42027889.56518298
0.7135449289030065	41896558.42451924
0.7136638530578235	41765205.39533213
0.7137827970333332	41633830.473973304
0.7139017608328388	41502433.65679428
0.7140207444596443	41433459.01455657
0.7141397479170543	41475866.907823704
0.7142587712083737	41518281.86907299
0.7143778143369084	41560703.89948252
0.7144968773059646	41603133.000230454
0.7146159601188489	41645569.172495164
0.7147350627788687	41688012.417455256
0.7148541852893318	41730462.736289494
0.7149733276535467	41888368.62854944
0.7150924898748222	42162716.5237935
0.715211671956468	42437110.14368682
0.7153308739017941	42711549.49585034
0.715450095714111	42986034.58790576
0.71556933739673	43260565.42747655
0.7156885989529628	43535142.02218724
0.7158078803861218	43809764.37966412
0.7159271816995193	43706773.88768251
0.7160465028964692	43382104.18230627
0.7161658439802853	43057380.36531248
0.7162852049542819	42732602.427682586
0.7164045858217744	42407770.36039622
0.716523986586078	42082884.15443211
0.7166434072505089	41757943.80076717
0.716762847818384	41432949.2903765
0.7168823082930204	41354866.91234865
0.7170017886777359	41349427.95450743
0.7171212889758488	41343988.09017325
0.7172408091906781	41338547.31919502
0.7173603493255433	41333105.64142161
0.7174799093837642	41327663.05670191
0.7175994893686615	41322219.56488476
0.7177190892835562	41316775.165818974
0.7178387091317702	41660782.68440192
0.7179583489166254	42039926.615896
0.7180780086414448	42419133.73804562
0.7181976883095517	42798404.06138226
0.7183173879242699	43177737.59643948
0.718437107488924	43557134.35375264
0.7185568470068389	43936594.34385883
0.7186766064813399	44306471.871010944
0.7187963859157535	44435247.1299431
0.7189161853134061	44564043.851418406
0.719036004677625	44692862.03901397
0.7191558440117378	44821701.696307376
0.7192757033190732	44950562.82687719
0.7193955826029597	45079445.43430194
0.7195154818667269	45208349.52216137
0.7196354011137046	45296800.07440383
0.7197553403472235	45198911.14307996
0.7198752995706147	45101005.89693425
0.7199952787872098	45003084.33324744
0.720115278000341	44905146.44930003
0.7202352972133411	44807192.24237194
0.7203553364295432	44709221.709742844
0.7204753956522815	44611234.84869151
0.7205954748848902	44494865.759128444
0.7207155741307044	44337987.33519313
0.7208356933930594	44181082.7648541
0.7209558326752915	44024152.04375332
0.7210759919807375	43867195.16753214
0.7211961713127342	43710212.13183179
0.7213163706746197	43553202.93229191
0.7214365900697322	43396167.56455227
0.7215568295014103	43306516.43307802
0.721677088972994	43297282.33363585
0.7217973684878227	43288046.69517713
0.7219176680492374	43278809.51744532
0.7220379876605789	43269570.80018389
0.722158327325189	43260330.543136254
0.7222786870464099	43251088.746045776
0.7223990668275843	43241845.40865578
0.7225194666720555	43197153.534355305
0.7226398865831676	43127332.03768107
0.7227603265642646	43057498.9040909
0.722880786618692	42987654.13164498
0.7230012667497951	42917797.7184037
0.7231217669609201	42847929.66242687
0.7232422872554135	42778049.9617741
0.7233628276366229	42708158.61450444
0.7234833881078956	42685992.21452053
0.7236039686725803	42681945.863337725
0.7237245693340255	42677898.83776306
0.7238451900955812	42673851.13768413
0.7239658309605971	42669802.762988515
0.7240864919324239	42665753.713563785
0.7242071730144127	42661703.98929749
0.724327874209915	42657653.59007715
0.7244485955222832	42748640.109432995
0.7245693369548704	42855355.45639313
0.7246900985110294	42962088.58924427
0.7248108801941148	43068839.51095116
0.7249316820074803	43175608.224477984
0.7250525039544815	43282394.73279057
0.7251733460384739	43389199.038854554
0.7252942082628137	43496253.29402138
0.7254150906308574	43737839.518763974
0.7255359931459625	43979466.00787738
0.7256569158114868	44221132.768072374
0.7257778586307888	44462839.80606086
0.7258988216072273	44704587.1285556
0.7260198047441617	44946374.7422705
0.7261408080449525	45188202.653921425
0.72626183151296	45379152.74668975
0.7263828751515454	45231754.519025385
0.7265039389640706	45084331.724989764
0.726625022953898	44936884.360488385
0.7267461271243904	44789412.42142619
0.7268672514789111	44641915.90370757
0.7269883960208241	44494394.803236134
0.7271095607534942	44346849.11591452
0.7272307456802866	44213488.276637256
0.7273519508045666	44118488.33504837
0.7274731761297006	44023472.56013593
0.7275944216590555	43928440.94926101
0.7277156873959987	43833393.49978424
0.7278369733438982	43738330.209065735
0.727958279506122	43643251.07446571
0.7280796058860397	43548156.093343124
0.7282009524870207	43597101.605332494
0.7283223193124353	43859130.64722812
0.7284437063656539	44121203.36063019
0.7285651136500483	44383319.752818264
0.7286865411689898	44645479.83107115
0.7288079889258514	44907683.60267106
0.7289294569240056	45169931.07489896
0.7290509451668262	45432222.2550392
0.7291724536576875	45629391.791354105
0.7292939823999636	45772597.67440527
0.7294155313970303	45915827.425103895
0.7295371006522632	46059081.0474276
0.7296586901690385	46202358.54535491
0.7297802999507332	46345659.92286515
0.7299019300007252	46488985.183938675
0.7300235803223919	46632334.33255533
0.7301452509191123	46628696.364543855
0.7302669417942654	46557202.00013142
0.7303886529512311	46485695.71999156
0.7305103843933897	46414177.52213832
0.7306321361241218	46342647.404585496
0.7307539081468093	46271105.36534629
0.7308757004648336	46199551.40243403
0.7309975130815778	46127985.513861194
0.7311193460004248	46147359.34510982
0.7312411992247582	46187326.697225735
0.7313630727579622	46227300.71056699
0.7314849666034219	46267281.38624384
0.7316068807645224	46307268.725366615
0.7317288152446498	46347262.72904593
0.7318507700471907	46387263.39839254
0.7319727451755319	46427270.734517366
0.732094740633061	46488082.31487169
0.7322167564231665	46549840.34396291
0.7323387925492371	46611608.66605898
0.7324608490146619	46673387.28287538
0.732582925822831	46735176.19612794
0.7327050229771347	46796975.40753263
0.7328271404809642	46858784.91880596
0.7329492783377112	46907406.3201467
0.7330714365507675	46826281.47188885
0.7331936151235259	46745143.10282297
0.7333158140593796	46663991.21069567
0.7334380333617229	46582825.79325289
0.7335602730339499	46501646.8482405
0.7336825330794556	46420454.37340393
0.7338048135016354	46339248.36648837
0.7339271143038857	46248105.4245033
0.734049435489603	46123697.09504805
0.7341717770621846	45999268.03087119
0.7342941390250283	45874818.22851704
0.7344165213815324	45750347.68452921
0.734538924135096	45625856.39545053
0.7346613472891185	45501344.35782384
0.734783790847	45376811.56819083
0.7349062548121412	45295285.77778233
0.7350287391879431	45289799.713441305
0.7351512439778078	45284312.7347562
0.7352737691851374	45278824.84157467
0.735396314813335	45273336.03374426
0.7355188808658037	45267846.31111255
0.7356414673459482	45262355.67352707
0.7357640742571725	45256864.12083532
0.7358867016028818	45333281.71761097
0.7360093493864824	45490605.62624846
0.7361320176113801	45647955.75553717
0.736254706280982	45805332.10984743
0.7363774153986956	45962734.693550274
0.7365001449679286	46120163.51101675
0.7366228949920899	46277618.566619605
0.7367456654745885	46435099.86473172
0.7368684564188344	46482620.7265809
0.7369912678282374	46467987.353168935
0.7371140997062088	46453351.54086139
0.7372369520561599	46438713.28925178
0.7373598248815024	46424072.5979336
0.7374827181856494	46409429.46650018
0.7376056319720137	46394783.89454485
0.7377285662440091	46380135.88166086
0.7378515210050496	46267803.324639596
0.7379744962585505	46126062.472426616
0.738097492007927	45984297.9967383
0.7382205082565949	45842509.89363746
0.738343545007971	45700698.15918613
0.7384666022654723	45558862.78944559
0.7385896800325165	45417003.780476965
0.7387127783125219	45275121.12834
0.7388358971089073	45483458.29443835
0.7389590364250921	45726960.472299054
0.7390821962644963	45970503.23385626
0.7392053766305403	46214086.58587337
0.7393285775266454	46457710.53511599
0.7394517989562333	46701375.088350385
0.7395750409227259	46945080.25234326
0.7396983034295463	47182584.80344917
0.739821586480118	47281288.12329163
0.7399448900778645	47380007.893687196
0.7400682142262109	47478744.11737813
0.740191558928582	47577496.797106236
0.7403149241884034	47676265.93561423
0.7404383100091014	47775051.53564532
0.7405617163941028	47873853.59994303
0.7406851433468352	47926742.06788146
0.7408085908707264	47769520.35640819
0.7409320589692048	47612272.44131643
0.7410555476456997	47454998.3182387
0.7411790569036406	47297697.98280723
0.7413025867464579	47140371.43065314
0.7414261371775823	46983018.657406986
0.7415497082004452	46825639.658698745
0.7416732998184786	46746325.56176385
0.741796912035115	46834519.098094635
0.7419205448537874	46922727.333348125
0.7420441982779297	47010950.26997415
0.742167872310976	47099187.91042303
0.7422915669563612	47187440.257145315
0.7424152822175206	47275707.31259204
0.7425390180978901	47363989.0792146
0.7426627746009065	47449088.62976627
0.7427865517300065	47530305.07734697
0.7429103494886282	47611535.06100235
0.7430341678802096	47692778.582988285
0.7431580069081896	47774035.6455612
0.7432818665760077	47855306.250978
0.7434057468871037	47936590.401495636
0.7435296478449182	48017888.09937164
0.7436535694528923	47973307.260084115
0.7437775117144678	47842541.99575565
0.7439014746330868	47711754.937216654
0.7440254582121922	47580946.080834456
0.7441494624552276	47450115.42297614
0.7442734873656368	47319262.96000822
0.7443975329468645	47188388.688296355
0.7445215992023557	47057492.60420589
0.7446456861355559	46973904.90559832
0.7447697937499119	46907738.46522909
0.7448939220488703	46841560.99711981
0.7450180710358784	46775372.499432564
0.7451422407143843	46709172.97032903
0.7452664310878367	46642962.407970585
0.7453906421596846	46576740.81051849
0.7455148739333779	46510508.17613346
0.7456391264123667	46581467.47628579
0.7457633996001021	46674376.59973677
0.7458876935000356	46767301.20804183
0.7460120081156189	46860241.30378142
0.7461363434503048	46953196.889537014
0.7462606995075466	47046167.96789032
0.7463850762907978	47139154.54142321
0.7465094738035127	47232275.60131032
0.7466338920491467	47356538.93510781
0.746758331031155	47480822.97946105
0.7468827907529935	47605127.73782154
0.7470072712181189	47729453.21364176
0.7471317724299886	47853799.41037464
0.7472562943920602	47978166.33147356
0.7473808371077922	48102553.98039277
0.7475054005806435	48211409.45713464
0.7476299848140736	48224483.290652
0.7477545898115426	48237559.303141624
0.7478792155765113	48250637.494966656
0.7480038621124406	48263717.86649033
0.7481285294227926	48276800.418075904
0.7482532175110298	48289885.15008677
0.7483779263806148	48302972.062886275
0.7485026560350116	48308799.74087475
0.7486274064776842	48294975.63978256
0.748752177712097	48281149.23467355
0.7488769697417158	48267320.52516366
0.749001782570006	48253489.51086886
0.7491266162004343	48239656.19140502
0.7492514706364677	48225820.56638793
0.7493763458815739	48211982.63543332
0.7495012419392209	48210036.2478442
0.7496261588128773	48225188.36216818
0.7497510965060128	48240343.001844555
0.7498760550220971	48255500.16729421
0.7500010343646007	48270659.858938105
0.7501260345369949	48285822.07719728
0.750251055542751	48300986.822492816
0.7503760973853414	48316154.09524591
0.7505011600682389	48318746.45390185
0.750626243594917	48310837.36816408
0.7507513479688495	48302926.964245364
0.7508764731935109	48295015.24192599
0.7510016192723765	48287102.20098624
0.7511267862089218	48279187.84120633
0.7512519740066232	48271272.16236646
0.7513771826689577	48263355.164246775
0.7515024121994025	48266515.42845713
0.7516276626014359	48274841.676809415
0.751752933878536	48283169.31286975
0.7518782260341824	48291498.336869426
0.7520035390718548	48299828.74903978
0.7521288729950334	48308160.54961214
0.7522542278071992	48316493.738817945
0.7523796035118337	48324828.316888615
0.7525050001124189	48331852.601261266
0.7526304176124378	48338592.79467523
0.7527558560153731	48345334.111454755
0.752881315324709	48352076.55178708
0.7530067955439299	48358820.115859464
0.7531322966765205	48365564.80385918
0.7532578187259665	48372310.61597357
0.7533833616957542	48379057.55238998
0.75350892558937	48349865.188499674
0.7536345104103016	48318977.9377226
0.7537601161620366	48288085.53907041
0.7538857428480638	48257187.991685085
0.7540113904718717	48226285.294708565
0.7541370590369503	48195377.44728255
0.7542627485467898	48164464.44854862
0.7543884590048808	48140087.392784685
0.7545141904147151	48180934.81606579
0.7546399427797842	48221789.04725071
0.7547657161035808	48262650.08747417
0.754891510389598	48303517.937870994
0.7550173256413296	48344392.599576235
0.7551431618622698	48385274.07372508
0.7552690190559135	48426162.361452945
0.7553948972257561	48447654.75469171
0.7555207963752938	48404023.13997042
0.755646716508023	48360384.25331337
0.755772657627441	48316738.09350853
0.7558986197370455	48273084.65934371
0.756024602840335	48229423.949606545
0.7561506069408084	48185755.96308442
0.7562766320419653	48142080.69856451
0.7564026781473054	48103023.66204999
0.75652874526033	48072099.77468138
0.7566548333845401	48041170.73333154
0.7567809425234375	48010236.53714148
0.7569070726805247	47979297.18525207
0.7570332238593047	47948352.67680402
0.7571593960632813	47917403.01093787
0.7572855892959586	47886448.186794065
0.7574118035608413	47891408.59267228
0.7575380388614347	47931511.91427552
0.7576642952012449	47971621.9197657
0.7577905725837782	48011738.61025674
0.7579168710125422	48051861.986862935
0.7580431904910444	48091992.05069858
0.7581695310227928	48132128.80287814
0.7582958926112967	48172272.244516455
0.7584222752600652	48170184.37988587
0.7585486789726085	48143832.05007036
0.7586751037524372	48117475.32819987
0.7588015496030628	48091114.21354236
0.7589280165279966	48064748.705365784
0.7590545045307512	48038378.80293785
0.7591810136148396	48012004.50552618
0.7593075437837755	47985625.812398225
0.7594340950410726	47943681.69485739
0.7595606673902461	47897215.76332308
0.7596872608348112	47850742.087466806
0.7598138753782836	47804260.665997945
0.75994051102418	47757771.497625455
0.7600671677760173	47711274.58105828
0.7601938456373134	47664769.91500497
0.7603205446115863	47618257.49817401
0.7604472647023548	47527428.358754806
0.7605740059131385	47432179.774769016
0.7607007682474575	47336915.31601913
0.7608275517088319	47241634.97985967
0.7609543563007835	47146338.76364397
0.7610811820268336	47051026.664725624
0.7612080288905045	46955698.680457644
0.7613348968953197	46858692.80536225
0.7614617860448022	46727570.13433198
0.7615886963424764	46596425.60952303
0.7617156277918667	46465259.2272934
0.7618425803964988	46334070.98399996
0.7619695541598982	46202860.87599935
0.7620965490855914	46071628.89964749
0.7622235651771058	45940375.05129942
0.7623506024379685	45786098.21624268
0.7624776608717082	45530979.28779565
0.7626047404818536	45275817.8395272
0.7627318412719337	45020613.864351146
0.762858963245479	44765367.355179064
0.7629861064060198	44510078.3049221
0.7631132707570876	44254746.706489824
0.7632404563022137	43999372.55279138
0.7633676630449308	43628921.293802425
0.7634948909887717	43013537.944741
0.7636221401372697	42398052.03178887
0.7637494104939593	41782463.53785066
0.7638767020623748	41166772.44583102
0.7640040148460518	40550978.73862868
0.7641313488485262	39935082.399141826
0.7642587040733344	39319083.41026436
0.7643860805240132	38210336.16607494
0.7645134782041005	36513530.26251268
0.7646408971171346	34816441.557965785
0.764768337266654	33119070.005302086
0.7648957986561985	31421415.557379067
0.7650232812893079	29723478.167048283
0.7651507851695227	28025257.787152424
0.7652783103003843	26326754.370526798
0.7654058566854343	24209561.40007244
0.7655334243282153	21806860.614694737
0.7656610132322699	19403759.379189268
