#wavelength	surface flux
0.8	170846273.18570554
0.8002000000000001	175910453.2958007
0.8004000500000003	174437081.11302096
0.8006001500125003	172897292.0838693
0.8008003000500035	171357118.10746023
0.8010005001250161	169816559.08755636
0.8012007502500472	168275614.92789975
0.8014010504376099	170944692.00361958
0.8016014007002193	175024793.8838962
0.8018018010503944	179105915.78964284
0.8020022515006572	183188057.97586775
0.8022027520635323	187271220.6976357
0.8024033027515483	190864007.95696226
0.8026039035772362	193976144.23619667
0.8028045545531306	197089058.54950106
0.8030052556917691	200202751.09138528
0.803206007005692	203317222.0564022
0.8034068085074435	206105277.11947787
0.8036076602095705	207976854.9632636
0.8038085621246229	209848900.70150882
0.8040095142651542	211721414.45118976
0.8042105166437206	213594396.32930747
0.8044115692728815	215356823.57897642
0.8046126721651998	212344402.01989707
0.8048138253332411	209331227.3554304
0.8050150287895745	206317299.3972948
0.805216282546772	203302617.95717046
0.8054175866174087	200287182.8466877
0.8056189410140631	198175560.0711325
0.8058203457493168	196319460.29149693
0.8060218008357541	194462896.4869188
0.8062233062859632	192605868.54138863
0.8064248621125346	190748376.33887336
0.806626468328063	189966993.26574218
0.8068281249451449	190110061.24782088
0.8070298319763813	190253164.99689528
0.8072315894343755	190396304.52190685
0.8074333973317341	190539479.83179972
0.8076352556810671	191214791.93825877
0.8078371644949874	193171128.83737704
0.8080391237861113	195127954.82072058
0.8082411335670578	197085270.01055872
0.8084431938504498	199043074.52919638
0.8086453046489125	200982529.2425335
0.8088474659750746	202571715.61699286
0.8090496778415686	204161299.28804794
0.809251940261029	205751280.35501963
0.8094542532460944	207341658.91725942
0.8096566168094059	208932435.074138
0.8098590309636085	207906111.69088963
0.8100614957213493	206266885.12653455
0.8102640110952797	204627248.75553817
0.8104665770980536	202987202.47544837
0.8106691937423283	201346746.18378794
0.8108718610407639	200550603.99432987
0.8110745790060241	200400179.0410238
0.8112773476507757	200249716.48147926
0.8114801669876885	200099216.3062949
0.8116830370294355	199948678.5060668
0.8118859577886929	201194450.5167495
0.8120889292781401	205340808.67371604
0.8122919515104597	209488203.42022154
0.8124950244983374	213636635.01541388
0.8126981482544621	217786103.7185044
0.8129013227915257	221998884.79883316
0.8131045481222237	226925777.46054706
0.8133078242592543	231853901.84542692
0.8135111512153191	236783258.26140168
0.813714529003123	241713847.016481
0.8139179576353739	246645668.41874996
0.8141214371247829	249231760.62142676
0.8143249674840641	251363383.9098268
0.814528548725935	253495540.10404766
0.8147321808631167	255628229.33731994
0.8149358639083326	257761451.7428999
0.8151395978743097	255737271.45261157
0.8153433827737784	250903309.10270885
0.8155472186194719	246068138.26222035
0.8157511054241268	241231758.6290227
0.815955043200483	236394169.9009134
0.8161590319612831	230436524.34787995
0.8163630717192736	222427237.85399896
0.8165671624872033	214415949.03850335
0.8167713042778252	206402657.40079597
0.8169754971038948	198387362.44017524
0.8171797409781707	189156535.65953505
0.8173840359134155	170235431.3368572
0.8175883819223938	151309596.7381205
0.8177927790178745	132379030.68072324
0.8179972272126291	113443731.98180673
0.8182017265194322	94503699.45823456
0.8184062769510622	90826842.35827015
0.8186108785203001	89498571.48305872
0.8188155312399301	88169968.54013027
0.8190202351227402	86841033.44646461
0.819224990181521	85511766.11902638
0.8194297964290664	98120866.6294665
0.8196346538781738	119134646.20872521
0.8198395625416434	140153679.23287037
0.8200445224322789	161177967.01528043
0.820249533562887	182207510.86962986
0.8204545959462778	199262960.65434566
0.8206597095952644	209918015.5620918
0.8208648745226633	220575734.23357308
0.8210700907412941	231236117.33472055
0.8212753582639793	241899165.53163248
0.8214806771035456	251744944.43237647
0.8216860472728215	256541385.85512066
0.8218914687846397	261339026.38822076
0.822096941651836	266137866.33145663
0.822302465887249	270937905.9846755
0.8225080415037209	275739145.6478103
0.8227136685140968	283400782.02889353
0.8229193469312254	291388912.3683035
0.8231250767679583	299379039.740301
0.8233308580371503	307371164.64413714
0.8235366907516598	315365287.57920516
0.8237425749243477	322418372.08290166
0.8239485105680789	328973393.68978614
0.824154497695721	335530054.0520681
0.824360536320145	342088353.57944196
0.8245666264542252	348648292.6816973
0.8247727681108388	351805027.95342237
0.8249789613028664	350086175.2303997
0.8251852060431922	348366892.7941949
0.825391502344703	346647180.53738177
0.8255978502202894	344927038.3525029
0.8258042496828445	343746142.07250184
0.8260107007452654	345185924.7791927
0.8262172034204517	346626067.4315587
0.8264237577213068	348066570.1195882
0.8266303636607373	349507432.93329036
0.8268370212516525	350948655.9626952
0.8270437305069654	349398308.57968336
0.8272504914395923	347613773.669197
0.8274573040624523	345828792.6249827
0.8276641683884679	344043365.3355088
0.8278710844305652	342257491.6892105
0.8280780522016729	345046720.6188627
0.8282850717147234	349928121.8507574
0.8284921429826521	354810743.4329551
0.8286992660183978	359694585.67055213
0.8289064408349024	364579648.8687052
0.8291136674451112	370361893.33694285
0.8293209458619727	377275344.03573024
0.8295282760984382	384190523.09718317
0.829735658167463	391107430.95340943
0.8299430920820048	398026068.0365909
0.8301505778550254	403617253.4910838
0.8303581154994891	403904684.9871257
0.8305657050283641	404192188.34104186
0.8307733464546212	404479763.5707963
0.8309810397912352	404767410.69435865
0.8311887850511829	405055129.7297013
0.8313965822474458	412091187.255209
0.8316044313930077	419442226.5427996
0.8318123325008561	426795103.5902189
0.8320202855839813	434149818.85689646
0.8322282906553774	441506372.8023913
0.8324363477280413	448027441.9860457
0.8326444568149735	454213037.7886913
0.8328526179291771	460400179.9902803
0.8330608310836596	466588868.97742903
0.8332690962914304	472779105.1368164
0.8334774135655034	475018918.4163001
0.833685782918895	472844810.8889841
0.8338942043646247	470670159.83478755
0.834102677915716	468494965.1178259
0.834311203585195	466319226.6021868
0.8345197813860912	467224559.64973426
0.8347284113314379	478503124.9766704
0.8349370934342709	489784509.9449319
0.8351458277076294	501068715.2594218
0.8353546141645565	512355741.62525916
0.8355634528180977	523645589.74768317
0.8357723436813022	507813823.740634
0.8359812867672226	491643182.11356795
0.8361902820889144	475468497.8261032
0.8363993296594368	459289769.8675618
0.8366084294918518	443106997.2270253
0.8368175815992247	434861445.4760161
0.8370267859946247	429348886.11409587
0.8372360426911234	423834948.6123369
0.8374453517017962	418319632.626203
0.8376547130397217	412802937.81107324
0.8378641267179816	413726946.8554506
0.8380735927496613	421043407.8960602
0.8382831111478488	428361698.0519257
0.8384926819256358	435681817.7803263
0.8387023050961173	443003767.53866524
0.8389119806723914	447172930.9576653
0.8391217086675596	442465014.11353785
0.8393314890947265	437755920.29020286
0.8395413219670003	433045649.1934116
0.8397512072974922	428334200.52884287
0.8399611450993165	423732685.51634747
0.8401711353855914	424647778.2128921
0.8403811781694378	425563099.68261063
0.8405912734639802	426478649.9826968
0.8408014212823464	427394429.1703584
0.8410116216376671	428310437.30281687
0.8412218745430766	427568720.0543443
0.8414321800117124	426344416.62937033
0.8416425380567154	425119807.12853956
0.8418529486912297	423894891.4753332
0.8420634119284025	422669669.5932147
0.8422739277813847	434186884.423039
0.8424844962633302	456933829.62089425
0.842695117387396	479686461.55502
0.8429057911667428	502444781.6471301
0.8431165176145345	525208791.31927425
0.8433272967439382	538541726.4894384
0.8435381285681244	528859107.01166993
0.8437490131002665	519174066.8790342
0.8439599503535415	509486605.4863714
0.84417094034113	499796722.22835344
0.8443819830762154	489622690.99518394
0.8445930785719846	469741714.7878309
0.8448042268416277	449855768.3364369
0.8450154278983382	429964850.3984327
0.8452266817553128	410068959.73094547
0.8454379884257517	390168095.090789
0.8456493479228583	393750562.71092004
0.845860760259839	402990192.68127257
0.846072225449904	412232132.5591176
0.8462837435062666	421476382.92193407
0.8464953144421433	430722944.3473466
0.8467069382707537	437593675.3124353
0.8469186150053215	442612435.2297864
0.847130344659073	447632449.83711827
0.8473421272452377	452653719.448097
0.8475539627770492	457676244.3764836
0.8477658512677435	460757117.88479453
0.8479777927305605	459713254.3341034
0.8481897871787432	458669129.8175249
0.848401834625538	457624744.2698167
0.8486139350841944	456580097.6257222
0.8488260885679657	455253231.43151677
0.8490382950901076	450489060.8612745
0.8492505546638802	445723699.2483872
0.8494628673025462	440957146.29509836
0.8496752330193721	436189401.7035642
0.8498876518276269	431420465.17588866
0.8501001237405839	424473058.2265009
0.8503126487715191	417089291.4599466
0.850525226933712	409703678.75170463
0.8507378582404455	402316219.6402857
0.8509505427050057	394926913.6640846
0.8511632803406821	395477635.1390677
0.8513760711607672	401467224.2266011
0.8515889151785576	407458310.7114157
0.8518018124073523	413450894.9678465
0.8520147628604541	419444977.37033784
0.8522277665511693	431201038.6456162
0.8524408234928071	453613351.03797275
0.8526539336986805	476031266.50843346
0.8528670971821053	498454786.4577632
0.8530803139564007	520883912.2870539
0.8532935840348901	542315663.5130326
0.8535069074308987	555282078.1348859
0.8537202841577566	568251734.3604054
0.8539337142287962	581224632.999983
0.8541471976573534	594200774.8642123
0.8543607344567677	607180160.7639099
0.8545743246403821	608293550.2254983
0.8547879682215422	607522246.8598102
0.8550016652135977	606750750.6682808
0.8552154156299011	605979061.6027035
0.8554292194838088	605207179.6148591
0.8556430767886797	598410435.8443664
0.855856987557877	587953973.1061057
0.8560709518047664	577494896.252167
0.8562849695427177	567033204.6290109
0.8564990407851035	556568897.5829461
0.8567131655452999	548963450.9751937
0.8569273438366862	546044727.7713826
0.8571415756726455	543125274.8867698
0.8573558610665638	540205092.1389347
0.8575702000318304	537284179.3454161
0.8577845925818384	540778399.0483506
0.857999038729984	584349334.5082741
0.8582135384896665	627931162.7020525
0.858428091874289	671523886.3528819
0.8586426988972576	715127508.1846124
0.8588573595719821	758742030.9218158
0.8590720739118751	742156639.2481205
0.8592868419303532	718468065.8701047
0.8595016636408359	694773570.3487443
0.8597165390567462	671073151.2035114
0.8599314681915105	647366806.9534862
0.8601464510585584	623465447.9261225
0.860361487671323	599457746.8670286
0.8605765780432408	575444043.8826768
0.8607917221877518	551424337.4725592
0.8610069201182988	527398626.13584566
0.8612221718483286	480280100.6975574
0.8614374773912907	399867038.0261106
0.8616528367606385	319433872.08901775
0.8618682499698288	238980597.86038977
0.8620837170323213	158507210.31321788
0.8622992379615795	91027453.92770909
0.8625148127710699	87930888.11169684
0.8627304414742627	84833548.15423034
0.8629461240846313	81735433.86177395
0.8631618606156526	78636545.0407442
0.8633776510808066	75536881.49750978
0.8635934954935769	134272173.422612
0.8638093938674504	198090935.8286069
0.8640253462159173	261925652.9252012
0.8642413525524714	325776328.7010682
0.8644574128906095	389642967.14586586
0.8646735272438323	374438045.17772996
0.8648896956256433	322451430.47903234
0.8651059180495498	270451819.126657
0.8653221945290621	218439207.8714934
0.8655385250776946	166413593.46344316
0.8657549097089641	143614637.40580082
0.8659713484363913	158243180.11437955
0.8661878412735006	172875379.95864224
0.866404388233819	187511237.85286397
0.8666209893308775	202150754.7115525
0.8668376445782103	213561384.20335865
0.8670543539893549	211781200.06941235
0.8672711175778525	210000570.88943133
0.8674879353572469	208219496.55215728
0.8677048073410862	206437976.94629824
0.8679217335429217	204656011.96053666
0.8681387139763074	200849025.037651
0.8683557486548015	196940510.56826586
0.8685728375919655	193031018.9702586
0.8687899808013633	189120549.99936032
0.8690071782965637	185209103.41121426
0.869224430091138	177834299.47263125
0.8694417361986609	169048813.996025
0.8696590966327107	160261132.14805153
0.869876511406869	151471253.3796156
0.8700939805347206	142679177.14149177
0.8703115040298544	136312784.55423212
0.870529081905862	132720571.47755748
0.8707467141763385	129127460.34761487
0.8709644008548827	125533450.93988997
0.8711821419550964	121938543.02981532
0.8713999374905854	120216349.01312487
0.871617787474958	124960211.67146656
0.8718356919218269	129705260.29547712
0.8720536508448075	134451495.18164402
0.8722716642575187	139198916.62652966
0.8724897321735832	143947524.92677864
0.8727078546066265	148063705.38588107
0.8729260315702784	152171275.5275541
0.873144263078171	156279872.56175816
0.8733625491439405	160389496.74522114
0.8735808897812266	164500148.3347316
0.8737992850036719	163208918.0605579
0.874017734824923	160003743.26330534
0.8742362392586293	156797767.17235473
0.874454798318444	153590989.58738157
0.8746734120180236	150383410.30801246
0.8748920803710283	148483806.91515994
0.875110803391121	147898925.5825526
0.8753295810919689	147313898.0296118
0.875548413487242	146728724.21978277
0.8757673005906139	146143404.11650124
0.8759862424157616	149493905.52309343
0.8762052389763657	164234153.2487901
0.8764242902861098	178978086.03640795
0.8766433963586814	193725704.8072267
0.8768625572077712	208477010.48274267
0.8770817728470732	223214007.33537534
0.8773010432902849	236549555.4695685
0.8775203685511077	249888437.49081427
0.8777397486432454	263230654.23254877
0.8779591835804065	276576206.52848494
0.8781786733763015	289925095.2124774
0.8783982180446457	269756957.30758005
0.878617817599157	239612095.67801338
0.8788374720535569	209459697.83305353
0.8790571814215703	179299761.88863993
0.8792769457169257	149132285.96023956
0.879496764953355	133148859.58796073
0.8797166391445934	129920610.1707458
0.8799365683043796	126691553.69117635
0.8801565524464557	123461689.94748706
0.8803765915845676	120231018.73785882
0.8805966857324639	121429029.92667174
0.880816834903897	133752891.75794509
0.881037039112623	146079834.55468112
0.8812572983724012	158409859.08711523
0.8814776126969944	170742966.12568784
0.8816979821001687	182550862.81109303
0.8819184065956938	181925590.50044638
0.8821388861973429	181300161.87172145
0.8823594209188923	180674576.8858399
0.882580010774122	180048835.5037122
0.8828006557768155	179422937.68623862
0.8830213559407598	197629240.5397279
0.8832421112797452	220576623.95293117
0.8834629218075651	243529744.2119739
0.8836837875380171	266488602.75108826
0.8839047084849018	289453201.0048411
0.884125684662023	282852654.5111643
0.8843467160831886	252553169.47116625
0.8845678027622095	222246109.55990818
0.8847889447129001	191931472.88366663
0.8850101419490785	161609257.54826152
0.8852313944845657	156886704.8705112
0.885452702333187	208214086.19903296
0.8856740655087704	259554299.37287933
0.8858954840251476	310907347.6000053
0.8861169578961539	362273234.0891644
0.886338487135628	406736255.41695446
0.886560071757412	359180270.8449675
0.8867817117753515	311612397.2768386
0.8870034072032955	264032631.7402963
0.8872251580550963	216440971.2624256
0.8874469643446101	168837412.86940613
0.8876688260856963	166700333.54982883
0.8878907432922178	173975053.53324202
0.8881127159780409	181251592.19664636
0.8883347441570356	188529949.99472535
0.8885568278430749	195810127.38224623
0.8887789670500358	195008342.8346603
0.8890011617917983	188471935.95585904
0.8892234120822464	181933894.97533518
0.8894457179352669	175394219.4845715
0.8896680793647509	168852909.0749299
0.8898904963845921	165320107.5837074
0.8901129690086883	167529857.34922224
0.8903354972509405	169740159.55217797
0.8905580811252535	171951014.33068612
0.8907807206455347	174162421.82288593
0.8910034158256963	175739335.49691072
0.8912261666796527	171641254.25504836
0.8914489732213227	167542148.49287438
0.8916718354646282	163442017.95425585
0.8918947534234944	159340862.38300663
0.8921177271118502	155238681.5228671
0.8923407565436284	158991442.6062608
0.8925638417327644	164026663.79115263
0.8927869826931977	169063143.78134236
0.8930101794388711	174100882.89152932
0.8932334319837308	179139881.436493
0.8934567403417267	190232347.82037592
0.8936801045268123	205088322.21243736
0.8939035245529441	219948010.59808677
0.8941270004340824	234811413.90583837
0.894350532184191	249678533.06441316
0.8945741198172371	260629187.66172358
0.8947977633471915	265081426.78236678
0.8950214627880284	269534778.96278995
0.8952452181537254	273989244.4812556
0.8954690294582639	278444823.61610353
0.8956928967156286	281520510.8596791
0.8959168199398075	275634731.4269883
0.8961407991447926	269747480.5494378
0.8963648343445789	263858757.85916808
0.896588925553165	257968562.98822913
0.8968130727845534	252076895.5685717
0.8970372760527496	270576059.3330906
0.8972615353717629	292131816.3475258
0.8974858507556059	313692962.30121696
0.8977102222182949	335259498.54139084
0.8979346497738496	356831426.41563666
0.8981591334362931	370269988.7870842
0.8983836732196523	379261015.15489924
0.8986082691379572	388254289.2793003
0.8988329212052417	397249811.72223246
0.8990576294355432	406247583.04578316
0.8992823938429022	396488386.6668727
0.8995072144413631	358834178.5251297
0.8997320912449734	321170556.83136475
0.8999570242677847	283497519.2321852
0.9001820135238516	245815063.37360314
0.9004070590272328	214715360.26595485
0.9006321607919896	218166304.01848036
0.9008573188321878	221618110.5069475
0.9010825331618959	225070779.9470351
0.9013078037951865	228524312.55448326
0.9015331307461353	231978708.5450815
0.9017585140288219	242257818.77026758
0.9019839536573292	253127254.71565402
0.9022094496457435	263999408.0200189
0.9024350020081551	274874279.3627222
0.9026606107586572	285751869.4232577
0.902886275911347	298060704.94495624
0.9031119974803249	311061266.672828
0.9033377754796951	324065078.541132
0.903563609923565	337072141.36239713
0.903789500826046	350082455.9493764
0.9040154482012526	355058343.8149961
0.904241452063303	349623363.9270014
0.9044675124263188	344187025.294036
0.9046936293044254	338749327.5764131
0.9049198027117517	333310270.4343581
0.9051460326624297	327838382.4733821
0.9053723191705955	322231115.4684696
0.9055986622503881	316622446.64681125
0.9058250619159507	311012375.6579472
0.9060515181814298	305400902.15133244
0.9062780310609752	299788025.7763449
0.9065046005687405	307054678.2789976
0.906731226718883	315041736.5637551
0.9069579095255627	323030791.61307335
0.907184649002944	331021843.9261545
0.907411445165195	339014894.0023221
0.9076382980264862	326404428.2510774
0.907865207600993	305233378.04504967
0.9080921739028933	284057035.0764766
0.9083191969463691	262875398.02216482
0.9085462767456058	241688465.55857915
0.9087734133147922	251571314.50110984
0.9090006066681211	297348734.58960694
0.909227856819788	343137599.03306586
0.9094551637839932	388937910.69269866
0.9096825275749393	434749672.4302319
0.9099099482068329	463931669.024374
0.9101374256938848	433977783.49551034
0.9103649600503083	404016409.4952785
0.9105925512903209	374047545.15155244
0.9108201994281437	344071188.59170914
0.9110479044780008	314087337.94276005
0.9112756664541204	319349161.9603239
0.911503485370734	325419240.2946195
0.9117313612420768	331490836.1484987
0.9119592940823873	337563949.9013395
0.912187283905908	343638581.9326204
0.9124153307268845	341282642.0994795
0.9126434345595664	335865757.2906607
0.9128715954182063	330447518.2606447
0.9130998133170609	325027924.6708685
0.9133280882703902	319606976.1826952
0.913556420292458	316381228.9705109
0.9137848093975312	315420016.486527
0.9140132555998806	314458563.6994223
0.9142417589137806	313496870.5491207
