#wavelength	surface flux
0.8	744907.3920110523
0.8002000000000001	748647.0179259813
0.8004000500000003	752765.8390584969
0.8006001500125003	756889.5106978709
0.8008003000500035	761014.213255155
0.8010005001250161	765139.9469880804
0.8012007502500472	769266.712154433
0.8014010504376099	772672.7100086538
0.8016014007002193	775837.7787479557
0.8018018010503944	779003.6387544425
0.8020022515006572	782170.2902259323
0.8022027520635323	785337.7333602872
0.8024033027515483	788533.3793829916
0.8026039035772362	791756.6860559267
0.8028045545531306	794980.7985555303
0.8030052556917691	798205.7170832603
0.803206007005692	801431.4418406194
0.8034068085074435	804776.5494217953
0.8036076602095705	808454.8803017248
0.8038085621246229	812134.1307643714
0.8040095142651542	815814.3010396359
0.8042105166437206	819495.391357468
0.8044115692728815	823162.987099008
0.8046126721651998	826211.4916924253
0.8048138253332411	829260.7584119886
0.8050150287895745	832310.7874482345
0.805216282546772	835361.5789917387
0.8054175866174087	838413.1332331272
0.8056189410140631	841430.7936605299
0.8058203457493168	844439.3984084411
0.8060218008357541	847448.7553075354
0.8062233062859632	850458.8645458559
0.8064248621125346	853469.726311484
0.806626468328063	856819.244842697
0.8068281249451449	860459.8194549368
0.8070298319763813	864101.3042108339
0.8072315894343755	867743.6993379174
0.8074333973317341	871387.005063784
0.8076352556810671	874341.9011066257
0.8078371644949874	875638.2263034268
0.8080391237861113	876934.8755815274
0.8082411335670578	878231.8490219467
0.8084431938504498	879529.1467057274
0.8086453046489125	880794.304614091
0.8088474659750746	881455.3554351844
0.8090496778415686	882116.5715189839
0.809251940261029	882777.952906804
0.8094542532460944	883439.4996399716
0.8096566168094059	884101.2117598217
0.8098590309636085	885267.0252717412
0.8100614957213493	886551.0805642004
0.8102640110952797	887835.456870483
0.8104665770980536	889120.1542708426
0.8106691937423283	890405.1728455527
0.8108718610407639	892108.5733770446
0.8110745790060241	894132.0688351159
0.8112773476507757	896156.0701670535
0.8114801669876885	898180.5774993236
0.8116830370294355	900205.5909584255
0.8118859577886929	901883.899641116
0.8120889292781401	902841.4554093397
0.8122919515104597	903799.2505665054
0.8124950244983374	904757.2851724604
0.8126981482544621	905715.5592870668
0.8129013227915257	906754.2432211896
0.8131045481222237	908711.1484569093
0.8133078242592543	910668.5429189382
0.8135111512153191	912626.426729582
0.813714529003123	914584.8000111788
0.8139179576353739	916543.6628860964
0.8141214371247829	925438.5559812466
0.8143249674840641	935680.5907580344
0.814528548725935	945925.1860435102
0.8147321808631167	956172.3424778212
0.8149358639083326	966422.0607012375
0.8151395978743097	973022.4404156731
0.8153433827737784	977157.0927304232
0.8155472186194719	981292.7787082505
0.8157511054241268	985429.4986075714
0.815955043200483	989567.25268687
0.8161590319612831	993127.9572723617
0.8163630717192736	995630.2836935438
0.8165671624872033	998133.2356963283
0.8167713042778252	1000636.8134371161
0.8169754971038948	1003141.0170723404
0.8171797409781707	1005345.5707289557
0.8173840359134155	1005153.4789820926
0.8175883819223938	1004961.339212293
0.8177927790178745	1004769.1514075509
0.8179972272126291	1004576.9155558576
0.8182017265194322	1004384.6316452015
0.8184062769510622	1009039.2790473588
0.8186108785203001	1014440.9684996398
0.8188155312399301	1019844.0083742765
0.8190202351227402	1025248.3990088879
0.819224990181521	1030654.1407411546
0.8194297964290664	1035029.9080402062
0.8196346538781738	1038785.1394431262
0.8198395625416434	1042541.3096538952
0.8200445224322789	1046298.4189072187
0.820249533562887	1050056.4674378543
0.8204545959462778	1053667.0589444889
0.8206597095952644	1057039.7128802708
0.8208648745226633	1060413.2099795393
0.8210700907412941	1063787.5504530822
0.8212753582639793	1067162.7345117398
0.8214806771035456	1069382.4945914827
0.8216860472728215	1064478.7913842676
0.8218914687846397	1059573.8622512505
0.822096941651836	1054667.7068859476
0.822302465887249	1049760.324981806
0.8225080415037209	1044851.7162321861
0.8227136685140968	1049121.8670104602
0.8229193469312254	1054435.2056754068
0.8231250767679583	1059749.8726750216
0.8233308580371503	1065065.8683413835
0.8235366907516598	1070383.193006666
0.8237425749243477	1076441.8859107206
0.8239485105680789	1082894.3271184927
0.824154497695721	1089348.3814365624
0.824360536320145	1095804.049268213
0.8245666264542252	1102261.3310168213
0.8247727681108388	1107879.0701382214
0.8249789613028664	1112293.5186289034
0.8251852060431922	1116709.070731712
0.825391502344703	1121125.7267225443
0.8255978502202894	1125543.4868773783
0.8258042496828445	1129685.7298938679
0.8260107007452654	1132485.5762949404
0.8262172034204517	1135286.12265761
0.8264237577213068	1138087.3691568712
0.8266303636607373	1140889.3159677584
0.8268370212516525	1143691.963265347
0.8270437305069654	1143035.5989844939
0.8272504914395923	1142108.7165861712
0.8274573040624523	1141181.6024672487
0.8276641683884679	1140254.2565697974
0.8278710844305652	1139326.6788358705
0.8280780522016729	1141451.830494089
0.8282850717147234	1144973.0163907332
0.8284921429826521	1148495.0825838477
0.8286992660183978	1152018.0292935134
0.8289064408349024	1155541.8567398542
0.8291136674451112	1157688.8735090543
0.8293209458619727	1158099.226917203
0.8295282760984382	1158509.6829137031
0.829735658167463	1158920.241524203
0.8299430920820048	1159330.9027743547
0.8301505778550254	1159856.201401088
0.8303581154994891	1160838.7729252432
0.8305657050283641	1161821.5900922804
0.8307733464546212	1162804.6529636087
0.8309810397912352	1163787.9616006564
0.8311887850511829	1164771.5160648616
0.8313965822474458	1172470.6289661934
0.8316044313930077	1180483.3598234411
0.8318123325008561	1188498.0938634104
0.8320202855839813	1196514.8315868857
0.8322282906553774	1204533.573494793
0.8324363477280413	1207924.1648629135
0.8326444568149735	1209451.5197197443
0.8328526179291771	1210979.2564152877
0.8330608310836596	1212507.3750450073
0.8332690962914304	1214035.8757043825
0.8334774135655034	1215149.1448866639
0.833685782918895	1215798.4383440707
0.8338942043646247	1216447.894124841
0.834102677915716	1217097.5122695575
0.834311203585195	1217747.2928188094
0.8345197813860912	1219891.0792281867
0.8347284113314379	1227063.8182173423
0.8349370934342709	1234238.3503912413
0.8351458277076294	1241414.676198175
0.8353546141645565	1248592.796086572
0.8355634528180977	1255772.7105049386
0.8357723436813022	1249243.122086003
0.8359812867672226	1242542.601678489
0.8361902820889144	1235840.4061408767
0.8363993296594368	1229136.535054378
0.8366084294918518	1222430.9880001054
0.8368175815992247	1225685.3040590538
0.8370267859946247	1232371.290217305
0.8372360426911234	1239058.9478720936
0.8374453517017962	1245748.2774412956
0.8376547130397217	1252439.2793428886
0.8378641267179816	1256964.1265320918
0.8380735927496613	1259339.0565613233
0.8382831111478488	1261714.580323061
0.8384926819256358	1264090.697965738
0.8387023050961173	1266467.4096378274
0.8389119806723914	1268774.0693178808
0.8391217086675596	1270882.4842562485
0.8393314890947265	1272991.426298349
0.8395413219670003	1275100.8955759602
0.8397512072974922	1277210.8922208925
0.8399611450993165	1279442.083755459
0.8401711353855914	1287666.1325747657
0.8403811781694378	1295892.237406275
0.8405912734639802	1304120.3987639942
0.8408014212823464	1312350.6171620567
0.8410116216376671	1320582.893114718
0.8412218745430766	1327522.8959670914
0.8414321800117124	1334088.033396431
0.8416425380567154	1340654.8121101314
0.8418529486912297	1347223.2325185116
0.8420634119284025	1353793.2950319883
0.8422739277813847	1358009.5448525997
0.8424844962633302	1360151.601296534
0.842695117387396	1362294.1932545765
0.8429057911667428	1364437.3208606085
0.8431165176145345	1366580.9842485432
0.8433272967439382	1368759.3441277754
0.8435381285681244	1371021.5757132347
0.8437490131002665	1373284.37285659
0.8439599503535415	1375547.7356992299
0.84417094034113	1377811.6643825818
0.8443819830762154	1380145.070322198
0.8445930785719846	1383867.2831209695
0.8448042268416277	1387590.4264729389
0.8450154278983382	1391314.5006107457
0.8452266817553128	1395039.5057670865
0.8454379884257517	1398765.442174717
0.8456493479228583	1402836.3415558445
0.845860760259839	1406991.105579185
0.846072225449904	1411146.9082935313
0.8462837435062666	1415303.7499585568
0.8464953144421433	1419461.6308340013
0.8467069382707537	1422675.176188212
0.8469186150053215	1425152.6341570832
0.847130344659073	1427630.7114904474
0.8473421272452377	1430109.4083431426
0.8475539627770492	1432588.7248700534
0.8477658512677435	1435399.3480740536
0.8479777927305605	1438912.84390996
0.8481897871787432	1442427.2181198245
0.848401834625538	1445942.4709232436
0.8486139350841944	1449458.602539861
0.8488260885679657	1452870.406727606
0.8490382950901076	1455000.634445738
0.8492505546638802	1457131.3947208005
0.8494628673025462	1459262.687685931
0.8496752330193721	1461394.513474306
0.8498876518276269	1463526.8722191253
0.8501001237405839	1460234.8851144419
0.8503126487715191	1455859.1739004464
0.850525226933712	1451482.3687586498
0.8507378582404455	1447104.4694155678
0.8509505427050057	1442725.4755976475
0.8511632803406821	1440319.3276770157
0.8513760711607672	1439264.3661000882
0.8515889151785576	1438209.1407827646
0.8518018124073523	1437153.651659113
0.8520147628604541	1436097.8986631806
0.8522277665511693	1438838.5560184615
0.8524408234928071	1448601.3887058327
0.8526539336986805	1458366.6621013784
0.8528670971821053	1468134.3768152734
0.8530803139564007	1477904.5334578357
0.8532935840348901	1487565.1171551144
0.8535069074308987	1496282.0879920088
0.8537202841577566	1505001.2380716195
0.8539337142287962	1513722.5679387513
0.8541471976573534	1522446.0781383445
0.8543607344567677	1531171.769215489
0.8545743246403821	1536362.021865248
0.8547879682215422	1540991.7576129881
0.8550016652135977	1545622.6507946646
0.8552154156299011	1550254.7016996369
0.8554292194838088	1554887.9106173385
0.8556430767886797	1558690.2815001886
0.855856987557877	1561988.4367742145
0.8560709518047664	1565287.4165870566
0.8562849695427177	1568587.2211448532
0.8564990407851035	1571887.8506537902
0.8567131655452999	1575144.991432507
0.8569273438366862	1578330.336712711
0.8571415756726455	1581516.4783292357
0.8573558610665638	1584703.4164811657
0.8575702000318304	1587891.1513676303
0.8577845925818384	1591137.3324960244
0.857999038729984	1594744.423986945
0.8582135384896665	1598352.4172507375
0.858428091874289	1601961.3125128462
0.8586426988972576	1605571.1099987696
0.8588573595719821	1609181.8099340654
0.8590720739118751	1612129.3452094204
0.8592868419303532	1614999.321845581
0.8595016636408359	1617870.0159759007
0.8597165390567462	1620741.427779752
0.8599314681915105	1623613.557436555
0.8601464510585584	1626219.422342761
0.860361487671323	1628684.2261176873
0.8605765780432408	1631149.6460935567
0.8607917221877518	1633615.6824244221
0.8610069201182988	1636082.3352643696
0.8612221718483286	1636078.9625309939
0.8614374773912907	1632513.8238181917
0.8616528367606385	1628947.793820712
0.8618682499698288	1625380.8723157307
0.8620837170323213	1621813.059080374
0.8622992379615795	1619266.2530454905
0.8625148127710699	1621775.7977126164
0.8627304414742627	1624285.9697659092
0.8629461240846313	1626796.7693622157
0.8631618606156526	1629308.1966584215
0.8633776510808066	1631820.251811451
0.8635934954935769	1640425.3321440653
0.8638093938674504	1649531.9685613702
0.8640253462159173	1658640.881637779
0.8642413525524714	1667752.071942457
0.8644574128906095	1676865.5400447089
0.8646735272438323	1679979.5030668033
0.8648896956256433	1680303.2489751873
0.8651059180495498	1680627.0758200483
0.8653221945290621	1680950.9836216203
0.8655385250776946	1681274.9724001433
0.8657549097089641	1684153.5796556415
0.8659713484363913	1690303.2760892205
0.8661878412735006	1696454.5099469107
0.866404388233819	1702607.2816130645
0.8666209893308775	1708761.591472132
0.8668376445782103	1714237.6341987296
0.8670543539893549	1716940.413736869
0.8672711175778525	1719643.868969895
0.8674879353572469	1722348.000066726
0.8677048073410862	1725052.8071963324
0.8679217335429217	1727758.2905277228
0.8681387139763074	1730857.416364344
0.8683557486548015	1733976.8385388127
0.8685728375919655	1737097.0405688288
0.8687899808013633	1740218.0226493455
0.8690071782965637	1743339.7849753865
0.869224430091138	1747212.814324279
0.8694417361986609	1751392.1839721096
0.8696590966327107	1755572.5984623511
0.869876511406869	1759754.0580562153
0.8700939805347206	1763936.5630149762
0.8703115040298544	1768138.127123853
0.870529081905862	1772361.3362926675
0.8707467141763385	1776585.601263773
0.8709644008548827	1780810.9223011208
0.8711821419550964	1785037.2996687256
0.8713999374905854	1789141.3992708651
0.871617787474958	1792820.8552299596
0.8718356919218269	1796501.2310530473
0.8720536508448075	1800182.526970091
0.8722716642575187	1803864.7432111118
0.8724897321735832	1807547.8800061943
0.8727078546066265	1810739.2757534739
0.8729260315702784	1813923.9743471078
0.873144263078171	1817109.469115387
0.8733625491439405	1820295.7602573582
0.8735808897812266	1823482.8479721164
0.8737992850036719	1825144.0431494354
0.874017734824923	1826264.9253751761
0.8742362392586293	1827386.0878214727
0.874454798318444	1828507.5305583808
0.8746734120180236	1829629.2536559731
0.8748920803710283	1831393.3844707874
0.875110803391121	1833803.2330549746
0.8753295810919689	1836213.6841013094
0.875548413487242	1838624.7377604058
0.8757673005906139	1841036.394182917
0.8759862424157616	1844265.6688467849
0.8762052389763657	1849859.823235894
0.8764242902861098	1855455.3761635965
0.8766433963586814	1861052.3279795323
0.8768625572077712	1866650.679033424
0.8770817728470732	1872211.3047810919
0.8773010432902849	1874718.5476840364
0.8775203685511077	1877226.41739771
0.8777397486432454	1879734.9140788093
0.8779591835804065	1882244.0378840815
0.8781786733763015	1884753.7889703019
0.8783982180446457	1885123.1626360647
0.878617817599157	1884855.7197183676
0.8788374720535569	1884588.2099399408
0.8790571814215703	1884320.6332840698
0.8792769457169257	1884052.9897340348
0.879496764953355	1882582.3159120046
0.8797166391445934	1880029.7313478305
0.8799365683043796	1877476.5086375154
0.8801565524464557	1874922.6476215224
0.8803765915845676	1872368.1481402733
0.8805966857324639	1873126.354954271
0.880816834903897	1882206.8804591782
0.881037039112623	1891289.676095465
0.8812572983724012	1900374.7424306602
0.8814776126969944	1909462.0800324432
0.8816979821001687	1918248.2437246172
0.8819184065956938	1919893.4400681455
0.8821388861973429	1921539.0477107614
0.8823594209188923	1923185.0667552864
0.882580010774122	1924831.4973045718
0.8828006557768155	1926478.3394614954
0.8830213559407598	1929177.074894667
0.8832421112797452	1932140.9432987652
0.8834629218075651	1935105.5526699629
0.8836837875380171	1938070.903193504
0.8839047084849018	1941036.9950546767
0.884125684662023	1943026.7719970243
0.8843467160831886	1944234.060429982
0.8845678027622095	1945441.6506850477
0.8847889447129001	1946649.5428376775
0.8850101419490785	1947857.7369633452
0.8852313944845657	1950314.8346252528
0.885452702333187	1955505.582076368
0.8856740655087704	1960697.627214345
0.8858954840251476	1965890.9703636053
0.8861169578961539	1971085.6118486505
0.886338487135628	1975581.2603316654
0.886560071757412	1970758.9666783058
0.8867817117753515	1965935.4674515328
0.8870034072032955	1961110.7623499513
0.8872251580550963	1956284.8510720998
0.8874469643446101	1951457.733316426
0.8876688260856963	1955965.1943625042
0.8878907432922178	1962405.9427449512
0.8881127159780409	1968848.30131449
0.8883347441570356	1975292.2704736788
0.8885568278430749	1981737.8506251506
0.8887789670500358	1987285.440943253
0.8890011617917983	1992196.2647568302
0.8892234120822464	1997108.3162763629
0.8894457179352669	2002021.5958087714
0.8896680793647509	2006936.103661067
0.8898904963845921	2009104.858264496
0.8901129690086883	2006032.8413289844
0.8903354972509405	2002960.0563892394
0.8905580811252535	1999886.5032532574
0.8907807206455347	1996812.1817289952
0.8910034158256963	1993336.29787769
0.8912261666796527	1986277.6658233
0.8914489732213227	1979217.269110894
0.8916718354646282	1972155.107299303
0.8918947534234944	1965091.1799472661
0.8921177271118502	1958025.4866133954
0.8923407565436284	1948039.8502344387
0.8925638417327644	1937575.6834904319
0.8927869826931977	1927108.9007047354
0.8930101794388711	1916639.5012233432
0.8932334319837308	1906167.4843920823
0.8934567403417267	1896747.7911086956
0.8936801045268123	1887981.2648941064
0.8939035245529441	1879212.54704797
0.8941270004340824	1870441.6370223681
0.894350532184191	1861668.5342692623
0.8945741198172371	1867968.4601204493
0.8947977633471915	1899270.4182124946
0.8950214627880284	1930580.2017940616
0.8952452181537254	1961897.8128215054
0.8954690294582639	1993223.2532517249
0.8956928967156286	2020767.302602276
0.8959168199398075	2023727.534159503
0.8961407991447926	2026688.5057746198
0.8963648343445789	2029650.2176326402
0.896588925553165	2032612.6699186235
0.8968130727845534	2035575.8628176788
0.8970372760527496	2034783.6891466875
0.8972615353717629	2033521.3527594446
0.8974858507556059	2032258.700788105
0.8977102222182949	2030995.7331537725
0.8979346497738496	2029732.449777531
0.8981591334362931	2045459.6520567108
0.8983836732196523	2070482.6559498517
0.8986082691379572	2095511.9155939494
0.8988329212052417	2120547.4325529584
0.8990576294355432	2145589.208391228
0.8992823938429022	2162903.52186775
0.8995072144413631	2168723.10091619
0.8997320912449734	2174544.13485939
0.8999570242677847	2180366.624061074
0.9001820135238516	2186190.5688850596
0.9004070590272328	2191514.9755870514
0.9006321607919896	2194214.3313547503
0.9008573188321878	2196914.361961394
0.9010825331618959	2199615.0675756885
0.9013078037951865	2202316.4483663864
0.9015331307461353	2205018.5045022806
0.9017585140288219	2209268.0491093127
0.9019839536573292	2213651.887111827
0.9022094496457435	2218036.821073838
0.9024350020081551	2222422.851269345
0.9026606107586572	2226809.977972399
0.902886275911347	2236721.89001817
0.9031119974803249	2249299.0824126652
0.9033377754796951	2261879.41910526
0.903563609923565	2274462.900882022
0.903789500826046	2287049.5285292366
0.9040154482012526	2295708.147399357
0.904241452063303	2299276.4623071137
0.9044675124263188	2302845.6692935964
0.9046936293044254	2306415.7685818253
0.9049198027117517	2309986.760394878
0.9051460326624297	2313716.234514325
0.9053723191705955	2318117.69400315
0.9055986622503881	2322520.253856843
0.9058250619159507	2326923.9143504994
0.9060515181814298	2331328.675759282
0.9062780310609752	2335734.5383584136
0.9065046005687405	2324677.2973287306
0.906731226718883	2312754.5897067566
0.9069579095255627	2300828.901407893
0.907184649002944	2288900.2316869535
0.907411445165195	2276968.5797985713
0.9076382980264862	2286186.944171304
0.907865207600993	2304192.414514928
0.9080921739028933	2322202.386226133
0.9083191969463691	2340216.860430263
0.9085462767456058	2358235.838252953
0.9087734133147922	2369541.0005350485
0.9090006066681211	2373089.2459033434
0.909227856819788	2376638.378332976
0.9094551637839932	2380188.39804572
0.9096825275749393	2383739.305263392
0.9099099482068329	2388089.737750411
0.9101374256938848	2395279.629519841
0.9103649600503083	2402471.3187622107
0.9105925512903209	2409664.805926889
0.9108201994281437	2416860.0914633665
0.9110479044780008	2424057.1758212196
0.9112756664541204	2430672.4536277074
0.911503485370734	2437276.0266192565
0.9117313612420768	2443881.250504053
0.9119592940823873	2450488.1256948193
0.912187283905908	2457096.6526043853
0.9124153307268845	2448723.013372908
0.9126434345595664	2434909.0305262944
0.9128715954182063	2421091.5941839823
0.9130998133170609	2407270.703482578
0.9133280882703902	2393446.3575584986
0.913556420292458	2391710.3003580077
0.9137848093975312	2402444.20410526
