#wavelength	surface flux
0.8	132858555.91043694
0.8002000000000001	134508959.39681393
0.8004000500000003	133290846.12677003
0.8006001500125003	132043449.3171555
0.8008003000500035	130795740.65833847
0.8010005001250161	129547720.07235615
0.8012007502500472	128299387.48122914
0.8014010504376099	128777491.52560993
0.8016014007002193	129834123.16264342
0.8018018010503944	130891018.95758617
0.8020022515006572	131948178.97647814
0.8022027520635323	133005603.28537391
0.8024033027515483	133834139.95148751
0.8026039035772362	134438323.72361094
0.8028045545531306	135042658.54167742
0.8030052556917691	135647144.4434487
0.803206007005692	136251781.46669486
0.8034068085074435	136728628.31249428
0.8036076602095705	136846956.036209
0.8038085621246229	136965313.3418545
0.8040095142651542	137083700.23682654
0.8042105166437206	137202116.72852224
0.8044115692728815	137294608.0897754
0.8046126721651998	136270763.71122658
0.8048138253332411	135246663.3715839
0.8050150287895745	134222307.0068554
0.805216282546772	133197694.55303597
0.8054175866174087	132172825.94610363
0.8056189410140631	131328829.64830859
0.8058203457493168	130535893.47210065
0.8060218008357541	129742759.06184967
0.8062233062859632	128949426.36799572
0.8064248621125346	128155895.34096886
0.806626468328063	127631496.52372581
0.8068281249451449	127338289.00371984
0.8070298319763813	127045008.18183352
0.8072315894343755	126751654.03974195
0.8074333973317341	126458226.55911475
0.8076352556810671	126443396.08748849
0.8078371644949874	127099368.01170021
0.8080391237861113	127755503.92889313
0.8082411335670578	128411803.88006495
0.8084431938504498	129068267.90622525
0.8086453046489125	129719006.00621624
0.8088474659750746	130260244.75794394
0.8090496778415686	130801618.81936029
0.809251940261029	131343128.22429161
0.8094542532460944	131884773.00657463
0.8096566168094059	132426553.20005259
0.8098590309636085	132113645.38812162
0.8100614957213493	131600580.94078314
0.8102640110952797	131087388.22733276
0.8104665770980536	130574067.21570382
0.8106691937423283	130060617.87382177
0.8108718610407639	129647715.96854722
0.8110745790060241	129311692.3371434
0.8112773476507757	128975584.69983146
0.8114801669876885	128639393.03561026
0.8116830370294355	128303117.3234732
0.8118859577886929	128284328.33157727
0.8120889292781401	128925143.05822463
0.8122919515104597	129566117.98855361
0.8124950244983374	130207253.16261522
0.8126981482544621	130848548.62047024
0.8129013227915257	131509023.86976796
0.8131045481222237	132387440.0494345
0.8133078242592543	133266075.83314604
0.8135111512153191	134144931.27580328
0.813714529003123	135024006.43232128
0.8139179576353739	135903301.35762858
0.8141214371247829	135727762.46691427
0.8143249674840641	135347587.0449166
0.814528548725935	134967316.57906368
0.8147321808631167	134586951.04559377
0.8149358639083326	134206490.4207406
0.8151395978743097	133326623.30211194
0.8153433827737784	132109180.500009
0.8155472186194719	130891433.33720595
0.8157511054241268	129673381.73761244
0.815955043200483	128455025.6251182
0.8161590319612831	127199283.48558813
0.8163630717192736	125875280.19541389
0.8165671624872033	124550945.90441857
0.8167713042778252	123226280.5298492
0.8169754971038948	121901283.98893553
0.8171797409781707	120467849.35967247
0.8173840359134155	118171005.9925915
0.8175883819223938	115873588.4146714
0.8177927790178745	113575596.48235552
0.8179972272126291	111277030.05205594
0.8182017265194322	108977888.98015112
0.8184062769510622	108557941.85388911
0.8186108785203001	108427158.32655907
0.8188155312399301	108296342.10334736
0.8190202351227402	108165493.17607972
0.819224990181521	108034611.53658032
0.8194297964290664	109440482.71052235
0.8196346538781738	111773000.10682614
0.8198395625416434	114106100.63247807
0.8200445224322789	116439784.43326241
0.820249533562887	118774051.65499623
0.8204545959462778	120828085.561486
0.8206597095952644	122430665.78585246
0.8208648745226633	124033646.65527625
0.8210700907412941	125637028.26991715
0.8212753582639793	127240810.72996007
0.8214806771035456	128799354.48853756
0.8216860472728215	130077092.05217524
0.8218914687846397	131355149.05020387
0.822096941651836	132633525.56248267
0.822302465887249	133912221.6688888
0.8225080415037209	135191237.44932222
0.8227136685140968	136517526.22409248
0.8229193469312254	137849476.74515995
0.8231250767679583	139181760.25385815
0.8233308580371503	140514376.83343276
0.8235366907516598	141847326.56715328
0.8237425749243477	142645084.69017965
0.8239485105680789	143159204.66901875
0.824154497695721	143673453.1778522
0.824360536320145	144187830.248813
0.8245666264542252	144702335.91404152
0.8247727681108388	145081961.11028513
0.8249789613028664	145268322.77777892
0.8251852060431922	145454731.0356898
0.825391502344703	145641185.89566505
0.8255978502202894	145827687.36935544
0.8258042496828445	146073497.30020663
0.8260107007452654	146607177.9430924
0.8262172034204517	147140992.00613835
0.8264237577213068	147674939.52270022
0.8266303636607373	148209020.52614143
0.8268370212516525	148743235.04983327
0.8270437305069654	148916690.74466407
0.8272504914395923	149061988.40921944
0.8274573040624523	149207322.39819098
0.8276641683884679	149352692.72065964
0.8278710844305652	149498099.38570908
0.8280780522016729	150164530.0624322
0.8282850717147234	151069269.84143052
0.8284921429826521	151974235.80537266
0.8286992660183978	152879428.01080647
0.8289064408349024	153784846.51429102
0.8291136674451112	154840893.72612768
0.8293209458619727	156086854.78125238
0.8295282760984382	157333127.3266392
0.829735658167463	158579711.44016382
0.8299430920820048	159826607.19971523
0.8301505778550254	160849011.9827015
0.8303581154994891	160974418.9584318
0.8305657050283641	161099857.28590617
0.8307733464546212	161225326.9729623
0.8309810397912352	161350828.0274404
0.8311887850511829	161476360.45718187
0.8313965822474458	162585094.84464324
0.8316044313930077	163739740.56279424
0.8318123325008561	164894674.94237587
0.8320202855839813	166049898.0555518
0.8322282906553774	167205409.97450614
0.8324363477280413	168378317.9223639
0.8326444568149735	169558406.37581912
0.8328526179291771	170738789.85138634
0.8330608310836596	171919468.4228242
0.8332690962914304	173100442.1639034
0.8334774135655034	173584830.24966857
0.833685782918895	173290900.58349293
0.8338942043646247	172996897.43490094
0.834102677915716	172702820.7855216
0.834311203585195	172408670.61698014
0.8345197813860912	172599073.57057187
0.8347284113314379	174420822.78173563
0.8349370934342709	176243027.43020117
0.8351458277076294	178065687.6298266
0.8353546141645565	179888803.494505
0.8355634528180977	181712375.13814875
0.8357723436813022	179753180.25656655
0.8359812867672226	177746782.41909638
0.8361902820889144	175739882.98216784
0.8363993296594368	173732481.8203795
0.8366084294918518	171724578.8083
0.8368175815992247	169993544.73044842
0.8370267859946247	168357607.28439176
0.8372360426911234	166721260.85397404
0.8374453517017962	165084505.3369489
0.8376547130397217	163447340.63104472
0.8378641267179816	163383967.94508272
0.8380735927496613	164882596.33156347
0.8382831111478488	166381599.37513992
0.8384926819256358	167880977.1694765
0.8387023050961173	169380729.80826294
0.8389119806723914	170292603.6949316
0.8391217086675596	169549167.4477002
0.8393314890947265	168805545.34140754
0.8395413219670003	168061737.32958826
0.8397512072974922	167317743.36576548
0.8399611450993165	166576339.08926702
0.8401711353855914	165972589.02726805
0.8403811781694378	165368688.02775374
0.8405912734639802	164764636.0529894
0.8408014212823464	164160433.06523108
0.8410116216376671	163556079.02672592
0.8412218745430766	162906480.6371465
0.8414321800117124	162243599.44865283
0.8416425380567154	161580552.53986168
0.8418529486912297	160917339.8693432
0.8420634119284025	160253961.39565763
0.8422739277813847	161990962.09765047
0.8424844962633302	165843370.3628052
0.842695117387396	169696741.73002127
0.8429057911667428	173551076.44007933
0.8431165176145345	177406374.73381674
0.8433272967439382	179770024.81131133
0.8435381285681244	178493371.13223034
0.8437490131002665	177216398.28972986
0.8439599503535415	175939106.20401958
0.84417094034113	174661494.7952869
0.8443819830762154	173283565.06287488
0.8445930785719846	169890804.03931555
0.8448042268416277	166497194.8255022
0.8450154278983382	163102737.20938578
0.8452266817553128	159707430.97886562
0.8454379884257517	156311275.92178744
0.8456493479228583	156703439.76138604
0.845860760259839	158008178.82071435
0.846072225449904	159313244.06480753
0.8462837435062666	160618635.575212
0.8464953144421433	161924353.4334948
0.8467069382707537	162955587.68396908
0.8469186150053215	163772873.75886038
0.847130344659073	164590364.1552706
0.8473421272452377	165408058.92427912
0.8475539627770492	166225958.11698076
0.8477658512677435	166695432.50514647
0.8479777927305605	166424755.8954775
0.8481897871787432	166154011.61665615
0.848401834625538	165883199.65176496
0.8486139350841944	165612319.98388273
0.8488260885679657	165270263.59564328
0.8490382950901076	164061328.22175884
0.8492505546638802	162852090.6140303
0.8494628673025462	161642550.69690025
0.8496752330193721	160432708.39478916
0.8498876518276269	159222563.63210416
0.8501001237405839	159799192.98320717
0.8503126487715191	160732698.3771223
0.850525226933712	161666437.14738542
0.8507378582404455	162600409.35234106
0.8509505427050057	163534615.05034852
0.8511632803406821	166002337.07057798
0.8513760711607672	169520693.9495034
0.8515889151785576	173039930.41765404
0.8518018124073523	176560046.69491875
0.8520147628604541	180081043.00125068
0.8522277665511693	183200623.99674246
0.8524408234928071	185576987.87769383
0.8526539336986805	187953945.8496161
0.8528670971821053	190331498.0610315
0.8530803139564007	192709644.66049692
0.8532935840348901	194788312.7142957
0.8535069074308987	194333229.9172781
0.8537202841577566	193878033.3495609
0.8539337142287962	193422722.9827017
0.8541471976573534	192967298.78825104
0.8543607344567677	192511760.73775172
0.8545743246403821	191706085.69465145
0.8547879682215422	190844621.5626621
0.8550016652135977	189982942.06463987
0.8552154156299011	189121047.14674306
0.8554292194838088	188258936.7551162
0.8556430767886797	186764913.08858898
0.855856987557877	184886965.728106
0.8560709518047664	183008548.88078403
0.8562849695427177	181129662.42924955
0.8564990407851035	179250306.25610167
0.8567131655452999	177999855.59738323
0.8569273438366862	177780344.84671858
0.8571415756726455	177560779.21836624
0.8573558610665638	177341158.6986067
0.8575702000318304	177121483.2737175
0.8577845925818384	177822532.12076107
0.857999038729984	184275282.27361706
0.8582135384896665	190729645.6140098
0.858428091874289	197185622.54523802
0.8586426988972576	203643213.4706973
0.8588573595719821	210102418.79389018
0.8590720739118751	207615969.62409317
0.8592868419303532	204073989.0578555
0.8595016636408359	200531122.9964762
0.8597165390567462	196987371.21858278
0.8599314681915105	193442733.502744
0.8601464510585584	190292313.96726066
0.860361487671323	187350825.45236146
0.8605765780432408	184408601.5653344
0.8607917221877518	181465642.12233317
0.8610069201182988	178521946.939472
0.8612221718483286	173567598.3204264
0.8614374773912907	165714443.01777154
0.8616528367606385	157859324.42629313
0.8618682499698288	150002242.05516192
0.8620837170323213	142143195.4134392
0.8622992379615795	135534250.86645564
0.8625148127710699	135119653.26558176
0.8627304414742627	134704952.01530764
0.8629461240846313	134290147.08972088
0.8631618606156526	133875238.46290267
0.8633776510808066	133460226.10892785
0.8635934954935769	139605800.96719208
0.8638093938674504	146290703.92349944
0.8640253462159173	152977278.10554567
0.8642413525524714	159665523.93113726
0.8644574128906095	166355441.81818387
0.8646735272438323	165292746.72155166
0.8648896956256433	160623828.34973064
0.8651059180495498	155953742.7483164
0.8653221945290621	151282489.62550628
0.8655385250776946	146610068.68940893
0.8657549097089641	144806410.36407936
0.8659713484363913	146676443.32423058
0.8661878412735006	148546943.79262272
0.866404388233819	150417911.8861317
0.8666209893308775	152289347.72166318
0.8668376445782103	153738978.60725218
0.8670543539893549	153465462.20466906
0.8672711175778525	153191877.42298508
0.8674879353572469	152918224.24510598
0.8677048073410862	152644502.6539323
0.8679217335429217	152370712.63236067
0.8681387139763074	150880185.2667261
0.8683557486548015	149328844.25820625
0.8685728375919655	147777115.41443235
0.8687899808013633	146224998.6384509
0.8690071782965637	144672493.8332734
0.869224430091138	143499221.9367954
0.8694417361986609	142480124.04154924
0.8696590966327107	141460771.37182945
0.869876511406869	140441163.86394218
0.8700939805347206	139421301.45417845
0.8703115040298544	138684828.92329535
0.870529081905862	138272460.3869212
0.8707467141763385	137859988.75841308
0.8709644008548827	137447414.01199785
0.8711821419550964	137034736.12189627
0.8713999374905854	136905567.85659665
0.871617787474958	137755213.45487377
0.8718356919218269	138605071.46455127
0.8720536508448075	139455141.93873125
0.8722716642575187	140305424.93052924
0.8724897321735832	141155920.49307558
0.8727078546066265	141740776.26666692
0.8729260315702784	142321733.76690388
0.873144263078171	142902836.50651526
0.8733625491439405	143484084.52181163
0.8735808897812266	144065477.84911206
0.8737992850036719	143890045.93703872
0.874017734824923	143446463.63151622
0.8742362392586293	143002770.4304175
0.874454798318444	142558966.30601853
0.8746734120180236	142115051.2305885
0.8748920803710283	141821881.08620772
0.875110803391121	141680233.46409237
0.8753295810919689	141538550.4300714
0.875548413487242	141396831.97529197
0.8757673005906139	141255078.0908988
0.8759862424157616	141541354.77661106
0.8762052389763657	143066332.2289073
0.8764242902861098	144591690.92556554
0.8766433963586814	146117430.9618984
0.8768625572077712	147643552.43324077
0.8770817728470732	149170768.18262845
0.8773010432902849	150754015.27618805
0.8775203685511077	152337658.1815233
0.8777397486432454	153921696.99758288
0.8779591835804065	155506131.82334843
0.8781786733763015	157090962.7578183
0.8783982180446457	155325324.46876803
0.878617817599157	152562424.9368205
0.8788374720535569	149798834.67999133
0.8790571814215703	147034553.52559862
0.8792769457169257	144269581.30091727
0.879496764953355	142681806.87806743
0.8797166391445934	142152635.12810996
0.8799365683043796	141623331.08521497
0.8801565524464557	141093894.71630925
0.8803765915845676	140564325.98831084
0.8805966857324639	140813304.93655667
0.880816834903897	143018157.02270177
0.881037039112623	145223560.32186925
0.8812572983724012	147429514.97186136
0.8814776126969944	149636021.1105169
0.8816979821001687	151715851.44845378
0.8819184065956938	150801246.69165596
0.8821388861973429	149886413.28366798
0.8823594209188923	148971351.1673289
0.882580010774122	148056060.28546116
0.8828006557768155	147140540.58087242
0.8830213559407598	148629012.50150985
0.8832421112797452	150722542.40173486
0.8834629218075651	152816595.68443364
0.8836837875380171	154911172.48045373
0.8839047084849018	157006272.9206732
0.884125684662023	156511146.38159215
0.8843467160831886	153939740.20816487
0.8845678027622095	151367691.18319422
0.8847889447129001	148794999.14596683
0.8850101419490785	146221663.93573064
0.8852313944845657	145954823.18729696
0.885452702333187	150737957.3912624
0.8856740655087704	155522287.37877816
0.8858954840251476	160307813.4487895
0.8861169578961539	165094535.90031615
0.886338487135628	169249308.3029432
0.886560071757412	164979578.28843892
0.8867817117753515	160708780.84143114
0.8870034072032955	156436915.69505966
0.8872251580550963	152163982.5824066
0.8874469643446101	147889981.23647276
0.8876688260856963	147610947.26448458
0.8878907432922178	148158874.3703759
0.8881127159780409	148706938.45804334
0.8883347441570356	149255139.56173337
0.8885568278430749	149803477.71569872
0.8887789670500358	149789530.76957914
0.8890011617917983	149376612.86180156
0.8892234120822464	148963591.72454682
0.8894457179352669	148550467.33200812
0.8896680793647509	148137239.65837094
0.8898904963845921	148137210.45582613
0.8901129690086883	148925771.91772413
0.8903354972509405	149714530.5199874
0.8905580811252535	150503486.31190187
0.8907807206455347	151292639.34276325
0.8910034158256963	152010873.46691933
0.8912261666796527	152093724.28483072
0.8914489732213227	152176595.81544665
0.8916718354646282	152259488.06394526
0.8918947534234944	152342401.03550595
0.8921177271118502	152425334.73530948
0.8923407565436284	153164534.2397811
0.8925638417327644	154010969.95939165
0.8927869826931977	154857617.28793237
0.8930101794388711	155704476.27830517
0.8932334319837308	156551546.98342544
0.8934567403417267	157745554.51589638
0.8936801045268123	159155309.36008513
0.8939035245529441	160565416.642984
0.8941270004340824	161975876.4527041
0.894350532184191	163386688.87737632
0.8945741198172371	164057432.0280151
0.8947977633471915	163500441.3356442
0.8950214627880284	162943311.3956002
0.8952452181537254	162386042.17307156
0.8954690294582639	161828633.6332369
0.8956928967156286	161252827.3549151
0.8959168199398075	160558386.7017531
0.8961407991447926	159863772.43842766
0.8963648343445789	159168984.52153638
0.896588925553165	158474022.90766627
0.8968130727845534	157778887.5533926
0.8970372760527496	160050692.98592433
0.8972615353717629	162694312.154807
0.8974858507556059	165338592.2284822
0.8977102222182949	167983533.37217507
0.8979346497738496	170629135.75115538
0.8981591334362931	172130670.61103812
0.8983836732196523	173006555.52509478
0.8986082691379572	173882659.41037935
0.8988329212052417	174758982.32163528
0.8990576294355432	175635524.31361973
0.8992823938429022	174687179.8365777
0.8995072144413631	171024898.17488128
0.8997320912449734	167361700.94277075
0.8999570242677847	163697587.91135305
0.9001820135238516	160032558.85167724
0.9004070590272328	156990936.65764123
0.9006321607919896	157221468.86441675
0.9008573188321878	157452058.70424417
0.9010825331618959	157682706.19153148
0.9013078037951865	157913411.3406906
0.9015331307461353	158144174.16613692
0.9017585140288219	158759169.83761668
0.9019839536573292	159407409.25992352
0.9022094496457435	160055810.74208543
0.9024350020081551	160704374.32461864
0.9026606107586572	161353100.04804727
0.902886275911347	162507212.90155855
0.9031119974803249	163905167.87544313
0.9033377754796951	165303472.3380712
0.903563609923565	166702126.3768143
0.903789500826046	168101130.07906803
0.9040154482012526	169228348.510947
0.904241452063303	170003321.58872873
0.9044675124263188	170778488.40977973
0.9046936293044254	171553849.0225359
0.9049198027117517	172329403.4754456
0.9051460326624297	172638224.98428088
0.9053723191705955	170958840.62093547
0.9055986622503881	169279036.4115008
0.9058250619159507	167598812.25101373
0.9060515181814298	165918168.0344855
0.9062780310609752	164237103.65690425
0.9065046005687405	164711790.36845177
0.906731226718883	165306882.17682675
0.9069579095255627	165902122.75815305
0.907184649002944	166497512.1496247
0.907411445165195	167093050.38844487
0.9076382980264862	165805858.73264554
0.907865207600993	163736389.20919412
0.9080921739028933	161666402.31836244
0.9083191969463691	159595897.93080837
0.9085462767456058	157524875.9171564
0.9087734133147922	158706822.16381443
0.9090006066681211	163646880.57302475
0.909227856819788	168588173.99683088
0.9094551637839932	173530702.74399978
0.9096825275749393	178474467.1233539
0.9099099482068329	181661269.07567903
0.9101374256938848	178600200.24170607
0.9103649600503083	175538366.14052603
0.9105925512903209	172475766.58082128
0.9108201994281437	169412401.3712234
0.9110479044780008	166348270.32032663
0.9112756664541204	166902771.88966158
0.911503485370734	167540259.48147228
0.9117313612420768	168177906.44518098
0.9119592940823873	168815712.82063037
0.912187283905908	169453678.64767385
0.9124153307268845	169402061.59014174
0.9126434345595664	169100095.4623698
0.9128715954182063	168798053.8430662
0.9130998133170609	168495936.7133576
0.9133280882703902	168193744.0543666
