#wavelength	surface flux
0.676892	855586.2398681984
0.678297	873666.6090873905
0.679702	887080.9548036152
0.681109	901121.4915570371
0.682517	923823.6656974037
0.683926	944812.3568200136
0.685337	962553.9293856656
0.686749	980400.5272169675
0.688164	997216.5305307783
0.689581	1012955.1803483588
0.691	1020668.0691893932
0.692422	1033287.1814892853
0.693847	1060782.1098413225
0.695274	1087981.639063137
0.696705	1109219.9969245116
0.698139	1127706.0809491314
0.699576	1146650.0913961986
0.701017	1165260.9151434375
0.702461	1181907.251316001
0.70391	1203278.9269844855
0.705362	1225125.4889437458
0.706819	1243636.4006800433
0.70828	1262451.782732559
0.709745	1281269.5523826645
0.711216	1302403.5522905677
0.71269	1321812.664798242
0.71417	1340111.726133455
0.715655	1352756.1751267752
0.717145	1361039.5745813034
0.71864	1386978.9042500388
0.72014	1406874.8274393182
0.721647	1423162.784637476
0.723158	1439698.562060447
0.724676	1453740.5440587383
0.726199	1468075.273748455
0.727728	1486579.7227156062
0.729264	1493988.5053456922
0.730805	1508474.1920249872
0.732353	1527838.994787516
0.733907	1537678.0016915745
0.735468	1546844.3540108432
0.737035	1552188.9865121057
0.738609	1560105.2793582778
0.74019	1560818.57299715
0.741777	1549890.4233534075
0.743372	1537531.9580682646
0.744973	1519685.1301866441
0.746582	1489460.9839710162
0.748197	1447542.1845411288
0.74982	1390638.4979862198
0.751451	1315354.2351279503
0.753088	1216194.0722836491
0.754734	1091521.521079965
0.756386	939191.7848361053
0.758047	756543.9256080925
0.759715	557374.6127472277
0.76139	352598.7925103963
0.763074	171279.82687726803
0.764765	52102.49197311717
0.766464	7743.929678146477
0.768172	10886.918359773063
0.769887	13231.853906247155
0.77161	95254.84937017318
0.773341	289953.1657895548
0.775081	547019.036636537
0.776829	814670.818940012
0.778585	976309.9898953743
0.780349	1090004.0440481738
0.782121	1481687.7624124356
0.783902	1751453.1928835558
0.785691	1937957.8017941387
0.787489	2096363.1115856478
0.789295	2232357.054010912
0.79111	2332739.919547636
0.792933	1996100.3811838136
0.794764	1117143.9440383723
0.796604	2312300.6180593017
0.798453	2758012.619488902
0.80031	2861887.289063835
0.802176	2950549.273364023
0.804051	3031968.227517848
0.805934	3107302.518573875
0.807826	3176064.499314146
0.809727	3220140.789887176
0.811636	3269339.826919501
0.813554	3335607.2206235463
0.81548	3447233.0103046247
0.817416	3507125.5641372115
0.81936	3562561.2007412673
0.821313	3659281.6811095434
0.823274	3710195.489437387
0.825244	3810420.8351867935
0.827223	3878652.8656417034
0.829211	3929318.08205276
0.831208	3992941.631157206
0.833213	4077466.9027804425
0.835227	4140715.202050381
0.837249	4186841.7624949603
0.83928	4261022.759118306
0.841321	4369265.539480186
0.843369	4460582.009713927
0.845427	4536606.610564658
0.847493	4618093.009066348
0.849567	4674103.200946535
0.851651	4681311.5399993695
0.853742	4807252.31921385
0.855843	4939068.73104429
0.857952	5025440.490146641
0.86007	5090480.967369266
0.862196	4934779.994540573
0.864331	5060068.227479474
0.866474	5199778.482630529
0.868626	5315420.844912139
0.870786	5388206.158056843
0.872955	5478917.028495122
0.875132	5558610.912611422
0.877317	5670360.1899865605
0.879511	5669839.720428098
0.881713	5773025.345732603
0.883923	5912882.527926628
0.886142	5981496.869214528
0.888369	6049524.08750833
0.890604	6066058.456486124
0.892847	5982398.540133662
0.895099	6132279.24158884
0.897358	6338402.871794118
0.899626	6497018.317384679
0.901901	6631448.093253388
0.904185	6782501.184694749
0.906476	6872438.060491977
0.908776	6976759.764706405
0.911083	7106518.083257853
0.913398	7144804.7688810155
0.915721	7166089.167695957
0.918051	7187562.226662226
0.92039	7432397.854409662
0.922736	7509471.624077821
0.925089	7299446.388068419
0.927451	6716291.079576388
0.929819	6045735.402740501
0.932195	6678970.890787882
0.934579	6718031.654809424
0.93697	7036306.691079475
0.939369	7513587.90429858
0.941774	7638821.322019587
0.944187	7194279.417474782
0.946607	7094659.683428004
0.949035	7637751.573868388
0.951469	7559903.841106021
0.953911	7785412.675937456
0.956359	8384466.006215032
0.958814	7773559.810686562
0.961277	7518775.668024356
0.963746	7669393.38668886
0.966222	7845809.023463235
0.968705	7820205.190979887
0.971194	8753677.205849674
0.97369	9266663.339944862
0.976193	9170846.657689596
0.978702	9486145.718108404
0.981217	9629621.093790865
0.983739	9807775.477622675
0.986268	9960029.78729382
0.988802	10208125.273479635
0.991343	10437281.91637234
0.99389	10569366.652922424
0.996444	10805937.351074597
0.999003	10901647.342517175
1.00157	10978369.489861848
1.00414	11132753.824748345
1.00672	11366678.255691925
1.0093	11557258.48026592
1.01189	11763382.773104472
1.01448	12002679.305685136
1.01708	12178157.845117083
1.01969	12351030.867977189
1.0223	12425054.980900766
1.02492	12401750.73641872
1.02754	12613391.28718288
1.03017	12559845.743626023
1.0328	13051400.43981887
1.03544	13262551.52182528
1.03808	13419977.03960969
1.04073	13572983.316808883
1.04339	13723877.649414899
1.04604	13878471.232746895
1.04871	13975567.94393355
1.05138	14091773.21040018
1.05405	14313698.455750545
1.05673	14501922.243306635
1.05941	14650120.117090661
1.0621	14787458.97872413
1.06479	14937764.435286306
1.06749	15090035.97729652
1.07019	15180023.48391162
1.07289	15359785.59371688
1.0756	15543981.749419779
1.07832	15667726.233843664
1.08104	15845421.053019542
1.08376	16002569.082169551
1.08649	16100434.851977699
1.08922	16067343.158094913
1.09195	15970414.587291326
1.09469	15952869.770915939
1.09743	16095081.80101636
1.10018	14463228.843474122
1.10293	12910917.639600502
1.10568	11874820.157228915
1.10844	14048359.779377062
1.1112	13302818.06974222
1.11396	12314903.443633853
1.11673	12300342.036993792
1.1195	12618926.815042077
1.12228	11662607.034446167
1.12505	13713279.6341674
1.12783	13823748.416238548
1.13062	13709965.708744697
1.13341	10187685.593868792
1.1362	12410898.164452115
1.13899	15187367.209138613
1.14178	14858430.498226838
1.14458	15680592.878165785
1.14738	16660255.949096933
1.15019	14199009.499001764
1.153	10527820.222315297
1.1558	11833027.111608166
1.15862	12088943.302323317
1.16143	12293694.54553611
1.16425	14236102.700893944
1.16707	16192840.972658107
1.16989	15021865.372769618
1.17271	15590373.034701683
1.17554	17275183.547433633
1.17837	18465011.87974153
1.1812	18993463.019965526
1.18403	20108664.065352336
1.18686	20027278.244277235
1.1897	20036017.263684426
1.19253	21049985.96411703
1.19537	21539356.867660064
1.19822	21768156.195281927
1.20106	22160066.56926043
1.2039	21981167.058420584
1.20675	22359045.79493532
1.2096	22573505.960948743
1.21245	22657776.088480305
1.2153	23184955.269388475
1.21815	23477205.20996185
1.221	23708486.91524302
1.22385	23970976.677574668
1.22671	24242242.867525082
1.22957	24434007.27643409
1.23242	24552618.2059645
1.23528	24788678.59710835
1.23814	25033939.119971525
1.241	25205478.822768304
1.24387	25382540.17435596
1.24673	25573814.437595345
1.24959	25565571.093033094
1.25245	25129431.204105522
1.25532	25947547.00501041
1.25818	26313450.45829194
1.26105	26347757.081417833
1.26392	26424509.90932818
1.26678	26586086.71342863
1.26965	26693225.666239813
1.27252	26718636.44712595
1.27538	27029824.489557978
1.27825	27142311.438786756
1.28112	27062614.49669373
1.28399	27338774.766180307
1.28686	27314631.94527816
1.28973	27001921.183948517
1.2926	26900958.071954004
1.29546	27335356.053855598
1.29833	27614710.143531047
1.3012	27136461.913078886
1.30407	27116281.912791044
1.30694	27079324.01873718
1.30981	27640966.235159203
1.31267	27397360.340288967
1.31554	28023374.57383584
1.31841	28528105.70112843
1.32128	27689393.13871516
1.32414	26181172.315055683
1.32701	25476543.81942886
1.32987	23257753.519988928
1.33274	16610329.149537703
1.3356	12291338.543111686
1.33847	6134340.561382931
1.34133	3208155.8093817574
1.34419	6104314.907653253
1.34705	8004996.897097566
1.34991	5841631.018812924
1.35277	3367811.6973211532
1.35563	3464994.6154366075
1.35849	4427336.199896705
1.36135	2898871.1634392785
1.3642	4779538.332101206
1.36706	5181071.405375286
1.36991	4714506.539796084
1.37277	8541628.069324866
1.37562	12454254.954501938
1.37847	13445245.484352857
1.38132	6747850.123694487
1.38417	1995180.6537457495
1.38701	3462991.857892859
1.38986	2902269.873018232
1.39271	3049231.24797343
1.39555	4152685.4412261476
1.39839	2975015.093930984
1.40123	4751666.270168273
1.40407	8079901.956904099
1.40691	10224593.474629229
1.40974	6448845.979434172
1.41258	2682526.7940568095
1.41541	4987806.3737438945
1.41824	6460070.843155227
1.42107	4678436.725521216
1.4239	3307353.040417006
1.42673	5819565.764342648
1.42955	8172933.371396905
1.43237	5272633.247016563
1.43519	7110032.7786870245
1.43801	5879638.718482251
1.44083	7024859.592984263
1.44365	10007040.824485889
1.44646	10256069.678150013
1.44927	14661631.096681591
1.45208	16935384.61440369
1.45489	14439406.33992512
1.45769	16673162.352296485
1.4605	17970522.786311295
1.4633	18183335.052761957
1.4661	19169305.758522328
1.4689	16112028.090076704
1.47169	16791388.68002862
1.47449	16842797.08427329
1.47728	17488164.1640466
1.48007	17274621.508270882
1.48286	20327956.424634922
1.48564	22860486.195728377
1.48842	22414251.859726116
1.4912	22683112.632313747
1.49398	22354317.838207256
1.49676	21307567.158389702
1.49953	23957800.862676382
1.5023	26341434.81175414
1.50507	26307434.334932216
1.50784	25267823.622294836
1.51061	25545340.386443894
1.51337	26515908.198074818
1.51613	27746628.519738905
1.51888	29296887.385598063
1.52164	31655112.807340864
1.52439	32717970.8557147
1.52714	31645465.533047073
1.52989	31314394.27031996
1.53263	32405264.201343834
1.53538	33729480.77687067
1.53812	33846282.68680433
1.54086	33611439.265709504
1.54359	33839348.96310069
1.54632	34879259.693748504
1.54905	35070157.5158146
1.55178	35966272.60825035
1.5545	35834411.07331849
1.55723	35132563.48085394
1.55995	35324021.976636276
1.56266	36103688.97913646
1.56538	37385948.997613914
1.56809	38019785.23866112
1.5708	37930124.894061595
1.57351	37274495.629652716
1.57621	36818283.799115025
1.57891	35787449.67449638
1.58161	36961376.89597432
1.5843	39012733.79478404
1.587	39430097.17635387
1.58969	39380220.997586645
1.59238	39352631.752592914
1.59506	39032828.15775526
1.59774	38631315.201907195
1.60042	38624932.7980778
1.6031	38943683.94352493
1.60577	39236180.879838824
1.60844	39357475.90664387
1.61111	39176286.80441395
1.61378	38845240.19188456
1.61644	38900203.38462033
1.6191	38592037.70052977
1.62176	38222398.66104154
1.62441	38470079.84533658
1.62707	38321834.34417625
1.62971	37499597.28576634
1.63236	37154684.00918384
1.635	38698173.949914
1.63764	40707484.04275337
1.64028	41326605.43381657
1.64292	41289643.223257616
1.64555	40704245.33758194
1.64818	39326696.43421165
1.65081	39143569.817115426
1.65343	40311950.3851438
1.65605	40800909.96171752
1.65867	40832567.88107323
1.66128	40339470.60919559
1.6639	38227362.49149643
1.66651	33917512.819839396
1.66911	33568445.973974876
1.67172	37567083.09295481
1.67432	40318764.17598072
1.67692	40448817.81387934
1.67951	39712705.75629223
1.68211	39851420.18338486
1.6847	40026069.43853003
1.68728	39431636.68230134
1.68987	38784723.47445252
1.69245	37478149.339079686
1.69503	35072365.18957483
1.6976	33914782.93910215
1.70018	35666274.77447223
1.70275	35774539.482719764
1.70531	35807252.44090872
1.70788	36886256.05751322
1.71044	36477455.64374829
1.713	36808766.27582193
1.71556	37424170.05940199
1.71811	38095501.61101617
1.72066	38795478.861784294
1.72321	38376340.55171412
1.72575	37942981.85096814
1.7283	37264716.67220071
1.73084	35963270.72642036
1.73337	34499209.37922718
1.73591	33391788.79585725
1.73844	32868028.85360468
1.74097	32701659.91204718
1.74349	31214825.045254633
1.74602	29326819.0046747
1.74854	28399842.3815434
1.75105	26446210.20817738
1.75357	23565221.2708991
1.75608	25653346.01138581
1.75859	30950212.308395434
1.7611	33415231.515008647
1.7636	32713743.94481821
1.7661	28180629.895805713
1.7686	23916158.16084932
1.7711	20392454.673994943
1.77359	16538289.248247243
1.77608	11797184.481279962
1.77857	9456272.607200187
1.78105	10922951.930624308
1.78354	12430909.245879833
1.78602	10291715.8139932
1.78849	8520882.312439954
1.79097	10166618.195270361
1.79344	12435945.433071781
1.79591	13839827.55096867
1.79837	15451654.40956695
1.80084	10964424.654667493
1.8033	7172788.742384954
1.80576	4182873.4354151497
1.80821	2955074.476351361
1.81067	6395557.698639977
1.81312	9609083.476043336
1.81557	6114885.450713048
1.81801	3780044.4133016933
1.82046	6944103.139002187
1.8229	10226726.137526505
1.82533	7634544.3484488465
1.82777	3543164.930387021
1.8302	3055122.778313877
1.83263	4934111.257456958
1.83506	6902379.690050696
1.83749	9199257.435694885
1.83991	10690268.661291756
1.84233	9398444.140227292
1.84475	8782983.6315417
1.84716	9283120.258433757
1.84957	10020387.412271872
1.85198	8920294.667594858
1.85439	5132502.86955774
1.8568	4293416.041142458
1.8592	5440733.0372121185
1.8616	4493751.620909754
1.864	3048116.837790688
1.86639	3415780.581430072
1.86878	4995533.299340859
1.87118	7139159.8802306
1.87356	9399583.113061437
1.87595	10348105.099098833
1.87833	12414784.264888253
1.88071	16353350.680805473
1.88309	15838831.84589872
1.88547	13251598.776589708
1.88784	12858342.01342716
1.89021	12300653.244342353
1.89258	16499102.374919243
1.89494	19454891.423946418
1.89731	14309535.998221615
1.89967	7918922.5157101555
1.90203	4369956.537081124
1.90439	4155572.1426481716
1.90674	6185151.541821793
1.90909	6826154.314877176
1.91144	4825132.501248291
1.91379	2683601.6753594787
1.91613	2404946.0216167844
1.91848	3641621.328720994
1.92082	5077316.111868355
1.92315	4916106.657017432
1.92549	3777860.4386677155
1.92782	4233502.6960718045
1.93015	5693329.019744141
1.93248	6740892.38383284
1.93481	6810665.957753783
1.93713	5973226.759570076
1.93945	5614508.038198186
1.94177	6430512.895261414
1.94409	7172003.3083748715
1.94641	7140308.740611234
1.94872	7884452.1961368825
1.95103	9065450.020800982
1.95334	6616935.809536249
1.95564	5253089.147837216
1.95795	6139820.833362788
1.96025	6492019.814854403
1.96255	6570122.1489445055
1.96484	7299466.213115768
1.96714	9262344.003330592
1.96943	11813570.521042781
1.97172	13110672.194651363
1.97401	12126059.651862046
1.97629	12720770.716718808
1.97858	15052867.543149885
1.98086	16395945.772587115
1.98314	17841900.852311563
1.98541	18761860.944101196
1.98769	17642909.258844074
1.98996	14744754.75296261
1.99223	14031780.778116444
1.9945	15690310.935137907
1.99677	15119500.341609063
1.99903	14980882.589770816
2.00129	17373684.173230432
2.00355	20600671.44812826
2.00581	22159294.607251585
2.00806	22323741.270311728
2.01031	25088268.121049814
2.01256	26731097.942787364
2.01481	25213431.73485133
2.01706	23076659.69685167
2.0193	22924667.77535905
2.02154	25427186.111452635
2.02378	28369589.815969456
2.02602	29263794.626059372
2.02825	29969628.918363906
2.03049	30909368.304675695
2.03272	32105750.28628679
2.03494	33283510.59363802
2.03717	34029765.495020464
2.03939	34451247.80560441
2.04162	35698209.72656595
2.04384	36787398.799346544
2.04605	37992186.0584091
2.04827	39193701.15535469
2.05048	39417245.883858636
2.05269	37878584.07958005
2.0549	37479576.4463701
2.05711	38124028.51217627
2.05931	39194099.527116045
2.06151	40092236.56694419
2.06371	40829503.43474807
2.06591	41361800.74456378
2.06811	41761914.37936248
2.0703	41924715.71446793
2.07249	41783890.14361254
2.07468	41339048.15067229
2.07686	41328022.311876476
2.07905	41628447.75212123
2.08123	41989201.104150794
2.08341	42295499.033345014
2.08559	42583931.93014901
2.08776	42783478.58499516
2.08994	42674955.48289036
2.09211	42378061.170093335
2.09428	42110622.57899074
2.09645	42286551.72086068
2.09861	42357047.318310924
2.10077	42292022.69319849
2.10293	42074327.02925223
2.10509	41724819.68376772
2.10725	41427906.46790879
2.1094	41953086.281857185
2.11155	42542547.59851224
2.1137	42827547.63128831
2.11585	42470530.40600461
2.11799	42186911.21571832
2.12013	42194323.629557215
2.12227	42391359.4041662
2.12441	42658268.90292217
2.12655	42743226.80573739
2.12868	42728630.32567504
2.13081	42753159.6266493
2.13294	42808965.16548241
2.13507	42608439.52559742
2.13719	42115304.07809731
2.13931	41694954.2054548
2.14143	41381575.53930056
2.14355	41017542.846750595
2.14567	40801815.973325774
2.14778	40605629.11523689
2.14989	40349196.748289555
2.152	39879825.55030002
2.1541	39980618.284271844
2.15621	40166296.95755012
2.15831	40223963.91157818
2.16041	39727485.72882815
2.16251	39490880.61586105
2.1646	39311091.608655356
2.1667	39162216.30351213
2.16879	39163442.70897906
2.17087	39072351.356142946
2.17296	38878647.808915794
2.17504	38581583.86598675
2.17713	38355853.55926168
2.1792	38130632.076372795
2.18128	37846512.83102053
2.18336	37431167.054209724
2.18543	36869172.81109684
2.1875	36246929.85984342
2.18957	35452514.64767427
2.19163	33974973.43435406
2.1937	31509905.64736341
2.19576	28763854.896469403
2.19782	26020542.7902705
2.19987	24452607.940082546
2.20193	23421065.765645523
2.20398	22839471.116010644
2.20603	22563145.53805767
2.20808	23010782.423960786
2.21012	23867195.870587267
2.21217	25083053.29023208
2.21421	25786770.12826318
2.21625	25885024.662866026
2.21828	25452716.195841465
2.22032	25303894.52578128
2.22235	25102233.938944127
2.22438	24624289.47157044
2.22641	23252076.404918578
2.22843	21743966.718975328
2.23046	20451222.420654714
2.23248	19686228.890846632
2.2345	19531439.662289187
2.23651	19405095.22014594
2.23853	19218072.56229364
2.24054	18132223.194806147
2.24255	16850696.32134528
2.24456	15494384.256593782
2.24657	15581651.864623703
2.24857	16415454.99249347
2.25057	17669108.6607488
2.25257	18273094.912803106
2.25457	18739881.408458196
2.25656	19120217.228654884
2.25856	19457058.77717314
2.26055	18865632.278920457
2.26254	17728239.985299762
2.26453	16111916.581233367
2.26651	15069636.1541807
2.2685	14540537.275570296
2.27048	15076278.665466776
2.27246	15962379.547584487
2.27443	16808290.030152284
2.27641	16910586.569846362
2.27838	16410072.367076196
2.28036	15658407.738134995
2.28233	15046784.104673313
2.28429	14567402.126032019
2.28626	14130697.765656302
2.28823	13553649.637416527
2.29019	12984245.398510214
2.29215	12423147.073652593
2.29411	11921897.965843128
2.29607	11431879.63745418
2.29802	10954638.770881332
2.29998	10666735.681714091
2.30193	10560463.023318272
2.30388	10660089.264875876
2.30583	11112278.624218289
2.30778	11674555.814213887
2.30972	12367491.428106943
2.31167	12495296.24482581
2.31361	12071427.28483658
2.31555	10409068.554876717
2.31749	8809018.48181834
2.31943	7395173.892423857
2.32137	7102664.072144191
2.32331	6942881.006387989
2.32524	6889066.59482625
2.32718	6819649.028199969
2.32911	6844945.039528597
2.33104	7006745.532454923
2.33297	7159048.602117779
2.3349	7300449.875744903
2.33683	7414294.735068084
2.33876	7499639.902224066
2.34068	7559961.832731201
2.34261	7472124.995737341
2.34453	7397159.682031672
2.34646	7335949.146789185
2.34838	7521553.307560709
2.3503	7875091.144194824
2.35223	8589653.757812897
2.35415	9254255.743151726
2.35607	9885016.119861105
2.35799	10347020.805851994
2.35991	10911870.65594995
2.36183	11600843.97996999
2.36375	11483610.076815538
2.36566	10850069.461971194
2.36758	8938601.31189603
2.3695	7382519.759277843
2.37142	6054250.128106706
2.37334	6378654.725397133
2.37526	6591663.1733376635
2.37718	6604590.131275323
2.3791	6542421.412331605
2.38101	6552193.512688459
2.38293	7270712.902098748
2.38485	8201947.968122844
2.38677	9350376.935531328
2.3887	9911333.840474255
2.39062	10240102.23083563
2.39254	10132550.049065745
2.39446	9850534.81606357
2.39639	9454632.989006622
2.39831	9196284.655863438
2.40024	8937687.15745798
2.40216	8677058.934985863
2.40409	8724433.262142753
2.40602	8949586.982552152
2.40795	9783805.384522108
2.40989	10496751.590592073
2.41182	11052352.151060404
2.41376	11382817.173095305
2.4157	11735006.25164213
2.41764	12410554.09824933
2.41958	12826073.032272225
2.42152	13030166.588773351
2.42347	12260419.275971405
2.42542	11540527.346950842
