#wavelength	surface flux
0.8	443508.8532511835
0.8002000000000001	444933.92040885164
0.8004000500000003	446737.25088739133
0.8006001500125003	448544.849431883
0.8008003000500035	450352.899876011
0.8010005001250161	452161.40233275085
0.8012007502500472	453970.3569151023
0.8014010504376099	455323.83886030904
0.8016014007002193	456524.93827162654
0.8018018010503944	457726.3379577969
0.8020022515006572	458928.0379938893
0.8022027520635323	460130.03845498967
0.8024033027515483	461347.986238731
0.8026039035772362	462581.57178569044
0.8028045545531306	463815.4657290366
0.8030052556917691	465049.6681458693
0.803206007005692	466284.179113305
0.8034068085074435	467619.4851421714
0.8036076602095705	469236.803210982
0.8038085621246229	470854.5256093085
0.8040095142651542	472472.65243823564
0.8042105166437206	474091.18379886943
0.8044115692728815	475702.06581689516
0.8046126721651998	476966.93488132843
0.8048138253332411	478232.12016302685
0.8050150287895745	479497.6217410468
0.805216282546772	480763.43969446095
0.8054175866174087	482029.5741023628
0.8056189410140631	483267.15642826713
0.8058203457493168	484496.87645916484
0.8060218008357541	485726.90392006875
0.8062233062859632	486957.2388878385
0.8064248621125346	488187.8814393493
0.806626468328063	489652.1585710012
0.8068281249451449	491317.20136924885
0.8070298319763813	492982.6604281981
0.8072315894343755	494648.5358519108
0.8074333973317341	496314.8277444801
0.8076352556810671	497560.03473191493
0.8078371644949874	497790.92858033127
0.8080391237861113	498021.8801522097
0.8082411335670578	498252.88946198096
0.8084431938504498	498483.95652407996
0.8086453046489125	498691.90938685084
0.8088474659750746	498468.4937437446
0.8090496778415686	498245.02224672737
0.809251940261029	498021.494881836
0.8094542532460944	497797.9116351032
0.8096566168094059	497574.272492559
0.8098590309636085	497739.75303876447
0.8100614957213493	497996.3646816724
0.8102640110952797	498253.0404774911
0.8104665770980536	498509.7804422588
0.8106691937423283	498766.58459201787
0.8108718610407639	499262.67133411526
0.8110745790060241	499941.79984602693
0.8112773476507757	500621.09814006725
0.8114801669876885	501300.56625868083
0.8116830370294355	501980.2042443237
0.8118859577886929	502453.5924535387
0.8120889292781401	502498.3562958522
0.8122919515104597	502543.1313291263
0.8124950244983374	502587.91755615873
0.8126981482544621	502632.71497974795
0.8129013227915257	502735.3622296356
0.8131045481222237	503500.2962624674
0.8133078242592543	504265.4215288075
0.8135111512153191	505030.738076464
0.813714529003123	505796.2459532575
0.8139179576353739	506561.94520702027
0.8141214371247829	511666.0635701657
0.8143249674840641	517612.71327914624
0.814528548725935	523560.8496505504
0.8147321808631167	529510.4730560555
0.8149358639083326	535461.5838674101
0.8151395978743097	539120.7465981877
0.8153433827737784	541231.2826295303
0.8155472186194719	543342.3462948799
0.8157511054241268	545453.9377261456
0.815955043200483	547566.0570552704
0.8161590319612831	549333.0898957268
0.8163630717192736	550467.2680179172
0.8165671624872033	551601.7296846367
0.8167713042778252	552736.4749667741
0.8169754971038948	553871.5039352326
0.8171797409781707	554862.1768455486
0.8173840359134155	554698.392981591
0.8175883819223938	554534.5681716677
0.8177927790178745	554370.702405542
0.8179972272126291	554206.7956729745
0.8182017265194322	554042.8479637242
0.8184062769510622	556892.9333623572
0.8186108785203001	560207.5526749974
0.8188155312399301	563523.0006424614
0.8190202351227402	566839.2774719209
0.819224990181521	570156.3833705856
0.8194297964290664	572125.1633935142
0.8196346538781738	573281.2347365931
0.8198395625416434	574437.5950975072
0.8200445224322789	575594.244548512
0.820249533562887	576751.1831618793
0.8204545959462778	578092.9592728892
0.8206597095952644	579732.0962750582
0.8208648745226633	581371.6430614792
0.8210700907412941	583011.5997345964
0.8212753582639793	584651.9663968803
0.8214806771035456	585583.929974594
0.8216860472728215	582148.9737983904
0.8218914687846397	578713.1588831425
0.822096941651836	575276.485014164
0.822302465887249	571838.9519767202
0.8225080415037209	568400.5595560153
0.8227136685140968	570627.4819203668
0.8229193469312254	573498.1902302665
0.8231250767679583	576369.6162172448
0.8233308580371503	579241.7600607183
0.8235366907516598	582114.6219401547
0.8237425749243477	585456.1485653174
0.8239485105680789	589046.5304594035
0.824154497695721	592637.8099489608
0.824360536320145	596229.9872583912
0.8245666264542252	599823.0626121487
0.8247727681108388	602882.2273019431
0.8249789613028664	605176.209733273
0.8251852060431922	607470.7656602127
0.825391502344703	609765.8952261332
0.8255978502202894	612061.5985744472
0.8258042496828445	614220.1304561943
0.8260107007452654	615710.2317721423
0.8262172034204517	617200.7056134179
0.8264237577213068	618691.5520731541
0.8266303636607373	620182.771244506
0.8268370212516525	621674.36322065
0.8270437305069654	620947.6168043513
0.8272504914395923	620047.3108338311
0.8274573040624523	619146.7797868181
0.8276641683884679	618246.023607044
0.8278710844305652	617345.0422382241
0.8280780522016729	618316.1527172585
0.8282850717147234	620143.3386499879
0.8284921429826521	621970.9813791987
0.8286992660183978	623799.0810190932
0.8289064408349024	625627.6376838963
0.8291136674451112	626602.3518745049
0.8293209458619727	626500.0807396115
0.8295282760984382	626397.7840369345
0.829735658167463	626295.4617600817
0.8299430920820048	626193.1139026599
0.8301505778550254	626125.7796701181
0.8303581154994891	626198.2803592959
0.8305657050283641	626270.7991736461
0.8307733464546212	626343.3361177
0.8309810397912352	626415.8911959898
0.8311887850511829	626488.4644130492
0.8313965822474458	631032.6584800222
0.8316044313930077	635785.5393307798
0.8318123325008561	640539.6084017544
0.8320202855839813	645294.8659899944
0.8322282906553774	650051.3123926319
0.8324363477280413	651948.1571975256
0.8326444568149735	652693.73196652
0.8328526179291771	653439.4931292055
0.8330608310836596	654185.440732183
0.8332690962914304	654931.5748220603
0.8334774135655034	655395.6146649165
0.833685782918895	655544.4536159717
0.8338942043646247	655693.3297767647
0.834102677915716	655842.2431565978
0.834311203585195	655991.193764776
0.8345197813860912	657057.1251114481
0.8347284113314379	661209.8405137194
0.8349370934342709	665363.5940948387
0.8351458277076294	669518.3861143484
0.8353546141645565	673674.2168318699
0.8355634528180977	677831.0865070691
0.8357723436813022	673287.2439807983
0.8359812867672226	668634.8210360404
0.8361902820889144	663981.2349855487
0.8363993296594368	659326.485538543
0.8366084294918518	654670.5724041739
0.8368175815992247	656319.4011216973
0.8370267859946247	660140.4607832337
0.8372360426911234	663962.4757096844
0.8374453517017962	667785.4461398663
0.8376547130397217	671609.3723126552
0.8378641267179816	674147.0434321796
0.8380735927496613	675408.1010113431
0.8382831111478488	676669.4738549007
0.8384926819256358	677931.1620416684
0.8387023050961173	679193.1656504839
0.8389119806723914	680388.92114069
0.8391217086675596	681397.6437941194
0.8393314890947265	682406.6186282114
0.8395413219670003	683415.845706012
0.8397512072974922	684425.3250905828
0.8399611450993165	685508.8973221765
0.8401711353855914	690259.6321543439
0.8403811781694378	695011.5546702181
0.8405912734639802	699764.6651667225
0.8408014212823464	704518.9639408531
0.8410116216376671	709274.4512896768
0.8412218745430766	713215.1627468886
0.8414321800117124	716919.4451227926
0.8416425380567154	720624.6535692924
0.8418529486912297	724330.7883179046
0.8420634119284025	728037.8496002009
0.8422739277813847	730180.9978555611
0.8424844962633302	730945.9973193848
0.842695117387396	731711.1880330736
0.8429057911667428	732476.5700444408
0.8431165176145345	733242.1434013112
0.8433272967439382	734173.2199835009
0.8435381285681244	735507.7707340315
0.8437490131002665	736842.6551222494
0.8439599503535415	738177.8732315635
0.84417094034113	739513.4251454059
0.8443819830762154	740884.5852958561
0.8445930785719846	742966.6930050018
0.8448042268416277	745049.3212410737
0.8450154278983382	747132.4701342043
0.8452266817553128	749216.139814558
0.8454379884257517	751300.330412332
0.8456493479228583	753515.6734427366
0.845860760259839	755763.0279163872
0.846072225449904	758010.944228656
0.8462837435062666	760259.4225200035
0.8464953144421433	762508.4629309251
0.8467069382707537	764202.876964854
0.8469186150053215	765464.9621105127
0.847130344659073	766727.3627774582
0.8473421272452377	767990.0790445692
0.8475539627770492	769253.1109907483
0.8477658512677435	770755.4265136841
0.8479777927305605	772765.5343108784
0.8481897871787432	774776.1446350215
0.848401834625538	776787.2576117467
0.8486139350841944	778798.8733667149
0.8488260885679657	780771.8710586828
0.8490382950901076	782268.491301057
0.8492505546638802	783765.4856984927
0.8494628673025462	785262.8543445272
0.8496752330193721	786760.5973327254
0.8498876518276269	788258.7147566685
0.8501001237405839	788502.5508968862
0.8503126487715191	788495.9966605307
0.850525226933712	788489.440785616
0.8507378582404455	788482.8832717327
0.8509505427050057	788476.324118471
0.8511632803406821	789107.2795033244
0.8513760711607672	790174.9744689781
0.8515889151785576	791242.9363583749
0.8518018124073523	792311.1652382432
0.8520147628604541	793379.6611753308
0.8522277665511693	795149.4848348126
0.8524408234928071	798216.277784863
0.8526539336986805	801283.8374331517
0.8528670971821053	804352.1639713526
0.8530803139564007	807421.2575911846
0.8532935840348901	810464.124531159
0.8535069074308987	813279.7744585816
0.8537202841577566	816096.1282984883
0.8539337142287962	818913.1862268555
0.8541471976573534	821730.9484197028
0.8543607344567677	824549.415053099
0.8545743246403821	826849.0451624676
0.8547879682215422	829066.7411081633
0.8550016652135977	831284.9914778449
0.8552154156299011	833503.7964101192
0.8554292194838088	835723.1560436281
0.8556430767886797	837588.4451917307
0.855856987557877	839238.8815308019
0.8560709518047664	840889.7304789567
0.8562849695427177	842540.9921393492
0.8564990407851035	844192.6666151573
0.8567131655452999	845857.2705203176
0.8569273438366862	847542.7992970034
0.8571415756726455	849228.7494558837
0.8573558610665638	850915.1211023044
0.8575702000318304	852601.9143416348
0.8577845925818384	854313.4518884025
0.857999038729984	856177.3452966872
0.8582135384896665	858041.7046783237
0.858428091874289	859906.5301498057
0.8586426988972576	861771.8218276551
0.8588573595719821	863637.5798284246
0.8590720739118751	865241.8223368004
0.8592868419303532	866815.5774532342
0.8595016636408359	868389.7260084471
0.8597165390567462	869964.2681007982
0.8599314681915105	871539.2038286729
0.8601464510585584	873028.3543901535
0.860361487671323	874472.1340805673
0.8605765780432408	875916.2747159033
0.8607917221877518	877360.7763863993
0.8610069201182988	878805.6391823125
0.8612221718483286	879046.7061828282
0.8614374773912907	877551.878159899
0.8616528367606385	876056.6764299646
0.8618682499698288	874561.1008995968
0.8620837170323213	873065.1514753466
0.8622992379615795	872050.5770096239
0.8625148127710699	873419.739866491
0.8627304414742627	874789.2450140725
0.8629461240846313	876159.0925379411
0.8631618606156526	877529.2825236906
0.8633776510808066	878899.8150569365
0.8635934954935769	883167.3040201864
0.8638093938674504	887673.3005275258
0.8640253462159173	892180.4235339919
0.8642413525524714	896688.6733212095
0.8644574128906095	901198.050170873
0.8646735272438323	902918.7272402899
0.8648896956256433	903342.4875636606
0.8651059180495498	903766.353827112
0.8653221945290621	904190.326057129
0.8655385250776946	904614.404280204
0.8657549097089641	906271.4878962917
0.8659713484363913	909507.3680038697
0.8661878412735006	912744.0570814761
0.866404388233819	915981.5553313514
0.8666209893308775	919219.8629557877
0.8668376445782103	922078.5272376658
0.8670543539893549	923385.0846879785
0.8672711175778525	924691.9687776547
0.8674879353572469	925999.1795883519
0.8677048073410862	927306.7172017521
0.8679217335429217	928614.5816995566
0.8681387139763074	929881.8399269693
0.8683557486548015	931147.3815100357
0.8685728375919655	932413.2394784995
0.8687899808013633	933679.4139114526
0.8690071782965637	934945.9048880157
0.869224430091138	937286.780015663
0.8694417361986609	940065.2770815965
0.8696590966327107	942844.4687717961
0.869876511406869	945624.3552599183
0.8700939805347206	948404.9367196611
0.8703115040298544	951068.583811641
0.870529081905862	953598.4122529386
0.8707467141763385	956128.8731513458
0.8709644008548827	958659.9666649774
0.8711821419550964	961191.6929519858
0.8713999374905854	963601.8813335481
0.871617787474958	965591.0183151142
0.8718356919218269	967580.6525809276
0.8720536508448075	969570.7842553075
0.8722716642575187	971561.4134626049
0.8724897321735832	973552.540327205
0.8727078546066265	975130.3657004902
0.8729260315702784	976702.2902857558
0.873144263078171	978274.607852166
0.8733625491439405	979847.318497968
0.8735808897812266	981420.422321432
0.8737992850036719	981993.865267963
0.874017734824923	982213.2488379399
0.8742362392586293	982432.6872538092
0.874454798318444	982652.1805292824
0.8746734120180236	982871.7286780745
0.8748920803710283	983468.4239023183
0.875110803391121	984444.2100178435
0.8753295810919689	985420.2400798982
0.875548413487242	986396.5141494683
0.8757673005906139	987373.0322875559
0.8759862424157616	988905.6426159997
0.8762052389763657	992047.0086929933
0.8764242902861098	995189.160111504
0.8766433963586814	998332.0970678702
0.8768625572077712	1001475.8197584765
0.8770817728470732	1004596.3105618984
0.8773010432902849	1005842.3308723816
0.8775203685511077	1007088.6626879441
0.8777397486432454	1008335.3060864591
0.8779591835804065	1009582.2611458251
0.8781786733763015	1010829.5279439545
0.8783982180446457	1010942.6888307551
0.878617817599157	1010718.4099375809
0.8788374720535569	1010494.0749746836
0.8790571814215703	1010269.6839280456
0.8792769457169257	1010045.2367836458
0.879496764953355	1008643.7495669096
0.8797166391445934	1006183.7260921394
0.8799365683043796	1003723.0876115003
0.8801565524464557	1001261.833971241
0.8803765915845676	998799.9650175694
0.8805966857324639	998925.5644730468
0.880816834903897	1005551.686150101
0.881037039112623	1012179.4643575771
0.8812572983724012	1018808.8995096044
0.8814776126969944	1025439.9920204227
0.8816979821001687	1031834.8909519523
0.8819184065956938	1032632.3277374961
0.8821388861973429	1033429.9638822372
0.8823594209188923	1034227.7994360137
0.882580010774122	1035025.8344486783
0.8828006557768155	1035824.0689700964
0.8830213559407598	1036988.8883828901
0.8832421112797452	1038246.1486307966
0.8834629218075651	1039503.7231937643
0.8836837875380171	1040761.6121503732
0.8839047084849018	1042019.8155792214
0.884125684662023	1042737.9132605684
0.8843467160831886	1043023.1126168169
0.8845678027622095	1043308.3832729044
0.8847889447129001	1043593.725246656
0.8850101419490785	1043879.138555901
0.8852313944845657	1044961.3911541214
0.885452702333187	1047787.941602507
0.8856740655087704	1050615.1986885043
0.8858954840251476	1053443.1625887726
0.8861169578961539	1056271.8334800145
0.886338487135628	1058733.1667384722
0.886560071757412	1056297.3934396713
0.8867817117753515	1053861.0111975456
0.8870034072032955	1051424.019859858
0.8872251580550963	1048986.4192743392
0.8874469643446101	1046548.2092886725
0.8876688260856963	1049254.3402539368
0.8878907432922178	1053025.9611950184
0.8881127159780409	1056798.5250413327
0.8883347441570356	1060572.0320286131
0.8885568278430749	1064346.4823926366
0.8887789670500358	1067517.3212184114
0.8890011617917983	1070260.097263165
0.8892234120822464	1073003.5590019312
0.8894457179352669	1075747.7066061299
0.8896680793647509	1078492.5402472317
0.8898904963845921	1079761.2197488963
0.8901129690086883	1078212.3661620342
0.8903354972509405	1076663.1253617757
0.8905580811252535	1075113.497251316
0.8907807206455347	1073563.4817338306
0.8910034158256963	1071785.5630103676
0.8912261666796527	1067973.9001983453
0.8914489732213227	1064161.284470619
0.8916718354646282	1060347.7155889568
0.8918947534234944	1056533.1933150783
0.8921177271118502	1052717.7174106333
0.8923407565436284	1047304.1150587742
0.8925638417327644	1041628.6170296225
0.8927869826931977	1035951.7001259617
0.8930101794388711	1030273.3639930752
0.8932334319837308	1024593.6082761565
0.8934567403417267	1019308.1612953391
0.8936801045268123	1014267.2917410841
0.8939035245529441	1009225.1619694438
0.8941270004340824	1004181.7716653587
0.894350532184191	999137.1205136989
0.8945741198172371	1002661.827712922
0.8947977633471915	1020400.7662169854
0.8950214627880284	1038144.1394556742
0.8952452181537254	1055891.9485376622
0.8954690294582639	1073644.1945719311
0.8956928967156286	1089113.5230848177
0.8959168199398075	1089742.596017792
0.8961407991447926	1090371.8262189992
0.8963648343445789	1091001.2137277569
0.896588925553165	1091630.7585833916
0.8968130727845534	1092260.46082524
0.8970372760527496	1091203.461567962
0.8972615353717629	1089935.1380391691
0.8974858507556059	1088666.497429494
0.8977102222182949	1087397.5396596668
0.8979346497738496	1086128.2646503963
0.8981591334362931	1095318.682668031
0.8983836732196523	1110231.731996283
0.8986082691379572	1125148.5095868574
0.8988329212052417	1140069.0163718297
0.8990576294355432	1154993.2532835107
0.8992823938429022	1165188.9375326913
0.8995072144413631	1168350.8661898735
0.8997320912449734	1171513.5853292192
0.8999570242677847	1174677.0951483487
0.9001820135238516	1177841.3958449333
0.9004070590272328	1180669.3996418826
0.9006321607919896	1181730.980273799
0.9008573188321878	1182792.8263008746
0.9010825331618959	1183854.9377894565
0.9013078037951865	1184917.3148059105
0.9015331307461353	1185979.957416618
0.9017585140288219	1188497.0194878378
0.9019839536573292	1191139.9608605197
0.9022094496457435	1193783.5629685428
0.9024350020081551	1196427.8259770959
0.9026606107586572	1199072.7500514002
0.902886275911347	1205084.6365107528
0.9031119974803249	1212720.8174141997
0.9033377754796951	1220358.9073628725
0.903563609923565	1227998.906834029
0.903789500826046	1235640.8163050583
0.9040154482012526	1241033.6761877646
0.904241452063303	1243511.9620622515
0.9044675124263188	1245990.8675082065
0.9046936293044254	1248470.3926805225
0.9049198027117517	1250950.5377341327
0.9051460326624297	1253372.3772558551
0.9053723191705955	1255543.9034600672
0.9055986622503881	1257715.9725458284
0.9058250619159507	1259888.584648861
0.9060515181814298	1262061.7399049208
0.9062780310609752	1264235.438449793
0.9065046005687405	1256639.256076961
0.906731226718883	1248496.1115709029
0.9069579095255627	1240350.9312787286
0.907184649002944	1232203.714691481
0.907411445165195	1224054.461300078
0.9076382980264862	1229649.5701005065
0.907865207600993	1240954.9319331045
0.9080921739028933	1252263.1201061571
0.9083191969463691	1263574.1353262514
0.9085462767456058	1274887.978300156
0.9087734133147922	1281974.9914204266
0.9090006066681211	1284178.4685132748
0.909227856819788	1286382.4964753932
0.9094551637839932	1288587.075444505
0.9096825275749393	1290792.2055583587
0.9099099482068329	1293453.3032415689
0.9101374256938848	1297733.6235793454
0.9103649600503083	1302015.0139972044
0.9105925512903209	1306297.4747626667
0.9108201994281437	1310581.0061433252
0.9110479044780008	1314865.6084068238
0.9112756664541204	1318968.0244202933
0.911503485370734	1323067.271308173
0.9117313612420768	1327167.5430077745
0.9119592940823873	1331268.8397753
0.912187283905908	1335371.1618670183
0.9124153307268845	1330172.3380457375
0.9126434345595664	1321596.0699928715
0.9128715954182063	1313017.6578730007
0.9130998133170609	1304437.1011500955
0.9133280882703902	1295854.39928801
0.913556420292458	1294677.1776806186
0.9137848093975312	1301139.2557661403
0.9140132555998806	1307602.9493711828
0.9142417589137806	1314068.2588996268
0.9144703193535092	1320535.184755457
0.9146989369333476	1325493.305922201
0.9149276116675811	1325897.188509788
