#wavelength	surface flux
0.7	1642055.3854326133
0.7001166666666666	1644377.907381682
0.7002333527777778	1646400.3595576799
0.700350058336574	1648423.1488090397
0.7004667833462966	1650446.2751919385
0.7005835278101878	1652469.7387625736
0.7007002917314895	1654493.5395771337
0.7008170751134447	1656517.6776918296
0.7009338779592968	1658542.1531628766
0.7010507002722901	1660318.6790241634
0.7011675420556689	1661793.352173746
0.701284403312678	1663268.271102185
0.7014012840465635	1664743.4358504473
0.7015181842605713	1666218.8464595005
0.701635103957948	1667694.502970321
0.701752043141941	1669170.4054238931
0.701869001815798	1670646.5538612094
0.7019859799827672	1672213.9072675884
0.7021029776460976	1673844.824203094
0.7022199948090387	1675476.0129580908
0.7023370314748403	1677107.4735778794
0.7024540876467528	1678739.206107771
0.702571163328027	1680371.2105930815
0.7026882585219152	1682003.487079144
0.7028053732316688	1683636.0356112851
0.7029225074605406	1686124.5655778216
0.7030396612117841	1688943.9389205105
0.7031568344886527	1691763.782158757
0.7032740272944008	1694584.0953708752
0.7033912396322832	1697404.8786351965
0.7035084715055552	1700226.1320300591
0.7036257229174727	1703047.855633822
0.7037429938712924	1705870.0495248549
0.7038602843702709	1708555.0668693953
0.7039775944176659	1711217.1857932487
0.7040949240167356	1713879.7484035906
0.7042122731707383	1716542.7547743663
0.7043296418829335	1719206.2049795385
0.7044470301565806	1721870.099093078
0.70456443799494	1724534.4371889674
0.7046818654012724	1727199.2193412078
0.7047993123788394	1729388.8933592152
0.7049167789309024	1731578.3866055608
0.7050342650607243	1733768.2447674507
0.7051517707715678	1735958.4679057
0.7052692960666963	1738149.0560811376
0.705386840949374	1740340.0093546037
0.7055044054228656	1742531.3277869525
0.7056219894904361	1744643.722683656
0.7057395931553511	1746252.5980463924
0.705857216420877	1747861.7415550237
0.7059748592902804	1749471.1532542391
0.7060925217668288	1751080.8331887391
0.70621020385379	1752690.781403228
0.7063279055544321	1754300.9979424172
0.7064456268720246	1755911.4828510322
0.7065633678098366	1757602.182723128
0.7066811283711383	1759513.3386414093
0.7067989085592001	1761424.8130856769
0.7069167083772933	1763336.6061090173
0.7070345278286895	1765248.7177645294
0.707152366916661	1767161.148105318
0.7072702256444803	1769073.8971844942
0.7073881040154211	1770986.9650551865
0.7075060020327569	1773064.3362249478
0.7076239196997625	1775380.871951308
0.7077418570197124	1777697.7937669537
0.7078598139958823	1780015.101736235
0.7079777906315483	1782332.7959235136
0.7080957869299869	1784650.8763931547
0.7082138028944751	1786969.3432095398
0.7083318385282908	1789288.1964370625
0.7084498938347124	1790993.3032981956
0.708567968817018	1792178.0199717497
0.7086860634784875	1793362.9340980842
0.7088041778224007	1794548.0457101073
0.7089223118520377	1795733.3548407308
0.7090404655706796	1796918.8615228755
0.709158638981608	1798104.5657894686
0.709276832088105	1799290.4676734398
0.7093950448934531	1801333.1046809137
0.7095132774009353	1803784.5740891949
0.7096315296138355	1806236.4520757117
0.7097498015354378	1808688.738708559
0.7098680931690269	1811141.4340558427
0.7099864045178884	1813594.5381856873
0.7101047355853081	1816048.0511662196
0.7102230863745722	1818501.9730655807
0.7103414568889679	1820769.1506009237
0.7104598471317828	1822994.1803485106
0.7105782571063047	1825219.580934387
0.7106966868158224	1827445.3524203608
0.710815136263625	1829671.4948682485
0.7109336054530023	1831898.0083398789
0.7110520943872445	1834124.8928970871
0.7111706030696424	1836352.1486017231
0.7112891315034873	1838162.1023863498
0.7114076796920712	1839952.4294420602
0.7115262476386865	1841743.0548856133
0.7116448353466263	1843533.978766739
0.711763442819184	1845325.2011351793
0.711882070059654	1847116.7220406823
0.7120007170713306	1848908.5415330022
0.7121193838575091	1850708.8389496077
0.7122380704214853	1852594.7442928741
0.7123567767665555	1854480.963953696
0.7124755028960166	1856367.4979844622
0.7125942488131658	1858254.3464375655
0.7127130145213015	1860141.5093654161
0.7128318000237216	1862028.9868204156
0.7129506053237256	1863916.7788549934
0.7130694304246129	1865759.10383523
0.7131882753296837	1867441.6669661321
0.7133071400422386	1869124.5105242233
0.7134260245655789	1870807.6345562395
0.7135449289030065	1872491.0391089283
0.7136638530578235	1874174.7242290417
0.7137827970333332	1875858.6899633443
0.7139017608328388	1877542.936358602
0.7140207444596443	1879219.6664499214
0.7141397479170543	1880882.7669012805
0.7142587712083737	1882546.1445360456
0.7143778143369084	1884209.799400418
0.7144968773059646	1885873.7315406015
0.7146159601188489	1887537.9410028078
0.7147350627788687	1889202.427833258
0.7148541852893318	1890867.1920781792
0.7149733276535467	1892135.8190440019
0.7150924898748222	1893004.921684411
0.715211671956468	1893874.1691752602
0.7153308739017941	1894743.5615406919
0.715450095714111	1895613.0988048506
0.71556933739673	1896482.780991887
0.7156885989529628	1897352.6081259544
0.7158078803861218	1898222.580231212
0.7159271816995193	1897761.3812092436
0.7160465028964692	1896518.7058155825
0.7161658439802853	1895275.8233093559
0.7162852049542819	1894032.733656045
0.7164045858217744	1892789.4368211245
0.716523986586078	1891545.9327700655
0.7166434072505089	1890302.221468332
0.716762847818384	1889058.3028813808
0.7168823082930204	1889476.8043640212
0.7170017886777359	1890384.5134993854
0.7171212889758488	1891292.373919605
0.7172408091906781	1892200.3856498948
0.7173603493255433	1893108.5487154736
0.7174799093837642	1894016.8631415626
0.7175994893686615	1894925.3289533895
0.7177190892835562	1895833.9461761848
0.7178387091317702	1900829.5213438033
0.7179583489166254	1906236.174483303
0.7180780086414448	1911643.7287316634
0.7181976883095517	1917052.1842390653
0.7183173879242699	1922461.5411557187
0.718437107488924	1927871.7996318596
0.7185568470068389	1933282.9598177487
0.7186766064813399	1938528.6755215672
0.7187963859157535	1939616.2403625713
0.7189161853134061	1940703.9864643821
0.719036004677625	1941791.9138572102
0.7191558440117378	1942880.0225712694
0.7192757033190732	1943968.3126367829
0.7193955826029597	1945056.7840839725
0.7195154818667269	1946145.4369430707
0.7196354011137046	1947077.4287298687
0.7197553403472235	1947287.4448764157
0.7198752995706147	1947497.4960256538
0.7199952787872098	1947707.5821834167
0.720115278000341	1947917.7033555391
0.7202352972133411	1948127.8595478572
0.7203553364295432	1948338.0507662068
0.7204753956522815	1948548.2770164264
0.7205954748848902	1949462.5511982897
0.7207155741307044	1951929.0630685992
0.7208356933930594	1954395.9860242158
0.7209558326752915	1956863.3201336593
0.7210759919807375	1959331.0654654573
0.7211961713127342	1961799.222088141
0.7213163706746197	1964267.7900702655
0.7214365900697322	1966736.7694803847
0.7215568295014103	1968145.0644134856
0.721677088972994	1968287.5278105496
0.7217973684878227	1968430.014951513
0.7219176680492374	1968572.5258403332
0.7220379876605789	1968715.0604809683
0.722158327325189	1968857.6188773767
0.7222786870464099	1969000.201033518
0.7223990668275843	1969142.806953352
0.7225194666720555	1969937.431409622
0.7226398865831676	1971194.273318558
0.7227603265642646	1972451.3247011423
0.722880786618692	1973708.585592293
0.7230012667497951	1974966.0560269246
0.7231217669609201	1976223.7360399624
0.7232422872554135	1977481.6256663345
0.7233628276366229	1978739.7249409799
0.7234833881078956	1980775.4257319784
0.7236039686725803	1983106.6114845448
0.7237245693340255	1985438.1857680664
0.7238451900955812	1987770.1486473063
0.7239658309605971	1990102.5001870233
0.7240864919324239	1992435.240452
0.7242071730144127	1994768.3695070208
0.724327874209915	1997101.8874168794
0.7244485955222832	1994973.4788443192
0.7245693369548704	1992106.9093851056
0.7246900985110294	1989239.8621643197
0.7248108801941148	1986372.3371023228
0.7249316820074803	1983504.3341194917
0.7250525039544815	1980635.853136159
0.7251733460384739	1977766.8940726616
0.7252942082628137	1974907.5606480008
0.7254150906308574	1977902.2116387258
0.7255359931459625	1980897.3617379495
0.7256569158114868	1983893.0110288574
0.7257778586307888	1986889.1595946485
0.7258988216072273	1989885.8075185332
0.7260198047441617	1992882.9548837352
0.7261408080449525	1995880.6017735032
0.72626183151296	1998660.02058964
0.7263828751515454	1999986.331702806
0.7265039389640706	2001312.8638678242
0.726625022953898	2002639.6171215372
0.7267461271243904	2003966.5915007931
0.7268672514789111	2005293.7870424448
0.7269883960208241	2006621.2037833524
0.7271095607534942	2007948.8417603842
0.7272307456802866	2009106.766362274
0.7273519508045666	2009805.8494493188
0.7274731761297006	2010505.0490502114
0.7275944216590555	2011204.3651843707
0.7277156873959987	2011903.7978712192
0.7278369733438982	2012603.3471301834
0.727958279506122	2013303.0129806888
0.7280796058860397	2014002.7954421702
0.7282009524870207	2013820.3022401938
0.7283223193124353	2012332.6221569625
0.7284437063656539	2010844.6941270537
0.7285651136500483	2009356.5181091377
0.7286865411689898	2007868.094061888
0.7288079889258514	2006379.4219439605
0.7289294569240056	2004890.5017140165
0.7290509451668262	2003401.3333306995
0.7291724536576875	2002440.759085342
0.7292939823999636	2001918.2275455892
0.7294155313970303	2001395.6089172454
0.7295371006522632	2000872.903185797
0.7296586901690385	2000350.110336727
0.7297802999507332	1999827.2303555156
0.7299019300007252	1999304.2632276395
0.7300235803223919	1998781.208938577
0.7301452509191123	1999463.0903603095
0.7302669417942654	2000701.2871790554
0.7303886529512311	2001939.690363938
0.7305103843933897	2003178.299949352
0.7306321361241218	2004417.1159696956
0.7307539081468093	2005656.1384593784
0.7308757004648336	2006895.3674528066
0.7309975130815778	2008134.802984402
0.7311193460004248	2010123.4968351433
0.7312411992247582	2012282.0978878583
0.7313630727579622	2014441.058707415
0.7314849666034219	2016600.3793537768
0.7316068807645224	2018760.0598869121
0.7317288152446498	2020920.1003668036
0.7318507700471907	2023080.500853443
0.7319727451755319	2025241.2614068293
0.732094740633061	2024286.8560837624
0.7322167564231665	2023192.029725788
0.7323387925492371	2022097.020896754
0.7324608490146619	2021001.8295662487
0.732582925822831	2019906.4557038546
0.7327050229771347	2018810.8992791516
0.7328271404809642	2017715.16026171
0.7329492783377112	2016573.8752256618
0.7330714365507675	2014986.429790004
0.7331936151235259	2013398.719780107
0.7333158140593796	2011810.7451518772
0.7334380333617229	2010222.5058612067
0.7335602730339499	2008634.0018639872
0.7336825330794556	2007045.233116101
0.7338048135016354	2005456.1995734267
0.7339271143038857	2004552.139827953
0.734049435489603	2005943.9487079112
0.7341717770621846	2007335.9895560162
0.7342941390250283	2008728.2624109285
0.7344165213815324	2010120.7673113162
0.734538924135096	2011513.504295856
0.7346613472891185	2012906.4734032247
0.734783790847	2014299.6746721116
0.7349062548121412	2014185.8311465126
0.7350287391879431	2011407.7950005597
0.7351512439778078	2008629.2958485764
0.7352737691851374	2005850.3336134045
0.735396314813335	2003070.9082178578
0.7355188808658037	2000291.0195847496
0.7356414673459482	1997510.6676368637
0.7357640742571725	1994729.8522969882
0.7358867016028818	1992753.609183035
0.7360093493864824	1991572.0820425774
0.7361320176113801	1990390.3579809316
0.736254706280982	1989208.4369652753
0.7363774153986956	1988026.3189627817
0.7365001449679286	1986844.0039406233
0.7366228949920899	1985661.4918659602
0.7367456654745885	1984478.7827059515
0.7368684564188344	1983428.6249496422
0.7369912678282374	1982453.318834013
0.7371140997062088	1981477.8501673643
0.7372369520561599	1980502.2189226034
0.7373598248815024	1979526.4250726374
0.7374827181856494	1978550.4685903613
0.7376056319720137	1977574.3494486713
0.7377285662440091	1976598.0676204578
0.7378515210050496	1975109.7047375995
0.7379744962585505	1973467.0731387634
0.738097492007927	1971824.1677679948
0.7382205082565949	1970180.9885796653
0.738343545007971	1968537.535528138
0.7384666022654723	1966893.8085677673
0.7385896800325165	1965249.8076529054
0.7387127783125219	1963605.532737889
0.7388358971089073	1961687.643319045
0.7389590364250921	1959742.0175255763
0.7390821962644963	1957796.067461141
0.7392053766305403	1955849.7930716975
0.7393285775266454	1953903.1943031878
0.7394517989562333	1951956.271101548
0.7395750409227259	1950009.0234127112
0.7396983034295463	1948021.1991573672
0.739821586480118	1945137.607340943
0.7399448900778645	1942253.5349258885
0.7400682142262109	1939368.9818320891
0.740191558928582	1936483.947979444
0.7403149241884034	1933598.4332878257
0.7404383100091014	1930712.4376770915
0.7405617163941028	1927825.9610670905
0.7406851433468352	1924635.8232551645
0.7408085908707264	1920058.1776052827
0.7409320589692048	1915479.7690144614
0.7410555476456997	1910900.597355538
0.7411790569036406	1906320.6625013414
0.7413025867464579	1901739.9643246678
0.7414261371775823	1897158.502698297
0.7415497082004452	1892576.2774949917
0.7416732998184786	1887977.7425940349
0.741796912035115	1883345.0920538765
0.7419205448537874	1878711.669405296
0.7420441982779297	1874077.4745196074
0.742167872310976	1869442.5072681003
0.7422915669563612	1864806.7675220512
0.7424152822175206	1860170.2551527126
0.7425390180978901	1855532.9700313152
0.7426627746009065	1851413.2169191157
0.7427865517300065	1847924.6279572872
0.7429103494886282	1844435.4575639616
0.7430341678802096	1840945.7056422397
0.7431580069081896	1837455.3720951974
0.7432818665760077	1833964.4568258927
0.7434057468871037	1830472.9597373793
0.7435296478449182	1826980.8807326863
0.7436535694528923	1822592.8934682864
0.7437775117144678	1817591.2965944894
0.7439014746330868	1812588.8661212209
0.7440254582121922	1807585.601909536
0.7441494624552276	1802581.5038204805
0.7442734873656368	1797576.5717150779
0.7443975329468645	1792570.8054543203
0.7445215992023557	1787564.2048991865
0.7446456861355559	1781914.008587713
0.7447697937499119	1776026.0943720515
0.7448939220488703	1770137.1988373557
0.7450180710358784	1764247.3218200759
0.7451422407143843	1758356.4631566259
0.7452664310878367	1752464.622683393
0.7453906421596846	1746571.8002367544
0.7455148739333779	1740677.9956530393
0.7456391264123667	1733935.691687649
0.7457633996001021	1727056.7507101614
0.7458876935000356	1720176.6632424984
0.7460120081156189	1713295.429093604
0.7461363434503048	1706413.048072348
0.7462606995075466	1699529.5199875827
0.7463850762907978	1692644.8446481468
0.7465094738035127	1685757.5199248972
0.7466338920491467	1678476.1487077805
0.746758331031155	1671193.563928787
0.7468827907529935	1663909.7653856722
0.7470072712181189	1656624.7528761337
0.7471317724299886	1649338.5261978419
0.7472562943920602	1642051.0851484423
0.7473808371077922	1634762.4295255279
0.7475054005806435	1627341.7016965523
0.7476299848140736	1619113.7066290476
0.7477545898115426	1610884.3402290298
0.7478792155765113	1602653.6022679433
0.7480038621124406	1594421.4925172033
0.7481285294227926	1586188.010748173
0.7482532175110298	1577953.156732173
0.7483779263806148	1569716.930240515
0.7485026560350116	1561260.3020699024
0.7486274064776842	1552209.4707444545
0.748752177712097	1543157.1309471354
0.7488769697417158	1534103.2824264974
0.749001782570006	1525047.924931117
0.7491266162004343	1515991.05820949
0.7492514706364677	1506932.6820100718
0.7493763458815739	1497872.7960812782
0.7495012419392209	1488379.3861377202
0.7496261588128773	1478263.3223026763
0.7497510965060128	1468145.572456986
0.7498760550220971	1458026.1363196587
0.7500010343646007	1447905.01360964
0.7501260345369949	1437782.2040458315
0.750251055542751	1427657.7073471071
0.7503760973853414	1417531.52323226
0.7505011600682389	1406900.5931604542
0.750626243594917	1395847.8491231315
0.7507513479688495	1384793.2629618193
0.7508764731935109	1373736.8343694767
0.7510016192723765	1362678.5630390323
0.7511267862089218	1351618.4486633765
0.7512519740066232	1340556.490935321
0.7513771826689577	1329492.6895476375
0.7515024121994025	1317980.0179283698
0.7516276626014359	1306256.9987643852
0.751752933878536	1294532.0257638937
0.7518782260341824	1282805.0986012318
0.7520035390718548	1271076.216950704
0.7521288729950334	1259345.380486574
0.7522542278071992	1247612.5888830323
0.7523796035118337	1235877.8418142176
0.7525050001124189	1223288.2691586874
0.7526304176124378	1210511.1181344262
0.7527558560153731	1197731.8375850106
0.752881315324709	1184950.4271554912
0.7530067955439299	1172166.8864908954
0.7531322966765205	1159381.215236206
0.7532578187259665	1146593.4130363038
0.7533833616957542	1133803.479536035
0.75350892558937	1120216.3378265859
0.7536345104103016	1106589.5448215967
0.7537601161620366	1092960.480684447
0.7538857428480638	1079329.1450365947
0.7540113904718717	1065695.537499485
0.7541370590369503	1052059.657694456
0.7542627485467898	1038421.5052427838
0.7543884590048808	1024755.0645531393
0.7545141904147151	1010826.9194757559
0.7546399427797842	996896.453040882
0.7547657161035808	982963.6648616001
0.754891510389598	969028.5545509559
0.7550173256413296	955091.1217219208
0.7551431618622698	941151.3659874176
0.7552690190559135	927209.286960295
0.7553948972257561	913123.8383657638
0.7555207963752938	898562.6042531546
0.755646716508023	883998.9432682018
0.755772657627441	869432.8550064131
0.7558986197370455	854864.3390632452
0.756024602840335	840293.3950340905
0.7561506069408084	825720.0225142646
0.7562766320419653	811144.2210990054
0.7564026781473054	796312.632428835
0.75652874526033	781032.7294207935
0.7566548333845401	765750.2797622427
0.7567809425234375	750465.2830287542
0.7569070726805247	735177.7387958189
0.7570332238593047	719887.6466388467
0.7571593960632813	704595.0061331673
0.7572855892959586	689299.8168540694
0.7574118035608413	674423.4870930911
0.7575380388614347	659956.9558438552
0.7576642952012449	645488.0135060721
0.7577905725837782	631016.6596779204
0.7579168710125422	616542.8939574382
0.7580431904910444	602066.7159426638
0.7581695310227928	587588.1252315718
0.7582958926112967	573107.1214220099
0.7584222752600652	558845.3143134156
0.7585486789726085	544708.4368402198
0.7586751037524372	530569.203220773
0.7588015496030628	516427.6130623622
0.7589280165279966	502283.6659722862
0.7590545045307512	488137.3615576952
0.7591810136148396	473988.6994257021
0.7593075437837755	459837.67918333283
0.7594340950410726	446318.0058316273
0.7595606673902461	432979.9403115605
0.7596872608348112	419639.6517805604
0.7598138753782836	406297.1398681531
0.75994051102418	392952.404203748
0.7600671677760173	379605.4444167425
0.7601938456373134	366256.260136429
0.7603205446115863	352904.8509920763
0.7604472647023548	340433.84164596914
0.7605740059131385	328048.4866211553
0.7607007682474575	315661.06737049186
0.7608275517088319	303271.5835499808
0.7609543563007835	290880.0348154722
0.7610811820268336	278486.4208228486
0.7612080288905045	266090.74122791673
0.7613348968953197	253738.53344630188
0.7614617860448022	242318.6012481141
0.7615886963424764	230896.7657278777
0.7617156277918667	219473.026568399
0.7618425803964988	208047.3834523843
0.7619695541598982	196619.83606251996
0.7620965490855914	185190.38408143242
0.7622235651771058	173759.02719166814
0.7623506024379685	162778.82313180182
0.7624776608717082	153782.59195278754
0.7626047404818536	144784.8614019097
0.7627318412719337	135785.63122928882
0.762858963245479	126784.90118496685
0.7629861064060198	117782.67101897002
0.7631132707570876	108778.9404812695
0.7632404563022137	99773.70932182079
0.7633676630449308	91515.13080192279
0.7634948909887717	84847.74627655282
0.7636221401372697	78179.25052043727
0.7637494104939593	71509.64334835611
0.7638767020623748	64838.924575089215
0.7640040148460518	58167.094015352515
0.7641313488485262	51494.151483856105
0.7642587040733344	44820.09679526354
0.7643860805240132	39367.48133887645
0.7645134782041005	35372.827626929095
0.7646408971171346	31377.50813936142
0.764768337266654	27381.522765213944
