#wavelength	surface flux
0.8	16031774.19894783
0.8002000000000001	16082420.423236793
0.8004000500000003	16121225.902201734
0.8006001500125003	16159921.35145606
0.8008003000500035	16198626.474572701
0.8010005001250161	16237341.27397014
0.8012007502500472	16276065.752067374
0.8014010504376099	16317882.393671278
0.8016014007002193	16360742.026861941
0.8018018010503944	16403612.374960903
0.8020022515006572	16446493.440646907
0.8022027520635323	16489385.226599297
0.8024033027515483	16530363.74916276
0.8026039035772362	16569467.084731534
0.8028045545531306	16608580.196134202
0.8030052556917691	16647703.085814739
0.803206007005692	16686835.756217662
0.8034068085074435	16725647.892079728
0.8036076602095705	16763543.801986417
0.8038085621246229	16801449.18587055
0.8040095142651542	16839364.046100684
0.8042105166437206	16877288.38504586
0.8044115692728815	16914895.54754798
0.8046126721651998	16938461.99604153
0.8048138253332411	16962034.33614718
0.8050150287895745	16985612.569337886
0.805216282546772	17009196.697086878
0.8054175866174087	17032786.720867798
0.8056189410140631	17060733.015326712
0.8058203457493168	17089917.7341256
0.8060218008357541	17119109.749104153
0.8062233062859632	17148309.062086463
0.8064248621125346	17177515.674896996
0.806626468328063	17210069.786372893
0.8068281249451449	17245500.86153237
0.8070298319763813	17280940.79446068
0.8072315894343755	17316389.587372195
0.8074333973317341	17351847.242481954
0.8076352556810671	17384256.00870832
0.8078371644949874	17409312.354351673
0.8080391237861113	17434374.964081444
0.8082411335670578	17459443.839463633
0.8084431938504498	17484518.98206469
0.8086453046489125	17509495.924026895
0.8088474659750746	17532534.076706644
0.8090496778415686	17555577.988924596
0.809251940261029	17578627.662120584
0.8094542532460944	17601683.09773489
0.8096566168094059	17624744.297208074
0.8098590309636085	17647727.53427609
0.8100614957213493	17670696.920000322
0.8102640110952797	17693672.04807099
0.8104665770980536	17716652.919923685
0.8106691937423283	17739639.536994353
0.8108718610407639	17765667.622323614
0.8110745790060241	17794023.4716511
0.8112773476507757	17822386.409940947
0.8114801669876885	17850756.438965358
0.8116830370294355	17879133.560497005
0.8118859577886929	17908385.22042791
0.8120889292781401	17939445.912640147
0.8122919515104597	17970514.37002543
0.8124950244983374	18001590.59452506
0.8126981482544621	18032674.588080816
0.8129013227915257	18063902.930535734
0.8131045481222237	18096702.917920884
0.8133078242592543	18129511.10530288
0.8135111512153191	18162327.49473172
0.813714529003123	18195152.088257916
0.8139179576353739	18227984.8879325
0.8141214371247829	18280264.58976568
0.8143249674840641	18336326.851238202
0.814528548725935	18392403.128276058
0.8147321808631167	18448493.424383253
0.8149358639083326	18504597.743064452
0.8151395978743097	18543352.610232465
0.8153433827737784	18570385.672146898
0.8155472186194719	18597425.492326804
0.8157511054241268	18624472.072461747
0.815955043200483	18651525.41424174
0.8161590319612831	18670364.490416422
0.8163630717192736	18674144.242928382
0.8165671624872033	18677924.94037847
0.8167713042778252	18681706.583002917
0.8169754971038948	18685489.171038024
0.8171797409781707	18672244.21769401
0.8173840359134155	18523052.267300863
0.8175883819223938	18373823.01892029
0.8177927790178745	18224556.463227537
0.8179972272126291	18075252.590895817
0.8182017265194322	17925911.39259617
0.8184062769510622	17893359.82058962
0.8186108785203001	17878778.050953362
0.8188155312399301	17864192.635874715
0.8190202351227402	17849603.574442282
0.819224990181521	17835010.865744498
0.8194297964290664	17989696.41865335
0.8196346538781738	18246455.013799228
0.8198395625416434	18503277.798593786
0.8200445224322789	18760164.78908465
0.820249533562887	19017116.001323063
0.8204545959462778	19196226.199768562
0.8206597095952644	19249994.77648538
0.8208648745226633	19303776.79534642
0.8210700907412941	19357572.259712163
0.8212753582639793	19411381.172943946
0.8214806771035456	19458709.60161357
0.8216860472728215	19466039.29990335
0.8218914687846397	19473370.830617707
0.822096941651836	19480704.194214743
0.822302465887249	19488039.391152676
0.8225080415037209	19495376.421889845
0.8227136685140968	19535429.062893216
0.8229193469312254	19579205.41434842
0.8231250767679583	19622992.709891506
0.8233308580371503	19666790.95225845
0.8235366907516598	19710600.144186016
0.8237425749243477	19754841.026971158
0.8239485105680789	19799315.968809992
0.824154497695721	19843802.02938426
0.824360536320145	19888299.21147368
0.8245666264542252	19932807.51785862
0.8247727681108388	19972047.098421007
0.8249789613028664	20003734.74579127
0.8251852060431922	20035430.31507341
0.825391502344703	20067133.80824785
0.8255978502202894	20098845.227295615
0.8258042496828445	20129741.385052912
0.8260107007452654	20156647.390793826
0.8262172034204517	20183560.123036142
0.8264237577213068	20210479.58346153
0.8266303636607373	20237405.773752037
0.8268370212516525	20264338.6955901
0.8270437305069654	20281266.97135171
0.8272504914395923	20297417.154954854
0.8274573040624523	20313571.3761039
0.8276641683884679	20329729.635808222
0.8278710844305652	20345891.935077485
0.8280780522016729	20372958.041583754
0.8282850717147234	20405013.177773375
0.8284921429826521	20437076.32774701
0.8286992660183978	20469147.493508168
0.8289064408349024	20501226.67706074
0.8291136674451112	20530653.385067914
0.8293209458619727	20556732.69844243
0.8295282760984382	20582818.531645253
0.829735658167463	20608910.886306413
0.8299430920820048	20635009.7640562
0.8301505778550254	20661129.04261694
0.8303581154994891	20687310.234541863
0.8305657050283641	20713497.97176479
0.8307733464546212	20739692.25592201
0.8309810397912352	20765893.088650305
0.8311887850511829	20792100.471586734
0.8313965822474458	20834655.113557704
0.8316044313930077	20877978.852848005
0.8318123325008561	20921313.423073173
0.8320202855839813	20964658.82694087
0.8322282906553774	21008015.06715954
0.8324363477280413	21038894.082079973
0.8326444568149735	21064753.166099686
0.8328526179291771	21090618.714890376
0.8330608310836596	21116490.730068304
0.8332690962914304	21142369.21324999
0.8334774135655034	21166211.912922077
0.833685782918895	21187779.309456307
0.8338942043646247	21209352.09783966
0.834102677915716	21230930.279420123
0.834311203585195	21252513.85554596
0.8345197813860912	21278732.04793986
0.8347284113314379	21320539.183567263
0.8349370934342709	21362356.770978544
0.8351458277076294	21404184.81278663
0.8353546141645565	21446023.31160524
0.8355634528180977	21487872.270048536
0.8357723436813022	21484396.391357258
0.8359812867672226	21480359.86826395
0.8361902820889144	21476322.33603987
0.8363993296594368	21472283.794432733
0.8366084294918518	21468244.243190195
0.8368175815992247	21495980.85849663
0.8370267859946247	21534668.79390997
0.8372360426911234	21573366.40130715
0.8374453517017962	21612073.68310618
0.8376547130397217	21650790.641725652
0.8378641267179816	21683142.398139782
0.8380735927496613	21709176.70294372
0.8382831111478488	21735217.516323842
0.8384926819256358	21761264.839907296
0.8387023050961173	21787318.67532167
0.8389119806723914	21812856.440585937
0.8391217086675596	21836929.869256422
0.8393314890947265	21861009.316284057
0.8395413219670003	21885094.783173453
0.8397512072974922	21909186.271429587
0.8399611450993165	21933695.01082993
0.8401711353855914	21978631.326446194
0.8403811781694378	22023578.87614135
0.8405912734639802	22068537.66272394
0.8408014212823464	22113507.6890032
0.8410116216376671	22158488.95778902
0.8412218745430766	22199801.03260474
0.8414321800117124	22240052.56962978
0.8416425380567154	22280314.1695391
0.8418529486912297	22320585.834848408
0.8420634119284025	22360867.568074007
0.8422739277813847	22396257.67532283
0.8424844962633302	22427338.045357093
0.842695117387396	22458426.185483824
0.8429057911667428	22489522.09764559
0.8431165176145345	22520625.783785407
0.8433272967439382	22548653.920522608
0.8435381285681244	22569167.978821814
0.8437490131002665	22589687.165635593
0.8439599503535415	22610211.48224606
0.84417094034113	22630740.929935697
0.8443819830762154	22651538.854645416
0.8445930785719846	22677647.07948781
0.8448042268416277	22703761.831386402
0.8450154278983382	22729883.11197296
0.8452266817553128	22756010.92287967
0.8454379884257517	22782145.265739106
0.8456493479228583	22816389.47457926
0.845860760259839	22852593.62430179
0.846072225449904	22888806.825061753
0.8462837435062666	22925029.079121914
0.8464953144421433	22961260.38874561
0.8467069382707537	22992754.77171519
0.8469186150053215	23020557.679134887
0.847130344659073	23048367.537281446
0.8473421272452377	23076184.347892515
0.8475539627770492	23104008.112706266
0.8477658512677435	23132186.992473897
0.8479777927305605	23161112.186778616
0.8481897871787432	23190044.612381905
0.848401834625538	23218984.271091614
0.8486139350841944	23247931.16471598
0.8488260885679657	23276284.4626532
0.8490382950901076	23297320.915126264
0.8492505546638802	23318362.626712456
0.8494628673025462	23339409.59872654
0.8496752330193721	23360461.832483657
0.8498876518276269	23381519.32929918
0.8501001237405839	23359106.30786095
0.8503126487715191	23328009.153396655
0.850525226933712	23296904.224643767
0.8507378582404455	23265791.51965869
0.8509505427050057	23234671.036497347
0.8511632803406821	23217844.22737662
0.8513760711607672	23210807.08881798
0.8515889151785576	23203768.19097469
0.8518018124073523	23196727.533406943
0.8520147628604541	23189685.11567481
0.8522277665511693	23216276.81811588
0.8524408234928071	23305080.66417634
0.8526539336986805	23393906.711198345
0.8528670971821053	23482754.964732107
0.8530803139564007	23571625.430329148
0.8532935840348901	23658999.57775272
0.8535069074308987	23733570.757993035
0.8537202841577566	23808160.58102847
0.8539337142287962	23882769.05151967
0.8541471976573534	23957396.174128447
0.8543607344567677	24032041.953517888
0.8545743246403821	24075584.494020402
0.8547879682215422	24114195.406679787
0.8550016652135977	24152815.972067334
0.8552154156299011	24191446.192596227
0.8554292194838088	24230086.070680283
0.8556430767886797	24262749.449860096
0.855856987557877	24291786.357320424
0.8560709518047664	24320830.5240076
0.8562849695427177	24349881.95173646
0.8564990407851035	24378940.64232226
0.8567131655452999	24407894.267642293
0.8569273438366862	24436671.075015806
0.8571415756726455	24465455.07659117
0.8573558610665638	24494246.274166938
0.8575702000318304	24523044.66954207
0.8577845925818384	24553416.153771
0.857999038729984	24593576.352035873
0.8582135384896665	24633746.590350304
0.858428091874289	24673926.871224314
0.8586426988972576	24714117.197168533
0.8588573595719821	24754317.57069425
0.8590720739118751	24779881.72915586
0.8592868419303532	24803725.44023214
0.8595016636408359	24827575.112236187
0.8597165390567462	24851430.74665823
0.8599314681915105	24875292.344988883
0.8601464510585584	24878240.66105595
0.860361487671323	24870085.923572578
0.8605765780432408	24861929.147404835
0.8607917221877518	24853770.332043048
0.8610069201182988	24845609.47697742
0.8612221718483286	24626477.044312924
0.8614374773912907	24103148.689869687
0.8616528367606385	23579689.503337987
0.8618682499698288	23056099.452009317
0.8620837170323213	22532378.503167905
0.8622992379615795	22081379.694129884
0.8625148127710699	21990790.06765587
0.8627304414742627	21900177.793775223
0.8629461240846313	21809542.866826095
0.8631618606156526	21718885.281145222
0.8633776510808066	21628205.031067945
0.8635934954935769	22216034.237161282
0.8638093938674504	22859630.906160988
0.8640253462159173	23503388.474327926
0.8642413525524714	24147306.98188689
0.8644574128906095	24791386.46907261
0.8646735272438323	24818401.40327157
0.8648896956256433	24558396.097316135
0.8651059180495498	24298325.79003419
0.8653221945290621	24038190.465175677
0.8655385250776946	23777990.106485587
0.8657549097089641	23719022.05746454
0.8659713484363913	23917744.137188908
0.8661878412735006	24116515.8974333
0.866404388233819	24315337.35061772
0.8666209893308775	24514208.50916535
0.8668376445782103	24678344.846395932
0.8670543539893549	24700548.85557656
0.8672711175778525	24722758.415759496
0.8674879353572469	24744973.528332457
0.8677048073410862	24767194.194683567
0.8679217335429217	24789420.41620128
0.8681387139763074	24857400.424991395
0.8683557486548015	24927670.084331855
0.8685728375919655	24997957.311087232
0.8687899808013633	25068262.109649148
0.8690071782965637	25138584.484410793
0.869224430091138	25112644.42246745
0.8694417361986609	25047521.658181626
0.8696590966327107	24982382.61320474
0.869876511406869	24917227.28346661
0.8700939805347206	24852055.664896075
0.8703115040298544	24804205.627510883
0.870529081905862	24776165.833361372
0.8707467141763385	24748119.029263332
0.8709644008548827	24720065.21346427
0.8711821419550964	24692004.384211276
0.8713999374905854	24690328.012978785
0.871617787474958	24779737.35357672
0.8718356919218269	24869169.046509884
0.8720536508448075	24958623.09736629
0.8722716642575187	25048099.511735354
0.8724897321735832	25137598.29520805
0.8727078546066265	25210062.71917381
0.8729260315702784	25282285.77036573
0.873144263078171	25354526.87732037
0.8733625491439405	25426786.044551756
0.8735808897812266	25499063.276574977
0.8737992850036719	25517478.56028143
0.874017734824923	25516815.03150295
0.8742362392586293	25516151.336842276
0.874454798318444	25515487.47625794
0.8746734120180236	25514823.449708454
0.8748920803710283	25528839.402153738
0.875110803391121	25557611.005490545
0.8753295810919689	25586389.801728204
0.875548413487242	25615175.79266492
0.8757673005906139	25643968.980099373
0.8759862424157616	25705715.193491865
0.8762052389763657	25862807.150578383
0.8764242902861098	26019938.380654063
0.8766433963586814	26177108.893537305
0.8768625572077712	26334318.699048813
0.8770817728470732	26490293.232730173
0.8773010432902849	26546791.21619513
0.8775203685511077	26603303.324156035
0.8777397486432454	26659829.56014386
0.8779591835804065	26716369.927690748
0.8781786733763015	26772924.43032945
0.8783982180446457	26631074.170130037
0.878617817599157	26430162.532913484
0.8788374720535569	26229200.66778772
0.8790571814215703	26028188.562195726
0.8792769457169257	25827126.20357733
0.879496764953355	25722931.82932624
0.8797166391445934	25705847.278898038
0.8799365683043796	25688758.45733223
0.8801565524464557	25671665.36356103
0.8803765915845676	25654567.996516373
0.8805966857324639	25687578.363563575
0.880816834903897	25846463.325422917
0.881037039112623	26005388.008522786
0.8812572983724012	26164352.42279342
0.8814776126969944	26323356.578167684
0.8816979821001687	26479560.160680354
0.8819184065956938	26568941.09139351
0.8821388861973429	26658344.36733944
0.8823594209188923	26747769.994104266
0.882580010774122	26837217.977275748
0.8828006557768155	26926688.322443068
0.8830213559407598	27063482.03574158
0.8832421112797452	27212206.629244566
0.8834629218075651	27360968.40389584
0.8836837875380171	27509767.368990824
0.8839047084849018	27658603.533827104
0.884125684662023	27595267.553646274
0.8843467160831886	27361857.044446066
0.8845678027622095	27128388.182618562
0.8847889447129001	26894860.953575555
0.8850101419490785	26661275.34272533
0.8852313944845657	26604190.980534166
0.885452702333187	26933559.755134072
0.8856740655087704	27263010.87192758
0.8858954840251476	27592544.3515002
0.8861169578961539	27922160.214442555
0.886338487135628	28215078.526410997
0.886560071757412	28018624.244529657
0.8867817117753515	27822120.849077847
0.8870034072032955	27625568.327777088
0.8872251580550963	27428966.668346234
0.8874469643446101	27232315.8585004
0.8876688260856963	27314422.53118267
0.8878907432922178	27454252.338879395
0.8881127159780409	27594117.104027953
0.8883347441570356	27734016.835367966
0.8885568278430749	27873951.54164067
0.8887789670500358	27902889.34062695
0.8890011617917983	27853071.27690148
0.8892234120822464	27803240.758660056
0.8894457179352669	27753397.78278911
0.8896680793647509	27703542.34617416
0.8898904963845921	27674230.59034626
0.8901129690086883	27684133.17166153
0.8903354972509405	27694038.228622124
0.8905580811252535	27703945.761846967
0.8907807206455347	27713855.771955103
0.8910034158256963	27715388.483344052
0.8912261666796527	27642031.820601106
0.8914489732213227	27568656.818692453
0.8916718354646282	27495263.47303325
0.8918947534234944	27421851.779037707
0.8921177271118502	27348421.732118707
0.8923407565436284	27371266.576104674
0.8925638417327644	27409825.17845512
0.8927869826931977	27448393.42045617
0.8930101794388711	27486971.304517716
0.8932334319837308	27525558.83305027
0.8934567403417267	27621433.12765569
0.8936801045268123	27752922.37803351
0.8939035245529441	27884444.50072384
0.8941270004340824	28015999.50394489
0.894350532184191	28147587.39591671
0.8945741198172371	28290774.487079594
0.8947977633471915	28453178.707572438
0.8950214627880284	28615623.5291204
0.8952452181537254	28778108.96187365
0.8954690294582639	28940635.015985187
0.8956928967156286	29084200.693932522
0.8959168199398075	29104492.492168628
0.8961407991447926	29124789.363354295
0.8963648343445789	29145091.30875776
0.896588925553165	29165398.329647563
0.8968130727845534	29185710.427292593
0.8970372760527496	29229979.630253367
0.8972615353717629	29277256.781478595
0.8974858507556059	29324545.751991633
0.8977102222182949	29371846.54474729
0.8979346497738496	29419159.162701156
0.8981591334362931	29482961.084275533
0.8983836732196523	29555790.100218862
0.8986082691379572	29628637.323416136
0.8988329212052417	29701502.758419205
0.8990576294355432	29774386.409781087
0.8992823938429022	29786298.11264891
0.8995072144413631	29707528.162197668
0.8997320912449734	29628738.519258842
0.8999570242677847	29549929.178909294
0.9001820135238516	29471100.136224657
0.9004070590272328	29416072.86777735
0.9006321607919896	29485912.17553863
0.9008573188321878	29555768.943126917
0.9010825331618959	29625643.17490707
0.9013078037951865	29695534.87524518
0.9015331307461353	29765444.048508335
0.9017585140288219	29865789.75963401
0.9019839536573292	29968780.62972041
0.9022094496457435	30071797.24752425
0.9024350020081551	30174839.619482663
0.9026606107586572	30277907.752034027
0.902886275911347	30355692.867496762
0.9031119974803249	30421296.833637346
0.9033377754796951	30486917.200769465
0.903563609923565	30552553.97299334
0.903789500826046	30618207.154410314
0.9040154482012526	30640870.408997834
0.904241452063303	30607828.3708531
0.9044675124263188	30574778.07219884
0.9046936293044254	30541719.510969922
0.9049198027117517	30508652.685100682
0.9051460326624297	30495243.926443957
0.9053723191705955	30565575.64052116
0.9055986622503881	30635924.937526815
0.9058250619159507	30706291.821856726
0.9060515181814298	30776676.297907762
0.9062780310609752	30847078.370077763
0.9065046005687405	30888214.954999603
0.906731226718883	30927728.207177192
0.9069579095255627	30967251.337667778
0.907184649002944	31006784.34894099
0.907411445165195	31046327.24346706
0.9076382980264862	31055770.59936885
0.907865207600993	31052711.92794325
0.9080921739028933	31049652.491849795
0.9083191969463691	31046592.290897314
0.9085462767456058	31043531.324894596
0.9087734133147922	31087058.36871828
0.9090006066681211	31184406.906985253
0.909227856819788	31281779.78238666
0.9094551637839932	31379177.001007054
0.9096825275749393	31476598.56893207
0.9099099482068329	31554678.39240689
0.9101374256938848	31563950.28119806
0.9103649600503083	31573224.487961423
0.9105925512903209	31582501.013276473
0.9108201994281437	31591779.857722864
0.9110479044780008	31601061.021880355
0.9112756664541204	31649011.824504763
0.911503485370734	31697859.702925988
0.9117313612420768	31746719.793316822
0.9119592940823873	31795592.098730236
0.912187283905908	31844476.62222002
0.9124153307268845	31850859.960267853
0.9126434345595664	31841815.0125396
0.9128715954182063	31832767.80357442
0.9130998133170609	31823718.332806993
0.9133280882703902	31814666.599671878
0.913556420292458	31814773.58534551
0.9137848093975312	31824328.453501653
