#wavelength	surface flux
0.8	1134929.0484184967
0.8002000000000001	1139233.9819400832
0.8004000500000003	1144004.6623272246
0.8006001500125003	1148781.2290153604
0.8008003000500035	1153558.9898451683
0.8010005001250161	1158337.9451151858
0.8012007502500472	1163118.0951240142
0.8014010504376099	1167035.4384268671
0.8016014007002193	1170664.3468776979
0.8018018010503944	1174294.162555641
0.8020022515006572	1177924.8856875056
0.8022027520635323	1181556.5165001499
0.8024033027515483	1185202.0633935628
0.8026039035772362	1188861.269176335
0.8028045545531306	1192521.3897605534
0.8030052556917691	1196182.4253749193
0.803206007005692	1199844.3762481858
0.8034068085074435	1203663.562114179
0.8036076602095705	1207921.8892788317
0.8038085621246229	1212181.281025272
0.8040095142651542	1216441.737619652
0.8042105166437206	1220703.259328179
0.8044115692728815	1224945.7877289641
0.8046126721651998	1228326.6172428764
0.8048138253332411	1231708.2919641647
0.8050150287895745	1235090.8121041362
0.805216282546772	1238474.177874142
0.8054175866174087	1241858.3894855885
0.8056189410140631	1245272.1867815298
0.8058203457493168	1248694.9727065489
0.8060218008357541	1252118.614328045
0.8062233062859632	1255543.1118599477
0.8064248621125346	1258968.4655162313
0.806626468328063	1262845.7226267122
0.8068281249451449	1267111.343958856
0.8070298319763813	1271378.031696338
0.8072315894343755	1275645.7861057513
0.8074333973317341	1279914.6074537684
0.8076352556810671	1283326.9688748296
0.8078371644949874	1284675.9723876282
0.8080391237861113	1286025.3131513053
0.8082411335670578	1287374.9912501725
0.8084431938504498	1288725.0067685659
0.8086453046489125	1290042.9822039527
0.8088474659750746	1290758.4744726275
0.8090496778415686	1291474.1456143705
0.809251940261029	1292189.9956738984
0.8094542532460944	1292906.0246959417
0.8096566168094059	1293622.2327252398
0.8098590309636085	1295067.5891306254
0.8100614957213493	1296683.9280976523
0.8102640110952797	1298300.6711494213
0.8104665770980536	1299917.8183869538
0.8106691937423283	1301535.3699112963
0.8108718610407639	1303627.7652114076
0.8110745790060241	1306083.4625086715
0.8112773476507757	1308539.7737302622
0.8114801669876885	1310996.6990296575
0.8116830370294355	1313454.2385603762
0.8118859577886929	1315558.7452846623
0.8120889292781401	1316929.2374550356
0.8122919515104597	1318300.0722484512
0.8124950244983374	1319671.2497505653
0.8126981482544621	1321042.7700470546
0.8129013227915257	1322502.3110319304
0.8131045481222237	1324966.1412118208
0.8133078242592543	1327430.5873492565
0.8135111512153191	1329895.649598226
0.813714529003123	1332361.328112758
0.8139179576353739	1334827.623046919
0.8141214371247829	1344980.734361296
0.8143249674840641	1356626.8673764707
0.814528548725935	1368275.911924892
0.8147321808631167	1379927.8687344661
0.8149358639083326	1391582.7385332393
0.8151395978743097	1399061.5868405057
0.8153433827737784	1403718.8408996898
0.8155472186194719	1408377.2592723873
0.8157511054241268	1413036.8422496768
0.815955043200483	1417697.5901227137
0.8161590319612831	1421717.5620752918
0.8163630717192736	1424562.2601908995
0.8165671624872033	1427407.669481033
0.8167713042778252	1430253.7901234915
0.8169754971038948	1433100.6222961124
0.8171797409781707	1435624.5872781891
0.8173840359134155	1435565.9526887245
0.8175883819223938	1435507.3034406127
0.8177927790178745	1435448.6395301889
0.8179972272126291	1435389.9609537872
0.8182017265194322	1435331.2677077416
0.8184062769510622	1440360.017221074
0.8186108785203001	1446172.9083225299
0.8188155312399301	1451987.252646753
0.8190202351227402	1457803.0505570641
0.819224990181521	1463620.302416849
0.8194297964290664	1468947.432561158
0.8196346538781738	1473979.59790882
0.8198395625416434	1479013.021297817
0.8200445224322789	1484047.7030426632
0.820249533562887	1489083.643457944
0.8204545959462778	1493739.4984127958
0.8206597095952644	1497782.7537412457
0.8208648745226633	1501827.0198835307
0.8210700907412941	1505872.297092351
0.8212753582639793	1509918.585620469
0.8214806771035456	1512680.423948099
0.8216860472728215	1507522.9420796558
0.8218914687846397	1502364.170840745
0.822096941651836	1497204.1099090222
0.822302465887249	1492042.7589620692
0.8225080415037209	1486880.1176773768
0.8227136685140968	1491996.7072084
0.8229193469312254	1498281.6299361903
0.8231250767679583	1504568.123894665
0.8233308580371503	1510856.1894766255
0.8235366907516598	1517145.8270749864
0.8237425749243477	1524057.5072073604
0.8239485105680789	1531299.7753333251
0.824154497695721	1538543.8540263171
0.824360536320145	1545789.7437389835
0.8245666264542252	1553037.4449240777
0.8247727681108388	1559480.8980687815
0.8249789613028664	1564771.532495138
0.8251852060431922	1570063.4895801053
0.825391502344703	1575356.7696543417
0.8255978502202894	1580651.3730486014
0.8258042496828445	1585608.274714343
0.8260107007452654	1588919.9149751356
0.8262172034204517	1592232.3831459903
0.8264237577213068	1595545.6794338885
0.8266303636607373	1598859.80404586
0.8268370212516525	1602174.757188983
0.8270437305069654	1601850.9888689776
0.8272504914395923	1601242.7324126225
0.8274573040624523	1600634.323892153
0.8276641683884679	1600025.7632695544
0.8278710844305652	1599417.050506799
0.8280780522016729	1602048.8022378255
0.8282850717147234	1606162.4917864525
0.8284921429826521	1610277.2097574626
0.8286992660183978	1614392.9564079684
0.8289064408349024	1618509.7319951341
0.8291136674451112	1621205.8769907684
0.8293209458619727	1622110.054271675
0.8295282760984382	1623014.4575969004
0.829735658167463	1623919.0870229583
0.8299430920820048	1624823.9426063714
0.8301505778550254	1625870.05302302
0.8303581154994891	1627479.3114855646
0.8305657050283641	1629088.9722627262
0.8307733464546212	1630699.035455081
0.8309810397912352	1632309.5011632363
0.8311887850511829	1633920.3694878158
0.8313965822474458	1642560.4820630853
0.8316044313930077	1651529.0003828763
0.8318123325008561	1660499.7608322557
0.8320202855839813	1669472.7639717427
0.8322282906553774	1678448.0103620156
0.8324363477280413	1682533.89210267
0.8326444568149735	1684651.4510042046
0.8328526179291771	1686769.5392954624
0.8330608310836596	1688888.157108796
0.8332690962914304	1691007.3045765802
0.8334774135655034	1692662.3942669418
0.833685782918895	1693798.9381636968
0.8338942043646247	1694935.7661964253
0.834102677915716	1696072.878436163
0.834311203585195	1697210.2749539595
0.8345197813860912	1699941.618548498
0.8347284113314379	1708038.0627531123
0.8349370934342709	1716136.531068773
0.8351458277076294	1724237.024001503
0.8353546141645565	1732339.5420574797
0.8355634528180977	1740444.0857429667
0.8357723436813022	1733720.9209372292
0.8359812867672226	1726812.965903989
0.8361902820889144	1719903.2838819937
0.8363993296594368	1712991.8744394912
0.8366084294918518	1706078.7371446255
0.8368175815992247	1709999.5179715084
0.8370267859946247	1717653.1869104286
0.8372360426911234	1725308.769266581
0.8374453517017962	1732966.2655183214
0.8376547130397217	1740625.6761441242
0.8378641267179816	1745885.2355672955
0.8380735927496613	1748762.933612334
0.8382831111478488	1751641.3510818824
0.8384926819256358	1754520.4881557964
0.8387023050961173	1757400.3450139815
0.8389119806723914	1760225.588900391
0.8391217086675596	1762895.814135298
0.8393314890947265	1765566.7069265116
0.8395413219670003	1768238.2674409233
0.8397512072974922	1770910.4958454655
0.8399611450993165	1773714.1207398507
0.8401711353855914	1783010.3737907992
0.8403811781694378	1792308.950905008
0.8405912734639802	1801609.8526634974
0.8408014212823464	1810913.0796474312
0.8410116216376671	1820218.6324381095
0.8412218745430766	1828134.0453135858
0.8414321800117124	1835646.2830814074
0.8416425380567154	1843160.3989086745
0.8418529486912297	1850676.3932649004
0.8420634119284025	1858194.2666197089
0.8422739277813847	1862884.2335758808
0.8424844962633302	1865082.2218687378
0.842695117387396	1867280.7596586654
0.8429057911667428	1869479.8470830405
0.8431165176145345	1871679.4842792726
0.8433272967439382	1874135.8671347878
0.8435381285681244	1877217.796563348
0.8437490131002665	1880300.4964742647
0.8439599503535415	1883383.967060157
0.84417094034113	1886468.2085136983
0.8443819830762154	1889629.219287258
0.8445930785719846	1894322.011751182
0.8448042268416277	1899015.977413219
0.8450154278983382	1903711.1165666708
0.8452266817553128	1908407.429504911
0.8454379884257517	1913104.916521386
0.8456493479228583	1917958.875620096
0.845860760259839	1922851.445763698
0.846072225449904	1927745.239049836
0.8462837435062666	1932640.2557842967
0.8464953144421433	1937536.496272944
0.8467069382707537	1941379.0360753792
0.8469186150053215	1944400.2550716277
0.847130344659073	1947422.229372626
0.8473421272452377	1950444.9591671966
0.8475539627770492	1953468.444644219
0.8477658512677435	1956914.6315820839
0.8479777927305605	1961257.6259632553
0.8481897871787432	1965601.7060930212
0.848401834625538	1969946.8722428216
0.8486139350841944	1974293.124684157
0.8488260885679657	1978540.9763781342
0.8490382950901076	1981577.1750385007
0.8492505546638802	1984614.1327485337
0.8494628673025462	1987651.8496979934
0.8496752330193721	1990690.3260766948
0.8498876518276269	1993729.5620744869
0.8501001237405839	1992010.5919674921
0.8503126487715191	1989341.2189406292
0.850525226933712	1986671.1785705108
0.8507378582404455	1984000.4706903
0.8509505427050057	1981329.0951331176
0.8511632803406821	1980512.9557754628
0.8513760711607672	1980967.5668055401
0.8515889151785576	1981422.2914883755
0.8518018124073523	1981877.1298523813
0.8520147628604541	1982332.0819259777
0.8522277665511693	1986027.9145326456
0.8524408234928071	1995718.0775507372
0.8526539336986805	2005410.663109586
0.8528670971821053	2015105.6718148252
0.8530803139564007	2024803.1042722291
0.8532935840348901	2034386.1115712882
0.8535069074308987	2042984.6607453017
0.8537202841577566	2051585.3595566163
0.8539337142287962	2060188.2085426345
0.8541471976573534	2068793.208240894
0.8543607344567677	2077400.3591890794
0.8545743246403821	2083153.5069166715
0.8547879682215422	2088454.5028716496
0.8550016652135977	2093756.8240756155
0.8552154156299011	2099060.470859883
0.8554292194838088	2104365.44355585
0.8556430767886797	2108834.0981936743
0.855856987557877	2112795.274498901
0.8560709518047664	2116757.4410982016
0.8562849695427177	2120720.598239153
0.8564990407851035	2124684.7461693916
0.8567131655452999	2128644.0660971655
0.8569273438366862	2132594.8411645927
0.8571415756726455	2136546.603925787
0.8573558610665638	2140499.3546276735
0.8575702000318304	2144453.093517231
0.8577845925818384	2148469.8179943697
0.857999038729984	2152874.8037093203
0.8582135384896665	2157280.8906706986
0.858428091874289	2161688.0791538176
0.8586426988972576	2166096.3694340563
0.8588573595719821	2170505.7617868665
0.8590720739118751	2174208.4001645157
0.8592868419303532	2177828.505826182
0.8595016636408359	2181449.5165142636
0.8597165390567462	2185071.4324550163
0.8599314681915105	2188694.253874755
0.8601464510585584	2191799.7110659266
0.860361487671323	2194630.8505583373
0.8605765780432408	2197462.6978356196
0.8607917221877518	2200295.253074724
0.8610069201182988	2203128.5164526375
0.8612221718483286	2200550.9566663373
0.8614374773912907	2190171.2975184508
0.8616528367606385	2179789.04345578
0.8618682499698288	2169404.193829587
0.8620837170323213	2159016.7479909896
0.8622992379615795	2150612.617811475
0.8625148127710699	2152033.906823597
0.8627304414742627	2153455.551157972
0.8629461240846313	2154877.5509034307
0.8631618606156526	2156299.906148826
0.8633776510808066	2157722.6169830323
0.8635934954935769	2174887.7433424676
0.8638093938674504	2193347.5661008465
0.8640253462159173	2211812.0038149147
0.8642413525524714	2230281.057638411
0.8644574128906095	2248754.7287253593
0.8646735272438323	2252563.3834594297
0.8648896956256433	2249551.203712548
0.8651059180495498	2246538.2709207293
0.8653221945290621	2243524.5848957156
0.8655385250776946	2240510.1454491913
0.8657549097089641	2242946.8866401184
0.8659713484363913	2252363.911326367
0.8661878412735006	2261783.2902687914
0.866404388233819	2271205.02405595
0.8666209893308775	2280629.113276551
0.8668376445782103	2288799.572377486
0.8670543539893549	2291845.757058407
0.8672711175778525	2294892.7032855004
0.8674879353572469	2297940.411249147
0.8677048073410862	2300988.8811397855
0.8679217335429217	2304038.1131478986
0.8681387139763074	2308436.510707198
0.8683557486548015	2312902.99310365
0.8685728375919655	2317370.5921207066
0.8687899808013633	2321839.308037508
0.8690071782965637	2326309.1411332935
0.869224430091138	2330718.7868399443
0.8694417361986609	2335104.590093107
0.8696590966327107	2339491.4897970823
0.869876511406869	2343879.4862259836
0.8700939805347206	2348268.57965399
0.8703115040298544	2352821.8769260985
0.870529081905862	2357562.790517862
0.8707467141763385	2362304.8893380216
0.8709644008548827	2367048.173682886
0.8711821419550964	2371792.643848834
0.8713999374905854	2376592.337412504
0.871617787474958	2381579.7323022685
0.8718356919218269	2386568.374040759
0.8720536508448075	2391558.2629396855
0.8722716642575187	2396549.3993108333
0.8724897321735832	2401541.783466076
0.8727078546066265	2405756.133627981
0.8729260315702784	2409959.6819405053
0.873144263078171	2414164.2811401035
0.8733625491439405	2418369.9314895016
0.8735808897812266	2422576.6332514887
0.8737992850036719	2424401.41669812
0.874017734824923	2425382.647552506
0.8742362392586293	2426364.1237146053
0.874454798318444	2427345.845245745
0.8746734120180236	2428327.8122072676
0.8748920803710283	2430289.5361247547
0.875110803391121	2433236.066160322
0.8753295810919689	2436183.3328284
0.875548413487242	2439131.3363131452
0.8757673005906139	2442080.0767987613
0.8759862424157616	2446346.359711509
0.8762052389763657	2454423.947306358
0.8764242902861098	2462503.5542981
0.8766433963586814	2470585.181191592
0.8768625572077712	2478668.8284918102
0.8770817728470732	2486691.7333988133
0.8773010432902849	2489816.2435411946
0.8775203685511077	2492941.534811116
0.8777397486432454	2496067.607403851
0.8779591835804065	2499194.461514738
0.8781786733763015	2502322.0973391486
0.8783982180446457	2501231.1313277786
0.878617817599157	2498884.704777171
0.8788374720535569	2496537.6916199266
0.8790571814215703	2494190.0917093935
0.8792769457169257	2491841.904898883
0.879496764953355	2489078.5256320196
0.8797166391445934	2485941.698025293
0.8799365683043796	2482804.086211665
0.8801565524464557	2479665.6899950835
0.8803765915845676	2476526.509179445
0.8805966857324639	2478217.9557804638
0.880816834903897	2492044.884321263
0.881037039112623	2505875.2695942027
0.8812572983724012	2519709.11246346
0.8814776126969944	2533546.41379344
0.8816979821001687	2547019.895094195
0.8819184065956938	2551850.926939039
0.8821388861973429	2556683.166541849
0.8823594209188923	2561516.614204555
0.882580010774122	2566351.2702291743
0.8828006557768155	2571187.1349178026
0.8830213559407598	2576118.509455103
0.8832421112797452	2581074.834465211
0.8834629218075651	2586032.3985565677
0.8836837875380171	2590991.2020389494
0.8839047084849018	2595951.2452222025
0.884125684662023	2596714.7819329207
0.8843467160831886	2594114.5518353498
0.8845678027622095	2591513.671680255
0.8847889447129001	2588912.14130512
0.8850101419490785	2586309.9605473927
0.8852313944845657	2587785.736477288
0.885452702333187	2598189.452339892
0.8856740655087704	2608595.7691314598
0.8858954840251476	2619004.687502223
0.8861169578961539	2629416.208102574
0.886338487135628	2638710.5549626034
0.886560071757412	2633105.9023663653
0.8867817117753515	2627499.848606978
0.8870034072032955	2621892.3933341485
0.8872251580550963	2616283.5361975073
0.8874469643446101	2610673.2768465783
0.8876688260856963	2616830.36816594
0.8878907432922178	2625424.693065523
0.8881127159780409	2634021.166546325
0.8883347441570356	2642619.7891455083
0.8885568278430749	2651220.561400332
0.8887789670500358	2657183.860534211
0.8890011617917983	2661276.1712821876
0.8892234120822464	2665369.5051078526
0.8894457179352669	2669463.862266971
0.8896680793647509	2673559.243015382
0.8898904963845921	2675346.846758205
0.8901129690086883	2672729.644604369
0.8903354972509405	2670111.7881499953
0.8905580811252535	2667493.277231506
0.8907807206455347	2664874.1116852905
0.8910034158256963	2661666.577983321
0.8912261666796527	2653205.869296276
0.8914489732213227	2644743.0454320563
0.8916718354646282	2636278.105861862
0.8918947534234944	2627811.0500567844
0.8921177271118502	2619341.87748776
0.8923407565436284	2609908.4658667436
0.8925638417327644	2600315.7476726416
0.8927869826931977	2590720.6312989886
0.8930101794388711	2581123.1161462422
0.8932334319837308	2571523.2016147096
0.8934567403417267	2564851.8451182186
0.8936801045268123	2560000.066170252
0.8939035245529441	2555147.074277552
0.8941270004340824	2550292.8691368764
0.894350532184191	2545437.450444917
0.8945741198172371	2555448.959296406
0.8947977633471915	2590120.01000667
0.8950214627880284	2624799.7284796103
0.8952452181537254	2659488.116882148
0.8954690294582639	2694185.177381808
0.8956928967156286	2724655.663202009
0.8959168199398075	2727648.5097090965
0.8961407991447926	2730642.104427811
0.8963648343445789	2733636.4475452057
0.896588925553165	2736631.5392483776
0.8968130727845534	2739627.379724476
0.8970372760527496	2738658.321504536
0.8972615353717629	2737192.8386374386
0.8974858507556059	2735726.989399624
0.8977102222182949	2734260.7736995
0.8979346497738496	2732794.1914454508
0.8981591334362931	2748821.7767423685
0.8983836732196523	2774420.718329172
0.8986082691379572	2800026.0596513553
0.8988329212052417	2825637.8023088695
0.8990576294355432	2851255.94790207
0.8992823938429022	2868585.6579523943
0.8995072144413631	2873586.3273450695
0.8997320912449734	2878588.246905091
0.8999570242677847	2883591.4169450016
0.9001820135238516	2888595.8377774223
0.9004070590272328	2893484.7002274333
0.9006321607919896	2897762.429707834
0.9008573188321878	2902041.228620609
0.9010825331618959	2906321.09723311
0.9013078037951865	2910602.035812765
0.9015331307461353	2914884.0446270625
0.9017585140288219	2921743.063246587
0.9019839536573292	2928825.668949762
0.9022094496457435	2935910.045304358
0.9024350020081551	2942996.1927530505
0.9026606107586572	2950084.111738603
0.902886275911347	2961173.7190365093
0.9031119974803249	2974194.3368284907
0.9033377754796951	2987218.2097749203
0.903563609923565	3000245.3386895806
0.903789500826046	3013275.7243864783
0.9040154482012526	3022281.6806665114
0.904241452063303	3026072.371586199
0.9044675124263188	3029864.010178616
0.9046936293044254	3033656.59668068
0.9049198027117517	3037450.131329371
0.9051460326624297	3041768.4980148193
0.9053723191705955	3048318.762761
0.9055986622503881	3054870.6650733617
0.9058250619159507	3061424.205361301
0.9060515181814298	3067979.384034317
0.9062780310609752	3074536.2015019967
0.9065046005687405	3065182.52820684
0.906731226718883	3054938.825806976
0.9069579095255627	3044692.562481525
0.907184649002944	3034443.7375902417
0.907411445165195	3024192.350492725
0.9076382980264862	3033697.1087059053
0.907865207600993	3051409.9980115867
0.9080921739028933	3069127.3155395896
0.9083191969463691	3086849.0623969715
0.9085462767456058	3104575.2396910763
0.9087734133147922	3116363.8527380712
0.9090006066681211	3121292.3341468084
0.909227856819788	3126222.047675891
0.9094551637839932	3131152.9936333625
0.9096825275749393	3136085.172327322
0.9099099482068329	3141679.871935641
0.9101374256938848	3149626.1987742316
0.9103649600503083	3157574.5121945287
0.9105925512903209	3165524.812693179
0.9108201994281437	3173477.1007669624
0.9110479044780008	3181431.376912755
0.9112756664541204	3189119.5755734732
0.911503485370734	3196803.5602991357
0.9117313612420768	3204489.466020979
0.9119592940823873	3212177.2932192506
0.912187283905908	3219867.0423743245
0.9124153307268845	3212623.532287826
0.9126434345595664	3199957.6133591826
0.9128715954182063	3187288.5279508187
0.9130998133170609	3174616.2752710963
0.9133280882703902	3161940.854528205
0.913556420292458	3160842.598181062
0.9137848093975312	3171687.0359397447
