#wavelength	surface flux
0.8	966402.2890607046
0.8002000000000001	979230.0197688824
0.8004000500000003	994236.3702954672
0.8006001500125003	1009268.4462217329
0.8008003000500035	1024304.2801669812
0.8010005001250161	1039343.8730707228
0.8012007502500472	1054387.2258726687
0.8014010504376099	1067082.7928603326
0.8016014007002193	1078993.8374535323
0.8018018010503944	1090907.8598078801
0.8020022515006572	1102824.860667822
0.8022027520635323	1114744.8407779685
0.8024033027515483	1127248.0543592968
0.8026039035772362	1140323.0195364652
0.8028045545531306	1153401.2534549285
0.8030052556917691	1166482.756931878
0.803206007005692	1179567.530784685
0.8034068085074435	1193388.9223304337
0.8036076602095705	1209269.447032706
0.8038085621246229	1225153.9418661415
0.8040095142651542	1241042.407823295
0.8042105166437206	1256934.8458969325
0.8044115692728815	1272764.2896737796
0.8046126721651998	1285717.304678303
0.8048138253332411	1298673.557936567
0.8050150287895745	1311633.050258158
0.805216282546772	1324595.7824528257
0.8054175866174087	1337561.7553305351
0.8056189410140631	1350993.6894791403
0.8058203457493168	1364559.9613196866
0.8060218008357541	1378129.6247281753
0.8062233062859632	1391702.6805525231
0.8064248621125346	1405279.1296408176
0.806626468328063	1421353.2096814092
0.8068281249451449	1439573.5559492528
0.8070298319763813	1457798.4573036856
0.8072315894343755	1476027.9148834436
0.8074333973317341	1494261.929827603
0.8076352556810671	1508237.2161157962
0.8078371644949874	1511953.5521419602
0.8080391237861113	1515670.8172521316
0.8082411335670578	1519389.0116785783
0.8084431938504498	1523108.1356536355
0.8086453046489125	1526715.3960011373
0.8088474659750746	1528223.5469756713
0.8090496778415686	1529732.074987951
0.809251940261029	1531240.9801322324
0.8094542532460944	1532750.2625028014
0.8096566168094059	1534259.9221939612
0.8098590309636085	1539219.3128733684
0.8100614957213493	1544987.2927692244
0.8102640110952797	1550756.7146600548
0.8104665770980536	1556527.5789063603
0.8106691937423283	1562299.8858687296
0.8108718610407639	1570547.6566336337
0.8110745790060241	1580689.2431379382
0.8112773476507757	1590833.3650388774
0.8114801669876885	1600980.0229702895
0.8116830370294355	1611129.2175661782
0.8118859577886929	1619608.4053419402
0.8120889292781401	1624615.7656431878
0.8122919515104597	1629624.3777845104
0.8124950244983374	1634634.2420788684
0.8126981482544621	1639645.3588392995
0.8129013227915257	1645050.8837882427
0.8131045481222237	1654959.4496626006
0.8133078242592543	1664870.4926784283
0.8135111512153191	1674784.0134550072
0.813714529003123	1684700.0126117812
0.8139179576353739	1694618.4907683465
0.8141214371247829	1749199.103159572
0.8143249674840641	1812453.6189010926
0.814528548725935	1875723.94827151
0.8147321808631167	1939010.0952243558
0.8149358639083326	2002312.0637139203
0.8151395978743097	2042457.9931797127
0.8153433827737784	2066958.0752534093
0.8155472186194719	2091464.2823476158
0.8157511054241268	2115976.615993591
0.815955043200483	2140495.077722994
0.8161590319612831	2160278.385030112
0.8163630717192736	2171378.8131036805
0.8165671624872033	2182482.0162842544
0.8167713042778252	2193587.9952656343
0.8169754971038948	2204696.7507417654
0.8171797409781707	2213112.2008155566
0.8173840359134155	2200006.09242447
0.8175883819223938	2186896.707506301
0.8177927790178745	2173784.045241895
0.8179972272126291	2160668.1048119194
0.8182017265194322	2147548.88539685
0.8184062769510622	2167473.3949280274
0.8186108785203001	2192488.3311131187
0.8188155312399301	2217509.521032222
0.8190202351227402	2242536.966248833
0.819224990181521	2267570.6683267327
0.8194297964290664	2308571.255313701
0.8196346538781738	2359202.3317493
0.8198395625416434	2409846.065953988
0.8200445224322789	2460502.4610922486
0.820249533562887	2511171.520329279
0.8204545959462778	2552713.9002357535
0.8206597095952644	2579557.1341218897
0.8208648745226633	2606407.0788165187
0.8210700907412941	2633263.7359973164
0.8212753582639793	2660127.1073423824
0.8214806771035456	2676412.5075042816
0.8216860472728215	2627487.411132364
0.8218914687846397	2578550.083486351
0.822096941651836	2529600.5215084013
0.822302465887249	2480638.7221399858
0.8225080415037209	2431664.682321701
0.8227136685140968	2465476.527097285
0.8229193469312254	2508696.142846306
0.8231250767679583	2551926.5634992793
0.8233308580371503	2595167.7917573918
0.8235366907516598	2638419.830322601
0.8237425749243477	2686579.248516237
0.8239485105680789	2737345.9729512297
0.824154497695721	2788125.3890672983
0.824360536320145	2838917.500037406
0.8245666264542252	2889722.3090352537
0.8247727681108388	2935864.2624515076
0.8249789613028664	2975321.474042207
0.8251852060431922	3014788.5499358377
0.825391502344703	3054265.4925984247
0.8255978502202894	3093752.3044967125
0.8258042496828445	3129559.1540846727
0.8260107007452654	3147455.0166470273
0.8262172034204517	3165355.3531750045
0.8264237577213068	3183260.1647871183
0.8266303636607373	3201169.452602143
0.8268370212516525	3219083.2177391127
0.8270437305069654	3205011.6036768802
0.8272504914395923	3188436.672243305
0.8274573040624523	3171857.597076868
0.8276641683884679	3155274.377141654
0.8278710844305652	3138687.011401436
0.8280780522016729	3152104.5227762647
0.8282850717147234	3179242.4578076387
0.8284921429826521	3206387.177322742
0.8286992660183978	3233538.6830177456
0.8289064408349024	3260696.9765891545
0.8291136674451112	3274912.664210068
0.8293209458619727	3272803.366883058
0.8295282760984382	3270693.5422317195
0.829735658167463	3268583.190124216
0.8299430920820048	3266472.310428688
0.8301505778550254	3266456.9703496424
0.8303581154994891	3274807.644982949
0.8305657050283641	3283160.4072849215
0.8307733464546212	3291515.2577774636
0.8309810397912352	3299872.1969826426
0.8311887850511829	3308231.225422606
0.8313965822474458	3379718.7755912147
0.8316044313930077	3454154.2292781076
0.8318123325008561	3528608.291828492
0.8320202855839813	3603080.967894478
0.8322282906553774	3677572.262129486
0.8324363477280413	3702260.005030128
0.8326444568149735	3706895.6883163815
0.8328526179291771	3711532.5305234506
0.8330608310836596	3716170.5319410786
0.8332690962914304	3720809.692859055
0.8334774135655034	3721219.177250852
0.833685782918895	3716902.780910748
0.8338942043646247	3712585.305471562
0.834102677915716	3708266.750663513
0.834311203585195	3703947.1162167653
0.8345197813860912	3717285.360256326
0.8347284113314379	3790068.644210086
0.8349370934342709	3862870.1239847946
0.8351458277076294	3935689.804129358
0.8353546141645565	4008527.689194079
0.8355634528180977	4081383.783730035
0.8357723436813022	3994780.955916863
0.8359812867672226	3906187.341112198
0.8361902820889144	3817571.5779038765
0.8363993296594368	3728933.6607547267
0.8366084294918518	3640273.584126259
0.8368175815992247	3667334.2057855916
0.8370267859946247	3734264.6235358627
0.8372360426911234	3801211.7738905507
0.8374453517017962	3868175.6610328206
0.8376547130397217	3935156.2891468676
0.8378641267179816	3973305.8500237726
0.8380735927496613	3982840.4193822998
0.8382831111478488	3992377.3723831614
0.8384926819256358	4001916.709622268
0.8387023050961173	4011458.4316956927
0.8389119806723914	4021302.328215009
0.8391217086675596	4031992.3899568804
0.8393314890947265	4042685.124214179
0.8395413219670003	4053380.531655043
0.8397512072974922	4064078.612947774
0.8399611450993165	4076415.4725911072
0.8401711353855914	4170003.7479501567
0.8403811781694378	4263615.42037802
0.8405912734639802	4357250.495724014
0.8408014212823464	4450908.979838888
0.8410116216376671	4544590.878574779
0.8412218745430766	4628515.347249107
0.8414321800117124	4709614.946964503
0.8416425380567154	4790734.821579867
0.8418529486912297	4871874.976163903
0.8420634119284025	4953035.415786519
0.8422739277813847	4992784.682673545
0.8424844962633302	4996041.160415073
0.842695117387396	4999298.452276033
0.8429057911667428	5002556.55845996
0.8431165176145345	5005815.479170433
0.8433272967439382	5009679.436774568
0.8435381285681244	5015018.225775738
0.8437490131002665	5020358.349474157
0.8439599503535415	5025699.808203498
0.84417094034113	5031042.602297525
0.8443819830762154	5038454.187602975
0.8445930785719846	5087516.693853386
0.8448042268416277	5136591.465730332
0.8450154278983382	5185678.506300241
0.8452266817553128	5234777.818630289
0.8454379884257517	5283889.405788425
0.8456493479228583	5330207.661352575
0.845860760259839	5375861.871996132
0.846072225449904	5421527.496192349
0.8462837435062666	5467204.536794625
0.8464953144421433	5512892.996657078
0.8467069382707537	5539543.224201055
0.8469186150053215	5551351.4937199745
0.847130344659073	5563162.715306276
0.8473421272452377	5574976.889697964
0.8475539627770492	5586794.017633261
0.8477658512677435	5604295.71996775
0.8479777927305605	5633865.969879102
0.8481897871787432	5663443.612352924
0.848401834625538	5693028.649237382
0.8486139350841944	5722621.082381043
0.8488260885679657	5748809.454231286
0.8490382950901076	5733419.894140937
0.8492505546638802	5718026.486660558
0.8494628673025462	5702629.230828313
0.8496752330193721	5687228.125682089
0.8498876518276269	5671823.170259598
0.8501001237405839	5471479.810435608
0.8503126487715191	5234170.179984636
0.850525226933712	4996801.222126182
0.8507378582404455	4759372.922028267
0.8509505427050057	4521885.264855188
0.8511632803406821	4370357.600485824
0.8513760711607672	4277699.567443422
0.8515889151785576	4185018.3698926163
0.8518018124073523	4092314.0020425
0.8520147628604541	3999586.4581004763
0.8522277665511693	4012200.600724221
0.8524408234928071	4219677.484895746
0.8526539336986805	4427206.23828837
0.8528670971821053	4634786.873869356
0.8530803139564007	4842419.404608991
0.8532935840348901	5054904.9265443925
0.8535069074308987	5307991.169682563
0.8537202841577566	5561140.68438173
0.8539337142287962	5814353.486459601
0.8541471976573534	6067629.591737833
0.8543607344567677	6320969.01604243
0.8545743246403821	6428678.374340627
0.8547879682215422	6513276.882729027
0.8550016652135977	6597896.540744512
0.8552154156299011	6682537.353674507
0.8554292194838088	6767199.326807795
0.8556430767886797	6824299.207906887
0.855856987557877	6864665.538522626
0.8560709518047664	6905041.9607209945
0.8562849695427177	6945428.477024927
0.8564990407851035	6985825.089957948
0.8567131655452999	7024295.766760504
0.8569273438366862	7059603.802808913
0.8571415756726455	7094920.665866342
0.8573558610665638	7130246.358139548
0.8575702000318304	7165580.881835785
0.8577845925818384	7202778.9483892545
0.857999038729984	7251571.511567473
0.8582135384896665	7300376.2728864765
0.858428091874289	7349193.2353958115
0.8586426988972576	7398022.402145762
0.8588573595719821	7446863.776187415
0.8590720739118751	7470740.869676698
0.8592868419303532	7491679.12953324
0.8595016636408359	7512622.623954746
0.8597165390567462	7533571.354249851
0.8599314681915105	7554525.321727535
0.8601464510585584	7559572.852569704
0.860361487671323	7556175.83921096
0.8605765780432408	7552777.976598877
0.8607917221877518	7549379.26452114
0.8610069201182988	7545979.702765383
0.8612221718483286	7447488.376481969
0.8614374773912907	7211886.0052538365
0.8616528367606385	6976224.733432961
0.8618682499698288	6740504.546293981
0.8620837170323213	6504725.429108255
0.8622992379615795	6308582.8962471355
0.8625148127710699	6308829.293193313
0.8627304414742627	6309075.751738727
0.8629461240846313	6309322.271898777
0.8631618606156526	6309568.853688867
0.8633776510808066	6309815.497124405
0.8635934954935769	6535506.031853553
0.8638093938674504	6779733.027677162
0.8640253462159173	7024021.080249717
0.8642413525524714	7268370.204835412
0.8644574128906095	7512780.416702202
0.8646735272438323	7510657.922775675
0.8648896956256433	7393861.944554589
0.8651059180495498	7277036.767338942
0.8653221945290621	7160182.383829103
0.8655385250776946	7043298.786723223
0.8657549097089641	7039291.940447786
0.8659713484363913	7179828.5558718
0.8661878412735006	7320400.305449734
0.866404388233819	7461007.1979650445
0.8666209893308775	7601649.242203418
0.8668376445782103	7715948.316787601
0.8670543539893549	7722613.4263296
0.8672711175778525	7729280.202148989
0.8674879353572469	7735948.644662325
0.8677048073410862	7742618.754286292
0.8679217335429217	7749290.531437669
0.8681387139763074	7790421.107656947
0.8683557486548015	7833273.709007226
0.8685728375919655	7876137.023507894
0.8687899808013633	7919011.053837094
0.8690071782965637	7961895.802673933
0.869224430091138	7992715.243446897
0.8694417361986609	8018628.668043616
0.8696590966327107	8044548.570996479
0.869876511406869	8070474.9539250815
0.8700939805347206	8096407.818449404
0.8703115040298544	8130917.470451637
0.870529081905862	8175234.086934793
0.8707467141763385	8219561.782572053
0.8709644008548827	8263900.560133222
0.8711821419550964	8308250.422388753
0.8713999374905854	8352425.4121076325
0.871617787474958	8395969.633085098
0.8718356919218269	8439524.740117846
0.8720536508448075	8483090.735927356
0.8722716642575187	8526667.623235794
0.8724897321735832	8570255.404766077
0.8727078546066265	8602662.798097214
0.8729260315702784	8634908.037117919
0.873144263078171	8667161.337448344
0.8733625491439405	8699422.701103855
0.8735808897812266	8731692.130100293
0.8737992850036719	8705412.404589573
0.874017734824923	8658386.104006086
0.8742362392586293	8611348.046847472
0.874454798318444	8564298.230174571
0.8746734120180236	8517236.651047505
0.8748920803710283	8496307.00029388
0.875110803391121	8501644.038217625
0.8753295810919689	8506982.410400854
0.875548413487242	8512322.117177129
0.8757673005906139	8517663.158880098
0.8759862424157616	8555268.69297237
0.8762052389763657	8686238.59618652
0.8764242902861098	8817241.241876386
0.8766433963586814	8948276.638227709
0.8768625572077712	9079344.79342816
0.8770817728470732	9208761.790219653
0.8773010432902849	9206734.491240881
0.8775203685511077	9204706.68543736
0.8777397486432454	9202678.372682393
0.8779591835804065	9200649.552849233
0.8781786733763015	9198620.225811116
0.8783982180446457	9102824.155125394
0.878617817599157	8979110.432743251
0.8788374720535569	8855365.781930571
0.8790571814215703	8731590.194955219
0.8792769457169257	8607783.66408312
0.879496764953355	8491449.386758085
0.8797166391445934	8381831.900139787
0.8799365683043796	8272187.009149828
0.8801565524464557	8162514.706937123
0.8803765915845676	8052814.986648762
0.8805966857324639	8040111.347022408
0.880816834903897	8271098.491077605
0.881037039112623	8502143.381918907
0.8812572983724012	8733246.033982897
0.8814776126969944	8964406.461710006
0.8816979821001687	9189389.811013961
0.8819184065956938	9267659.551512659
0.8821388861973429	9345948.859446561
0.8823594209188923	9424257.739707373
0.882580010774122	9502586.197188213
0.8828006557768155	9580934.236783467
0.8830213559407598	9663901.978254028
0.8832421112797452	9748047.437243108
0.8834629218075651	9832213.932596883
0.8836837875380171	9916401.469574522
0.8839047084849018	10000610.05343642
0.884125684662023	9935543.913289169
0.8843467160831886	9750820.009283397
0.8845678027622095	9566049.924301626
0.8847889447129001	9381233.646798575
0.8850101419490785	9196371.16522618
0.8852313944845657	9145041.942793729
0.885452702333187	9386088.974694062
0.8856740655087704	9627196.268352333
0.8858954840251476	9868363.838833956
0.8861169578961539	10109591.701208087
0.886338487135628	10318121.471586209
0.886560071757412	10090774.032453502
0.8867817117753515	9863369.756461017
0.8870034072032955	9635908.62939943
0.8872251580550963	9408390.637056347
0.8874469643446101	9180815.765215036
0.8876688260856963	9229140.916602267
0.8878907432922178	9334590.969833829
0.8881127159780409	9440067.385578629
0.8883347441570356	9545570.170427494
0.8885568278430749	9651099.33097246
0.8887789670500358	9687350.29788839
0.8890011617917983	9674447.487937389
0.8892234120822464	9661541.452283895
0.8894457179352669	9648632.190121496
0.8896680793647509	9635719.700643549
0.8898904963845921	9573046.836528808
0.8901129690086883	9415420.358896298
0.8903354972509405	9257754.474644419
0.8905580811252535	9100049.173921352
0.8907807206455347	8942304.44687332
0.8910034158256963	8772728.370297406
0.8912261666796527	8497725.996203672
0.8914489732213227	8222654.8715163395
0.8916718354646282	7947514.979047563
0.8918947534234944	7672306.301605936
0.8921177271118502	7397028.8219951205
0.8923407565436284	7097105.974804665
0.8925638417327644	6793099.043621945
0.8927869826931977	6489016.110706329
0.8930101794388711	6184857.157057505
0.8932334319837308	5880622.163670316
0.8934567403417267	5707898.9529774375
0.8936801045268123	5616898.915070161
0.8939035245529441	5525876.127153469
0.8941270004340824	5434830.583539763
0.894350532184191	5343762.278540177
0.8945741198172371	5502535.438238048
0.8947977633471915	6075718.314887379
0.8950214627880284	6649044.48725585
0.8952452181537254	7222513.991167071
0.8954690294582639	7796126.8624546155
0.8956928967156286	8304019.804710071
0.8959168199398075	8384610.156285767
0.8961407991447926	8465220.65544938
0.8963648343445789	8545851.30723778
0.896588925553165	8626502.11668908
0.8968130727845534	8707173.088842757
0.8970372760527496	8649428.998569814
0.8972615353717629	8574349.43715031
0.8974858507556059	8499251.105840443
0.8977102222182949	8424133.999947768
0.8979346497738496	8348998.114778577
0.8981591334362931	8606768.12505419
0.8983836732196523	9046671.25676547
0.8986082691379572	9486684.364259388
0.8988329212052417	9926807.47503018
0.8990576294355432	10367040.616579045
0.8992823938429022	10634399.18686496
0.8995072144413631	10644618.435634334
0.8997320912449734	10654840.2392159
0.8999570242677847	10665064.598248357
0.9001820135238516	10675291.513370572
0.9004070590272328	10693148.272681678
0.9006321607919896	10750994.339198153
0.9008573188321878	10808854.867231319
0.9010825331618959	10866729.860396463
0.9013078037951865	10924619.32230991
0.9015331307461353	10982523.256588804
0.9017585140288219	11101429.22054267
0.9019839536573292	11225617.927066522
0.9022094496457435	11349837.680766918
0.9024350020081551	11474088.489405878
0.9026606107586572	11598370.360746957
0.902886275911347	11778795.237353433
0.9031119974803249	11986315.078503482
0.9033377754796951	12193886.79961382
0.903563609923565	12401510.413654344
0.903789500826046	12609185.933598518
0.9040154482012526	12704115.361425858
0.904241452063303	12652948.547288578
0.9044675124263188	12601768.941447774
0.9046936293044254	12550576.540705519
0.9049198027117517	12499371.341863053
0.9051460326624297	12485863.863735883
0.9053723191705955	12632933.184302744
0.9055986622503881	12780039.272199605
0.9058250619159507	12927182.136618448
0.9060515181814298	13074361.786753487
0.9062780310609752	13221578.231800959
0.9065046005687405	12966647.480745694
0.906731226718883	12689216.34069463
0.9069579095255627	12411715.842858916
0.907184649002944	12134145.969898721
0.907411445165195	11856506.704470005
0.9076382980264862	11975714.001327533
0.907865207600993	12259789.568100397
0.9080921739028933	12543936.153764872
0.9083191969463691	12828153.776075715
0.9085462767456058	13112442.452792276
0.9087734133147922	13276939.005568676
0.9090006066681211	13303033.20524478
0.909227856819788	13329133.928470768
0.9094551637839932	13355241.1768776
0.9096825275749393	13381354.952096524
0.9099099482068329	13422801.560128862
0.9101374256938848	13518728.481295267
0.9103649600503083	13614679.384191921
0.9105925512903209	13710654.27481428
0.9108201994281437	13806653.159159396
0.9110479044780008	13902676.043225486
0.9112756664541204	13999440.836604444
0.911503485370734	14096246.25386838
0.9117313612420768	14193075.872486634
0.9119592940823873	14289929.698509512
0.912187283905908	14386807.737988928
0.9124153307268845	14095821.374576775
0.9126434345595664	13663981.36734059
0.9128715954182063	13232033.400103005
0.9130998133170609	12799977.445873393
0.9133280882703902	12367813.47765525
0.913556420292458	12214069.048766501
0.9137848093975312	12347535.789926568
0.9140132555998806	12481035.89777191
0.9142417589137806	12614569.380644219
0.9144703193535092	12748136.246887332
0.9146989369333476	12827808.848903807
