#wavelength	surface flux
0.7	4518.151003881182
0.7001166666666666	4527.803743327744
0.7002333527777778	4536.700520577436
0.700350058336574	4545.598780623332
0.7004667833462966	4554.498523712557
0.7005835278101878	4563.399750092321
0.7007002917314895	4572.3024600098015
0.7008170751134447	4581.206653712266
0.7009338779592968	4590.112331447011
0.7010507002722901	4598.27773801934
0.7011675420556689	4605.541838433848
0.701284403312678	4612.807149531747
0.7014012840465635	4620.07367151484
0.7015181842605713	4627.341404584928
0.701635103957948	4634.610348943855
0.701752043141941	4641.880504793508
0.701869001815798	4649.151872335813
0.7019859799827672	4657.558533443102
0.7021029776460976	4666.755852645608
0.7022199948090387	4675.954704734659
0.7023370314748403	4685.15508996572
0.7024540876467528	4694.357008594319
0.702571163328027	4703.560460876008
0.7026882585219152	4712.765447066435
0.7028053732316688	4721.971967421213
0.7029225074605406	4733.099751861305
0.7030396612117841	4744.970686596959
0.7031568344886527	4756.843599821737
0.7032740272944008	4768.718491865379
0.7033912396322832	4780.595363057701
0.7035084715055552	4792.474213728544
0.7036257229174727	4804.355044207836
0.7037429938712924	4816.237854825552
0.7038602843702709	4827.379216024769
0.7039775944176659	4838.396342968393
0.7040949240167356	4849.415306099845
0.7042122731707383	4860.436105725146
0.7043296418829335	4871.458742150391
0.7044470301565806	4882.483215681706
0.70456443799494	4893.5095266252665
0.7046818654012724	4904.537675287324
0.7047993123788394	4914.908441832148
0.7049167789309024	4925.280180353673
0.7050342650607243	4935.653647498302
0.7051517707715678	4946.028843554116
0.7052692960666963	4956.405768809268
0.705386840949374	4966.784423551958
0.7055044054228656	4977.164808070455
0.7056219894904361	4987.356680633187
0.7057395931553511	4996.341284057421
0.705857216420877	5005.327384915566
0.7059748592902804	5014.314983457182
0.7060925217668288	5023.304079931898
0.70621020385379	5032.294674589357
0.7063279055544321	5041.286767679248
0.7064456268720246	5050.280359451335
0.7065633678098366	5059.557553695878
0.7066811283711383	5069.613212463059
0.7067989085592001	5079.670547173368
0.7069167083772933	5089.729558106122
0.7070345278286895	5099.790245540705
0.707152366916661	5109.852609756529
0.7072702256444803	5119.916651033044
0.7073881040154211	5129.982369649785
0.7075060020327569	5140.561629315164
0.7076239196997625	5151.8881031462715
0.7077418570197124	5163.2164647230065
0.7078598139958823	5174.546714360003
0.7079777906315483	5185.8788523719495
0.7080957869299869	5197.212879073557
0.7082138028944751	5208.548794779608
0.7083318385282908	5219.886599804951
0.7084498938347124	5229.550285513964
0.708567968817018	5237.794627202864
0.7086860634784875	5246.040342948721
0.7088041778224007	5254.287432980544
0.7089223118520377	5262.53589752736
0.7090404655706796	5270.785736818263
0.709158638981608	5279.036951082391
0.709276832088105	5287.289540548897
0.7093950448934531	5298.050693695005
0.7095132774009353	5310.009345489709
0.7096315296138355	5321.96999039305
0.7097498015354378	5333.932628737203
0.7098680931690269	5345.897260854404
0.7099864045178884	5357.863887076973
0.7101047355853081	5369.832507737242
0.7102230863745722	5381.803123167614
0.7103414568889679	5393.615948180061
0.7104598471317828	5405.394434961889
0.7105782571063047	5417.174884824837
0.7106966868158224	5428.957298096096
0.710815136263625	5440.741675102898
0.7109336054530023	5452.528016172541
0.7110520943872445	5464.316321632358
0.7111706030696424	5476.10659180976
0.7112891315034873	5486.827162601666
0.7114076796920712	5497.4983879590445
0.7115262476386865	5508.171391853983
0.7116448353466263	5518.846174582896
0.711763442819184	5529.52273644227
0.711882070059654	5540.20107772863
0.7120007170713306	5550.881198738531
0.7121193838575091	5561.587015897425
0.7122380704214853	5572.544056461057
0.7123567767665555	5583.502923198106
0.7124755028960166	5594.463616412951
0.7125942488131658	5605.426136409988
0.7127130145213015	5616.390483493722
0.7128318000237216	5627.356657968604
0.7129506053237256	5638.324660139246
0.7130694304246129	5649.276489055541
0.7131882753296837	5660.167204548667
0.7133071400422386	5671.059735161044
0.7134260245655789	5681.954081195183
0.7135449289030065	5692.850242953664
0.7136638530578235	5703.748220739099
0.7137827970333332	5714.648014854181
0.7139017608328388	5725.549625601613
0.7140207444596443	5736.459256078552
0.7141397479170543	5747.38176999683
0.7142587712083737	5758.3061043340795
0.7143778143369084	5769.232259393727
0.7144968773059646	5780.16023547922
0.7146159601188489	5791.090032894058
0.7147350627788687	5802.021651941798
0.7148541852893318	5812.955092926042
0.7149733276535467	5823.170875024116
0.7150924898748222	5832.662851066054
0.715211671956468	5842.156409104
0.7153308739017941	5851.651549401627
0.715450095714111	5861.148272222632
0.71556933739673	5870.646577830776
0.7156885989529628	5880.146466489852
0.7158078803861218	5889.6479384637205
0.7159271816995193	5895.228199079009
0.7160465028964692	5898.506953846729
0.7161658439802853	5901.786255073577
0.7162852049542819	5905.066102850629
0.7164045858217744	5908.346497268979
0.716523986586078	5911.62743841973
0.7166434072505089	5914.908926394006
0.716762847818384	5918.190961282945
0.7168823082930204	5925.5586304156795
0.7170017886777359	5934.129342774201
0.7171212889758488	5942.701483584778
0.7172408091906781	5951.275053085491
0.7173603493255433	5959.850051514458
0.7174799093837642	5968.426479109825
0.7175994893686615	5977.004336109794
0.7177190892835562	5985.583622752592
0.7178387091317702	6007.401788267634
0.7179583489166254	6030.55240329573
0.7180780086414448	6053.706876759682
0.7181976883095517	6076.865209302544
0.7183173879242699	6100.027401567499
0.718437107488924	6123.193454197836
0.7185568470068389	6146.363367836954
0.7186766064813399	6169.061080577783
0.7187963859157535	6179.859963354103
0.7189161853134061	6190.660645944217
0.719036004677625	6201.463128648098
0.7191558440117378	6212.267411765756
0.7192757033190732	6223.073495597282
0.7193955826029597	6233.881380442767
0.7195154818667269	6244.691066602402
0.7196354011137046	6255.205981129522
0.7197553403472235	6264.357171901127
0.7198752995706147	6273.50988787119
0.7199952787872098	6282.66412929392
0.720115278000341	6291.819896423554
0.7202352972133411	6300.977189514378
0.7203553364295432	6310.136008820703
0.7204753956522815	6319.296354596925
0.7205954748848902	6330.330940167597
0.7207155741307044	6345.495997237321
0.7208356933930594	6360.66358181653
0.7209558326752915	6375.833694326506
0.7210759919807375	6391.006335188587
0.7211961713127342	6406.181504824125
0.7213163706746197	6421.359203654628
0.7214365900697322	6436.539432101586
0.7215568295014103	6448.4916233564745
0.721677088972994	6456.591195706778
0.7217973684878227	6464.692117985794
0.7219176680492374	6472.794390418531
0.7220379876605789	6480.898013230004
0.722158327325189	6489.0029866452805
0.7222786870464099	6497.1093108894565
0.7223990668275843	6505.2169861876755
0.7225194666720555	6514.935592455408
0.7226398865831676	6525.796567913035
0.7227603265642646	6536.659353533211
0.722880786618692	6547.523949617681
0.7230012667497951	6558.390356468158
0.7231217669609201	6569.258574386444
0.7232422872554135	6580.128603674374
0.7233628276366229	6591.00044463387
0.7234833881078956	6606.384045454232
0.7236039686725803	6623.482463373951
0.7237245693340255	6640.583731029962
0.7238451900955812	6657.687848897281
0.7239658309605971	6674.794817450891
0.7240864919324239	6691.904637165949
0.7242071730144127	6709.0173085176275
0.724327874209915	6726.132831981162
0.7244485955222832	6728.203917770382
0.7245693369548704	6727.787406422753
0.7246900985110294	6727.370825656566
0.7248108801941148	6726.95417546025
0.7249316820074803	6726.537455822237
0.7250525039544815	6726.120666730949
0.7251733460384739	6725.703808174813
0.7252942082628137	6725.322026466965
0.7254150906308574	6745.305074853631
0.7255359931459625	6765.291453748363
0.7256569158114868	6785.2811637062505
0.7257778586307888	6805.274205282474
0.7258988216072273	6825.270579032289
0.7260198047441617	6845.270285511039
0.7261408080449525	6865.273325274236
0.72626183151296	6884.449698604338
0.7263828751515454	6898.113439964959
0.7265039389640706	6911.779458615805
0.726625022953898	6925.447754936434
0.7267461271243904	6939.118329306457
0.7268672514789111	6952.791182105531
0.7269883960208241	6966.466313713395
0.7271095607534942	6980.143724509869
0.7272307456802866	6993.758186229393
0.7273519508045666	7007.198718710103
0.7274731761297006	7020.641491279554
0.7275944216590555	7034.0865043111
0.7277156873959987	7047.533758178156
0.7278369733438982	7060.983253254211
0.727958279506122	7074.434989912744
0.7280796058860397	7087.888968527402
0.7282009524870207	7098.68804164243
0.7283223193124353	7105.558697063687
0.7284437063656539	7112.430497594165
0.7285651136500483	7119.303443424744
0.7286865411689898	7126.17753474628
0.7288079889258514	7133.05277174972
0.7289294569240056	7139.929154625977
0.7290509451668262	7146.806683566056
0.7291724536576875	7155.537772700575
0.7292939823999636	7165.805241373715
0.7294155313970303	7176.074421291654
0.7295371006522632	7186.345312739578
0.7296586901690385	7196.617916002734
0.7297802999507332	7206.892231366429
0.7299019300007252	7217.168259116045
0.7300235803223919	7227.445999536925
0.7301452509191123	7243.168794840661
0.7302669417942654	7261.406690945407
0.7303886529512311	7279.64762669951
0.7305103843933897	7297.891602609576
0.7306321361241218	7316.13861918228
0.7307539081468093	7334.3886769244455
0.7308757004648336	7352.641776342863
0.7309975130815778	7370.897917944538
0.7311193460004248	7393.0142932664285
0.7312411992247582	7416.007573458992
0.7313630727579622	7439.004685864916
0.7314849666034219	7462.00563112293
0.7316068807645224	7485.010409871807
0.7317288152446498	7508.0190227504845
0.7318507700471907	7531.031470397988
0.7319727451755319	7554.047753453425
0.732094740633061	7566.255176688632
0.7322167564231665	7577.977843502059
0.7323387925492371	7589.70246409329
0.7324608490146619	7601.429038787948
0.732582925822831	7613.157567911726
0.7327050229771347	7624.888051790344
0.7328271404809642	7636.620490749621
0.7329492783377112	7648.161516590074
0.7330714365507675	7657.803448687933
0.7331936151235259	7667.446987774473
0.7333158140593796	7677.092134117516
0.7334380333617229	7686.738887984965
0.7335602730339499	7696.387249644729
0.7336825330794556	7706.037219364772
0.7338048135016354	7715.688797413083
0.7339271143038857	7728.0691420158355
0.734049435489603	7749.589399192696
0.7341717770621846	7771.113243079091
0.7342941390250283	7792.640674272789
0.7344165213815324	7814.171693371677
0.734538924135096	7835.706300973781
0.7346613472891185	7857.244497677123
0.734783790847	7878.7862840799235
0.7349062548121412	7895.613697573219
0.7350287391879431	7904.104722981468
0.7351512439778078	7912.597163560635
0.7352737691851374	7921.091019546556
0.735396314813335	7929.586291175148
0.7355188808658037	7938.0829786823315
0.7356414673459482	7946.5810823041165
0.7357640742571725	7955.080602276499
0.7358867016028818	7966.719601253021
0.7360093493864824	7981.459659691582
0.7361320176113801	7996.202174806528
0.736254706280982	8010.947147007328
0.7363774153986956	8025.694576703513
0.7365001449679286	8040.444464304617
0.7366228949920899	8055.196810220334
0.7367456654745885	8069.951614860369
0.7368684564188344	8086.168811764286
0.7369912678282374	8103.213834971983
0.7371140997062088	8120.261699016887
0.7372369520561599	8137.312404372482
0.7373598248815024	8154.3659515122645
0.7374827181856494	8171.422340909932
0.7376056319720137	8188.481573039167
0.7377285662440091	8205.543648373761
0.7378515210050496	8220.67257020075
0.7379744962585505	8235.221530857134
0.738097492007927	8249.772916340291
0.7382205082565949	8264.326727054353
0.738343545007971	8278.882963403532
0.7384666022654723	8293.441625792117
0.7385896800325165	8308.00271462441
0.7387127783125219	8322.566230304861
0.7388358971089073	8339.73674864625
0.7389590364250921	8357.171374118883
0.7390821962644963	8374.608905362442
0.7392053766305403	8392.049342861183
0.7393285775266454	8409.492687099519
0.7394517989562333	8426.938938561912
0.7395750409227259	8444.388097732854
0.7396983034295463	8461.675304677763
0.739821586480118	8475.297950107015
0.7399448900778645	8488.922865977143
0.7400682142262109	8502.550052666626
0.740191558928582	8516.179510553875
0.7403149241884034	8529.811240017427
0.7404383100091014	8543.445241435895
0.7405617163941028	8557.081515187923
0.7406851433468352	8570.024627846415
0.7408085908707264	8579.788455274112
0.7409320589692048	8589.553910006376
0.7410555476456997	8599.320992314437
0.7411790569036406	8609.089702469542
0.7413025867464579	8618.86004074301
0.7414261371775823	8628.632007406191
0.7415497082004452	8638.405602730476
0.7416732998184786	8648.41701555771
0.741796912035115	8658.936767939254
0.7419205448537874	8669.458273612858
0.7420441982779297	8679.981532870741
0.742167872310976	8690.506546005177
0.7422915669563612	8701.033313308468
0.7424152822175206	8711.561835072973
0.7425390180978901	8722.092111591099
0.7426627746009065	8736.112709941623
0.7427865517300065	8754.388457781213
0.7429103494886282	8772.667251578796
0.7430341678802096	8790.949091841998
0.7431580069081896	8809.233979078575
0.7432818665760077	8827.521913796385
0.7434057468871037	8845.8128965033
0.7435296478449182	8864.10692770732
0.7436535694528923	8880.3422328676
0.7437775117144678	8895.168895650047
0.7439014746330868	8909.998029542936
0.7440254582121922	8924.829634958154
0.7441494624552276	8939.663712307613
0.7442734873656368	8954.500262003294
0.7443975329468645	8969.339284457268
0.7445215992023557	8984.180780081651
0.7446456861355559	8996.758671369405
0.7447697937499119	9008.503896035782
0.7448939220488703	9020.251078239598
0.7450180710358784	9032.000218307106
0.7451422407143843	9043.751316564627
0.7452664310878367	9055.504373338536
0.7453906421596846	9067.259388955226
0.7455148739333779	9079.016363741192
0.7456391264123667	9090.654427897325
0.7457633996001021	9102.2751052661
0.7458876935000356	9113.897719414459
0.7460120081156189	9125.522270665151
0.7461363434503048	9137.148759341058
0.7462606995075466	9148.77718576509
0.7463850762907978	9160.407550260172
0.7465094738035127	9172.038634599034
0.7466338920491467	9183.352891472783
0.746758331031155	9194.669034056024
0.7468827907529935	9205.987062663015
0.7470072712181189	9217.306977608105
0.7471317724299886	9228.62877920569
0.7472562943920602	9239.9524677702
0.7473808371077922	9251.278043616147
0.7475054005806435	9262.548900283453
0.7476299848140736	9273.47295989502
0.7477545898115426	9284.398840183192
0.7478792155765113	9295.326541451415
0.7480038621124406	9306.256064003175
0.7481285294227926	9317.187408142023
0.7482532175110298	9328.120574171573
0.7483779263806148	9339.055562395446
0.7485026560350116	9349.63193123736
0.7486274064776842	9359.234540357915
0.748752177712097	9368.838749913304
0.7488769697417158	9378.444560170308
0.749001782570006	9388.051971395676
0.7491266162004343	9397.660983856245
0.7492514706364677	9407.271597818897
0.7493763458815739	9416.883813550552
0.7495012419392209	9425.58821066869
0.7496261588128773	9432.986657960753
0.7497510965060128	9440.38633832737
0.7498760550220971	9447.787251974043
0.7500010343646007	9455.189399106326
0.7501260345369949	9462.592779929802
0.750251055542751	9469.997394650074
0.7503760973853414	9477.403243472803
0.7505011600682389	9483.582642214058
0.750626243594917	9488.737982462088
0.7507513479688495	9493.894181933483
0.7508764731935109	9499.051240771458
0.7510016192723765	9504.209159119242
0.7511267862089218	9509.367937120078
0.7512519740066232	9514.52757491725
0.7513771826689577	9519.688072654058
0.7515024121994025	9523.151471432388
0.7516276626014359	9525.823763518663
0.751752933878536	9528.49650098695
0.7518782260341824	9531.169683911481
0.7520035390718548	9533.843312366502
0.7521288729950334	9536.517386426262
0.7522542278071992	9539.191906165033
0.7523796035118337	9541.866871657096
0.7525050001124189	9541.974656673974
0.7526304176124378	9541.52405835762
0.7527558560153731	9541.073384941546
0.752881315324709	9540.622636413236
0.7530067955439299	9540.17181276017
0.7531322966765205	9539.72091396983
0.7532578187259665	9539.269940029691
0.7533833616957542	9538.81889092723
0.75350892558937	9534.977775022693
0.7536345104103016	9530.976611837155
0.7537601161620366	9526.974781791088
0.7538857428480638	9522.972284773343
0.7540113904718717	9518.969120672768
0.7541370590369503	9514.965289378175
0.7542627485467898	9510.960790778363
0.7543884590048808	9506.488316585328
0.7545141904147151	9497.355046889119
0.7546399427797842	9488.220254981308
0.7547657161035808	9479.083940608178
0.754891510389598	9469.946103515987
0.7550173256413296	9460.806743450943
0.7551431618622698	9451.665860159223
0.7552690190559135	9442.523453386957
0.7553948972257561	9431.803657935025
0.7555207963752938	9415.792490514312
0.755646716508023	9399.778654565705
0.755772657627441	9383.762149644435
0.7558986197370455	9367.742975305677
0.756024602840335	9351.721131104532
0.7561506069408084	9335.69661659602
0.7562766320419653	9319.669431335076
0.7564026781473054	9300.042775591979
0.75652874526033	9274.083441595796
0.7566548333845401	9248.119781043933
0.7567809425234375	9222.15179321532
0.7569070726805247	9196.179477388752
0.7570332238593047	9170.202832842882
0.7571593960632813	9144.221858856228
0.7572855892959586	9118.236554707244
0.7574118035608413	9087.67907298724
0.7575380388614347	9052.64762486626
0.7576642952012449	9017.610338170582
0.7577905725837782	8982.567211927171
0.7579168710125422	8947.518245162657
0.7580431904910444	8912.463436903668
0.7581695310227928	8877.402786176683
0.7582958926112967	8842.336292007863
0.7584222752600652	8797.504123904562
0.7585486789726085	8747.0578341906
0.7586751037524372	8696.603136761667
0.7588015496030628	8646.140030216397
0.7589280165279966	8595.668513153469
0.7590545045307512	8545.18858417103
0.7591810136148396	8494.700241867096
0.7593075437837755	8444.20348483937
0.7594340950410726	8379.001633903166
0.7595606673902461	8309.524872283115
0.7596872608348112	8240.036531202722
0.7598138753782836	8170.536608732226
0.75994051102418	8101.025102941254
0.7600671677760173	8031.502011899371
0.7601938456373134	7961.967333675594
0.7603205446115863	7892.4210663388185
0.7604472647023548	7797.733107495098
0.7605740059131385	7700.5314383408095
0.7607007682474575	7603.313568908235
0.7608275517088319	7506.079496497636
0.7609543563007835	7408.829218408087
0.7610811820268336	7311.562731938915
0.7612080288905045	7214.280034388851
0.7613348968953197	7114.993930218606
0.7614617860448022	6974.918469161627
0.7615886963424764	6834.819662194282
0.7617156277918667	6694.69750542591
0.7618425803964988	6554.551994964628
0.7619695541598982	6414.3831269183065
0.7620965490855914	6274.190897394081
0.7622235651771058	6133.9753024981055
0.7623506024379685	5986.631988280591
0.7624776608717082	5808.124975045754
0.7626047404818536	5629.588210642035
0.7627318412719337	5451.021690111223
0.762858963245479	5272.425408493543
0.7629861064060198	5093.799360828911
0.7631132707570876	4915.143542156149
0.7632404563022137	4736.457947513769
0.7633676630449308	4544.453597063645
0.7634948909887717	4324.129430577057
0.7636221401372697	4103.768543396341
0.7637494104939593	3883.3709294008863
0.7638767020623748	3662.9365824700844
0.7640040148460518	3442.4654964812094
0.7641313488485262	3221.9576653113445
0.7642587040733344	3001.413082836035
0.7643860805240132	2777.9676424441445
0.7645134782041005	2551.067230691744
0.7646408971171346	2324.1290022039575
0.764768337266654	2097.152950678172
0.7648957986561985	1870.1390698103928
0.7650232812893079	1643.0873532958321
0.7651507851695227	1415.9977948285168
0.7652783103003843	1188.870388101485
0.7654058566854343	1032.637758019861
0.7655334243282153	924.7215320298644
0.7656610132322699	816.7873200023434
0.765788623401142	708.8351189393829
0.7659162548383754	600.8649258429741
0.7660439075475152	492.8767377143564
