#wavelength	surface flux
0.8	1941392.2008543285
0.8002000000000001	1945805.6920809487
0.8004000500000003	1950465.6407485392
0.8006001500125003	1955129.2327209585
0.8008003000500035	1959793.9905913714
0.8010005001250161	1964459.9146512542
0.8012007502500472	1969127.005192145
0.8014010504376099	1973321.039956832
0.8016014007002193	1977357.2731643748
0.8018018010503944	1981394.515430219
0.8020022515006572	1985432.767006632
0.8022027520635323	1989472.0281459352
0.8024033027515483	1993529.8788203113
0.8026039035772362	1997605.9713976127
0.8028045545531306	2001683.0829980588
0.8030052556917691	2005761.2138764071
0.803206007005692	2009840.3642874712
0.8034068085074435	2014020.2757727753
0.8036076602095705	2018480.8216928986
0.8038085621246229	2022942.4827494984
0.8040095142651542	2027405.259221365
0.8042105166437206	2031869.151387348
0.8044115692728815	2036320.0564068519
0.8046126721651998	2040165.474134154
0.8048138253332411	2044011.8532158849
0.8050150287895745	2047859.1938923898
0.805216282546772	2051707.4964040627
0.8054175866174087	2055556.7609913615
0.8056189410140631	2059532.8739273571
0.8058203457493168	2063545.614803581
0.8060218008357541	2067559.3588650187
0.8062233062859632	2071574.106362474
0.8064248621125346	2075589.8575468007
0.806626468328063	2079897.7711044513
0.8068281249451449	2084456.8315139406
0.8070298319763813	2089017.0316885381
0.8072315894343755	2093578.3719131758
0.8074333973317341	2098140.852472871
0.8076352556810671	2102205.1658232464
0.8078371644949874	2105068.577931267
0.8080391237861113	2107932.705892316
0.8082411335670578	2110797.5498853535
0.8084431938504498	2113663.110089392
0.8086453046489125	2116510.4522123975
0.8088474659750746	2119005.9802421243
0.8090496778415686	2121502.1321538617
0.809251940261029	2123998.908103575
0.8094542532460944	2126496.308247278
0.8096566168094059	2128994.332741014
0.8098590309636085	2131945.481701422
0.8100614957213493	2135003.2797596226
0.8102640110952797	2138061.842267338
0.8104665770980536	2141121.1694156816
0.8106691937423283	2144181.261395814
0.8108718610407639	2147549.5570131554
0.8110745790060241	2151153.776876362
0.8112773476507757	2154758.8977945377
0.8114801669876885	2158364.919992942
0.8116830370294355	2161971.843696893
0.8118859577886929	2165421.4151033596
0.8120889292781401	2168543.1483655567
0.8122919515104597	2171665.662061069
0.8124950244983374	2174788.9563850057
0.8126981482544621	2177913.0315325228
0.8129013227915257	2181082.4222281887
0.8131045481222237	2184762.532441375
0.8133078242592543	2188443.562682115
0.8135111512153191	2192125.5131804147
0.813714529003123	2195808.384166339
0.8139179576353739	2199492.1758700106
0.8141214371247829	2207224.3690851093
0.8143249674840641	2215743.369907665
0.814528548725935	2224264.500480421
0.8147321808631167	2232787.7613358316
0.8149358639083326	2241313.1530064535
0.8151395978743097	2247589.188394499
0.8153433827737784	2252345.593283964
0.8155472186194719	2257103.1872746497
0.8157511054241268	2261861.970663832
0.815955043200483	2266621.9437488653
0.8161590319612831	2271074.7351346407
0.8163630717192736	2274963.5861806693
0.8165671624872033	2278853.4094394553
0.8167713042778252	2282744.2051540595
0.8169754971038948	2286635.9735675943
0.8171797409781707	2290359.6184640434
0.8173840359134155	2292734.2448673123
0.8175883819223938	2295109.464927179
0.8177927790178745	2297485.278792062
0.8179972272126291	2299861.686610412
0.8182017265194322	2302238.6885307143
0.8184062769510622	2307068.5053668376
0.8186108785203001	2312276.890122882
0.8188155312399301	2317486.576975108
0.8190202351227402	2322697.566249053
0.819224990181521	2327909.8582703136
0.8194297964290664	2333181.054363255
0.8196346538781738	2338488.2871549972
0.8198395625416434	2343796.8467549356
0.8200445224322789	2349106.733494776
0.820249533562887	2354417.9477063
0.8204545959462778	2359444.0345363314
0.8206597095952644	2364010.336001012
0.8208648745226633	2368577.779041062
0.8210700907412941	2373146.3639418716
0.8212753582639793	2377716.0909889014
0.8214806771035456	2381610.623405424
0.8216860472728215	2381339.0691393656
0.8218914687846397	2381067.4469847404
0.822096941651836	2380795.7569245766
0.822302465887249	2380523.9989418983
0.8225080415037209	2380252.1730197235
0.8227136685140968	2385569.593033299
0.8229193469312254	2391522.8463447406
0.8231250767679583	2397477.5879695117
0.8233308580371503	2403433.8182796864
0.8235366907516598	2409391.5376474424
0.8237425749243477	2415601.046219848
0.8239485105680789	2421944.770450179
0.824154497695721	2428290.0806115633
0.824360536320145	2434636.977100489
0.8245666264542252	2440985.460313537
0.8247727681108388	2446914.2684406466
0.8249789613028664	2452241.2320028115
0.8251852060431922	2457569.5273058712
0.825391502344703	2462899.1546827545
0.8255978502202894	2468230.1144664865
0.8258042496828445	2473381.4151832317
0.8260107007452654	2477655.0042686616
0.8262172034204517	2481929.6617513583
0.8264237577213068	2486205.387898427
0.8266303636607373	2490482.182977034
0.8268370212516525	2494760.0472544087
0.8270437305069654	2497303.2781088506
0.8272504914395923	2499711.510870819
0.8274573040624523	2502120.3456909787
0.8276641683884679	2504529.782719841
0.8278710844305652	2506939.8221079633
0.8280780522016729	2510958.7249789382
0.8282850717147234	2515713.765688159
0.8284921429826521	2520469.9951575524
0.8286992660183978	2525227.413684317
0.8289064408349024	2529986.0215657097
0.8291136674451112	2534073.588260757
0.8293209458619727	2537314.5274454127
0.8295282760984382	2540556.27686486
0.829735658167463	2543798.836721666
0.8299430920820048	2547042.2072184323
0.8301505778550254	2550372.151963529
0.8303581154994891	2554045.236061736
0.8305657050283641	2557719.2384309713
0.8307733464546212	2561394.159300796
0.8309810397912352	2565069.9989008442
0.8311887850511829	2568746.757460785
0.8313965822474458	2575761.9043687144
0.8316044313930077	2582933.714661379
0.8318123325008561	2590107.317906623
0.8320202855839813	2597282.7145526744
0.8322282906553774	2604459.9050478884
0.8324363477280413	2609271.5240672086
0.8326444568149735	2613131.2528826115
0.8328526179291771	2616991.946630214
0.8330608310836596	2620853.6055512587
0.8332690962914304	2624716.229887029
0.8334774135655034	2628351.333281863
0.833685782918895	2631732.118420337
0.8338942043646247	2635113.748755093
0.834102677915716	2638496.2244974356
0.834311203585195	2641879.545858711
0.8345197813860912	2646050.020560016
0.8347284113314379	2652868.3224899857
0.8349370934342709	2659688.328995434
0.8351458277076294	2666510.0405025007
0.8353546141645565	2673333.4574374557
0.8355634528180977	2680158.580226641
0.8357723436813022	2679505.2006598767
0.8359812867672226	2678759.2962312237
0.8361902820889144	2678013.205326464
0.8363993296594368	2677266.9278989774
0.8366084294918518	2676520.463902134
0.8368175815992247	2681336.319454999
0.8370267859946247	2688069.1632285756
0.8372360426911234	2694803.6902130935
0.8374453517017962	2701539.9008293566
0.8376547130397217	2708277.795498273
0.8378641267179816	2713750.963029978
0.8380735927496613	2717968.8893307946
0.8382831111478488	2722187.870113184
0.8384926819256358	2726407.9056407674
0.8387023050961173	2730628.996177236
0.8389119806723914	2734843.4466340044
0.8391217086675596	2739037.2934673927
0.8393314890947265	2743232.1887624864
0.8395413219670003	2747428.132781404
0.8397512072974922	2751625.1257863296
0.8399611450993165	2755890.6690888554
0.8401711353855914	2763509.3567645736
0.8403811781694378	2771129.949112208
0.8405912734639802	2778752.4466079315
0.8408014212823464	2786376.8497280325
0.8410116216376671	2794003.1589489128
0.8412218745430766	2800955.255315633
0.8414321800117124	2807712.365042433
0.8416425380567154	2814471.164046668
0.8418529486912297	2821231.6527506555
0.8420634119284025	2827993.8315768135
0.8422739277813847	2833331.9809950893
0.8424844962633302	2837415.350349237
0.842695117387396	2841499.740545718
0.8429057911667428	2845585.1518397485
0.8431165176145345	2849671.584486604
0.8433272967439382	2853791.5970284673
0.8435381285681244	2857992.058263501
0.8437490131002665	2862193.5696138428
0.8439599503535415	2866396.131342019
0.84417094034113	2870599.7437106306
0.8443819830762154	2874863.2613932095
0.8445930785719846	2880313.4720936283
0.8448042268416277	2885765.045346719
0.8450154278983382	2891217.981493123
0.8452266817553128	2896672.280873562
0.8454379884257517	2902127.9438288477
0.8456493479228583	2907613.319884607
0.845860760259839	2913106.894108774
0.846072225449904	2918601.841726497
0.8462837435062666	2924098.1630811254
0.8464953144421433	2929595.8585160957
0.8467069382707537	2934548.971469198
0.8469186150053215	2939077.7660598457
0.847130344659073	2943607.692849143
0.8473421272452377	2948138.752120133
0.8475539627770492	2952670.944155945
0.8477658512677435	2957421.292369165
0.8479777927305605	2962633.648206663
0.8481897871787432	2967847.307133118
0.848401834625538	2973062.269474308
0.8486139350841944	2978278.5355560803
0.8488260885679657	2983448.661450184
0.8490382950901076	2988041.751259886
0.8492505546638802	2992635.989342043
0.8494628673025462	2997231.3759837192
0.8496752330193721	3001827.9114720626
0.8498876518276269	3006425.5960942716
0.8501001237405839	3009254.5237966217
0.8503126487715191	3011730.854340654
0.850525226933712	3014207.803967321
0.8507378582404455	3016685.372831394
0.8509505427050057	3019163.5610876847
0.8511632803406821	3022492.418103009
0.8513760711607672	3026404.235384508
0.8515889151785576	3030317.0306203337
0.8518018124073523	3034230.804054965
0.8520147628604541	3038145.555932952
0.8522277665511693	3043240.4761538864
0.8524408234928071	3050517.4388348395
0.8526539336986805	3057796.220756465
0.8528670971821053	3065076.8223735713
0.8530803139564007	3072359.2441410734
0.8532935840348901	3079600.1151157604
0.8535069074308987	3086476.502686965
0.8537202841577566	3093354.6093550674
0.8539337142287962	3100234.435549838
0.8541471976573534	3107115.9817011533
0.8543607344567677	3113999.2482390073
0.8545743246403821	3119941.717693907
0.8547879682215422	3125735.9901512726
0.8550016652135977	3131531.7111767516
0.8552154156299011	3137328.881132487
0.8554292194838088	3143127.500380716
0.8556430767886797	3148525.2948302
0.855856987557877	3153680.1883048024
0.8560709518047664	3158836.37050277
0.8562849695427177	3163993.8417462897
0.8564990407851035	3169152.6023576213
0.8567131655452999	3174319.9919751054
0.8569273438366862	3179500.6991541963
0.8571415756726455	3184682.7015100834
0.8573558610665638	3189865.999366561
0.8575702000318304	3195050.593047497
0.8577845925818384	3200284.7920647897
0.857999038729984	3205822.0566169308
0.8582135384896665	3211360.705485209
0.858428091874289	3216900.739015704
0.8586426988972576	3222442.157554581
0.8588573595719821	3227984.961448094
0.8590720739118751	3233054.0347437407
0.8592868419303532	3238068.357676437
0.8595016636408359	3243083.934189867
0.8597165390567462	3248100.7645974234
0.8599314681915105	3253118.849212583
0.8601464510585584	3257721.596982091
0.860361487671323	3262104.371649125
0.8605765780432408	3266488.2420098246
0.8607917221877518	3270873.2083381177
0.8610069201182988	3275259.270907992
0.8612221718483286	3274020.1756543834
0.8614374773912907	3264669.7635955065
0.8616528367606385	3255317.0139336176
0.8618682499698288	3245961.926084307
0.8620837170323213	3236604.4994630357
0.8622992379615795	3229141.654722454
0.8625148127710699	3231064.0807285374
0.8627304414742627	3232986.9873411227
0.8629461240846313	3234910.3746803617
0.8631618606156526	3236834.2428664356
0.8633776510808066	3238758.592019555
0.8635934954935769	3258832.442263214
0.8638093938674504	3280399.0189640666
0.8640253462159173	3301970.987309094
0.8642413525524714	3323548.3486462072
0.8644574128906095	3345131.10432365
0.8646735272438323	3350486.211808882
0.8648896956256433	3348293.8428699663
0.8651059180495498	3346100.925838815
0.8653221945290621	3343907.4605784086
0.8655385250776946	3341713.4469516836
0.8657549097089641	3344992.564068524
0.8659713484363913	3355280.013654334
0.8661878412735006	3365570.0351025453
0.866404388233819	3375862.629056117
0.8666209893308775	3386157.796158172
0.8668376445782103	3395364.071456641
0.8670543539893549	3400117.823157141
0.8672711175778525	3404872.7632955695
0.8674879353572469	3409628.892169027
0.8677048073410862	3414386.210074705
0.8679217335429217	3419144.717309862
0.8681387139763074	3425683.230233645
0.8683557486548015	3432311.744835679
0.8685728375919655	3438941.916566371
0.8687899808013633	3445573.7458399814
0.8690071782965637	3452207.2330709184
0.869224430091138	3457358.6621350734
0.8694417361986609	3461907.656672571
0.8696590966327107	3466457.788458702
0.869876511406869	3471009.05777778
0.8700939805347206	3475561.4649141855
0.8703115040298544	3480405.7749266974
0.870529081905862	3485583.724268881
0.8707467141763385	3490762.9680983988
0.8709644008548827	3495943.5067388737
0.8711821419550964	3501125.340514005
0.8713999374905854	3506602.026781234
0.871617787474958	3513093.2493959926
0.8718356919218269	3519586.0948164114
0.8720536508448075	3526080.563448185
0.8722716642575187	3532576.6556971134
0.8724897321735832	3539074.3719691066
0.8727078546066265	3545078.3069350147
0.8729260315702784	3551076.206138318
0.873144263078171	3557075.6048164153
0.8733625491439405	3563076.5033441833
0.8735808897812266	3569078.9020965854
0.8737992850036719	3573618.9982874845
0.874017734824923	3577641.774491724
0.8742362392586293	3581665.5563900126
0.874454798318444	3585690.344233776
0.8746734120180236	3589716.138274499
0.8748920803710283	3594384.5139987827
0.875110803391121	3599698.7787946104
0.8753295810919689	3605014.3721566405
0.875548413487242	3610331.2944170106
0.8757673005906139	3615649.5459079463
0.8759862424157616	3621852.7080196915
0.8762052389763657	3630614.1044116993
0.8764242902861098	3639377.691152799
0.8766433963586814	3648143.4687905866
0.8768625572077712	3656911.437872786
0.8770817728470732	3665636.422078864
0.8773010432902849	3670836.291638903
0.8775203685511077	3676037.461166339
0.8777397486432454	3681239.93098615
0.8779591835804065	3686443.701423423
0.8781786733763015	3691648.7728032977
0.8783982180446457	3692854.768887999
0.878617817599157	3692871.0292169894
0.8788374720535569	3692887.293611062
0.8790571814215703	3692903.562071234
0.8792769457169257	3692919.8345985203
0.879496764953355	3694154.286397997
0.8797166391445934	3696484.2663300564
0.8799365683043796	3698814.8287570993
0.8801565524464557	3701145.9738247492
0.8803765915845676	3703477.7016786677
0.8805966857324639	3708352.0734901046
0.880816834903897	3719612.5591120054
0.881037039112623	3730875.859855316
0.8812572983724012	3742141.9764238116
0.8814776126969944	3753410.9095214545
0.8816979821001687	3764545.344671277
0.8819184065956938	3772450.140954304
0.8821388861973429	3780356.91343641
0.8823594209188923	3788265.662611629
0.882580010774122	3796176.388974138
0.8828006557768155	3804089.093018242
0.8830213559407598	3811499.405332536
0.8832421112797452	3818784.7160738814
0.8834629218075651	3826071.8481429084
0.8836837875380171	3833360.8019949542
0.8839047084849018	3840651.5780854644
0.884125684662023	3843405.6253122035
0.8843467160831886	3842523.2916169185
0.8845678027622095	3841640.73733821
0.8847889447129001	3840757.962420931
0.8850101419490785	3839874.9668099233
0.8852313944845657	3843165.8364318362
0.885452702333187	3855594.0910309376
0.8856740655087704	3868025.452693687
0.8858954840251476	3880459.9221968483
0.8861169578961539	3892897.50031738
0.886338487135628	3904436.859953849
0.886560071757412	3903984.767666043
0.8867817117753515	3903532.562355165
0.8870034072032955	3903080.2439929587
0.8872251580550963	3902627.8125511627
0.8874469643446101	3902175.2680015056
0.8876688260856963	3909233.22519484
0.8878907432922178	3917847.3648808617
0.8881127159780409	3926463.658101799
0.8883347441570356	3935082.105396052
0.8885568278430749	3943702.707302119
0.8887789670500358	3949963.1833708626
0.8890011617917983	3954549.484684685
0.8892234120822464	3959136.9325738377
0.8894457179352669	3963725.527324959
0.8896680793647509	3968315.2692247718
0.8898904963845921	3972023.142485542
0.8901129690086883	3974047.1248009163
0.8903354972509405	3976071.6131118694
0.8905580811252535	3978096.6075449013
0.8907807206455347	3980122.108226539
0.8910034158256963	3981762.1559848515
0.8912261666796527	3979953.309450167
0.8914489732213227	3978144.0107038487
0.8916718354646282	3976334.2596328417
0.8918947534234944	3974524.0561240693
0.8921177271118502	3972713.4000644204
0.8923407565436284	3973616.0333681097
0.8925638417327644	3974961.577444907
0.8927869826931977	3976307.4579077233
0.8930101794388711	3977653.6748406556
0.8932334319837308	3979000.2283278205
0.8934567403417267	3981724.419568832
0.8936801045268123	3985305.1223718673
0.8939035245529441	3988886.720350601
0.8941270004340824	3992469.21372883
0.894350532184191	3996052.6027304037
0.8945741198172371	4006359.5506509095
0.8947977633471915	4027817.8101085215
0.8950214627880284	4049281.4341309965
0.8952452181537254	4070750.424059465
0.8954690294582639	4092224.781235428
0.8956928967156286	4111518.24715314
0.8959168199398075	4116628.4888345147
0.8961407991447926	4121740.008076311
0.8963648343445789	4126852.805197918
0.896588925553165	4131966.8805188015
0.8968130727845534	4137082.2343585165
0.8970372760527496	4140016.223960544
0.8972615353717629	4142677.854456745
0.8974858507556059	4145340.1503605708
0.8977102222182949	4148003.1118383715
0.8979346497738496	4150666.739056543
0.8981591334362931	4161866.1364417863
0.8983836732196523	4177735.98150576
0.8986082691379572	4193609.7940309895
0.8988329212052417	4209487.575009351
0.8990576294355432	4225369.32543297
0.8992823938429022	4236986.5343020735
0.8995072144413631	4242259.912585902
0.8997320912449734	4247534.6092143
0.8999570242677847	4252810.624516853
0.9001820135238516	4258087.958823233
0.9004070590272328	4263587.307314035
0.9006321607919896	4270244.9883430125
0.9008573188321878	4276904.333792254
0.9010825331618959	4283565.344077855
0.9013078037951865	4290228.019616028
0.9015331307461353	4296892.360823084
0.9017585140288219	4304919.846841837
0.9019839536573292	4313066.607423749
0.9022094496457435	4321215.4046958005
0.9024350020081551	4329366.239167179
0.9026606107586572	4337519.111347173
0.902886275911347	4346969.896673437
0.9031119974803249	4357047.746612678
0.9033377754796951	4367128.116014404
0.903563609923565	4377211.005508475
0.903789500826046	4387296.415724928
0.9040154482012526	4395120.859619904
0.904241452063303	4400015.10897991
0.9044675124263188	4404910.581902253
0.9046936293044254	4409807.278692828
0.9049198027117517	4414705.199657602
0.9051460326624297	4420223.827417565
0.9053723191705955	4428381.734645387
0.9055986622503881	4436541.6813500095
0.9058250619159507	4444703.668041308
0.9060515181814298	4452867.695229284
0.9062780310609752	4461033.763424052
0.9065046005687405	4461549.88931633
0.906731226718883	4461639.262686014
0.9069579095255627	4461728.65839904
0.907184649002944	4461818.076460995
0.907411445165195	4461907.516877465
0.9076382980264862	4470244.358183494
0.907865207600993	4482008.404728275
0.9080921739028933	4493775.392284689
0.9083191969463691	4505545.32158799
0.9085462767456058	4517318.193373622
0.9087734133147922	4526714.552567407
0.9090006066681211	4533364.959896779
0.909227856819788	4540017.029827974
0.9094551637839932	4546670.762776661
0.9096825275749393	4553326.159158583
0.9099099482068329	4560219.94953833
0.9101374256938848	4567956.806419098
0.9103649600503083	4575695.597514083
0.9105925512903209	4583436.323306839
0.9108201994281437	4591178.984281053
0.9110479044780008	4598923.580920501
0.9112756664541204	4606734.55955174
0.911503485370734	4614548.966081613
0.9117313612420768	4622365.326213117
0.9119592940823873	4630183.640434653
0.912187283905908	4638003.909234745
0.9124153307268845	4639030.6469389945
0.9126434345595664	4637591.277057315
0.9128715954182063	4636151.547333168
0.9130998133170609	4634711.457676588
0.9133280882703902	4633271.007997594
0.913556420292458	4636853.713492917
0.9137848093975312	4645618.140154023
0.9140132555998806	4654384.757921793
0.9142417589137806	4663153.567344005
