#wavelength	surface flux
0.7	2049.18343736595
0.7001166666666666	2053.6894654624352
0.7002333527777778	2057.9911808748493
0.700350058336574	2062.2936132398304
0.7004667833462966	2066.596762676866
0.7005835278101878	2070.9006293054867
0.7007002917314895	2075.2052132452054
0.7008170751134447	2079.5105146155797
0.7009338779592968	2083.8165335361805
0.7010507002722901	2087.9086169812
0.7011675420556689	2091.740163832931
0.701284403312678	2095.572349275798
0.7014012840465635	2099.4051734162445
0.7015181842605713	2103.2386363607134
0.701635103957948	2107.07273821567
0.701752043141941	2110.9074790876025
0.701869001815798	2114.7428590830186
0.7019859799827672	2118.943824540883
0.7021029776460976	2123.39947218815
0.7022199948090387	2127.8558624433635
0.7023370314748403	2132.312995430285
0.7024540876467528	2136.770871272703
0.702571163328027	2141.229490094421
0.7026882585219152	2145.688852019288
0.7028053732316688	2150.148957171136
0.7029225074605406	2155.1981213172166
0.7030396612117841	2160.4753026414137
0.7031568344886527	2165.753363495832
0.7032740272944008	2171.0323040270564
0.7033912396322832	2176.3121243817054
0.7035084715055552	2181.592824706408
0.7036257229174727	2186.8744051478334
0.7037429938712924	2192.1568658526708
0.7038602843702709	2197.237543144472
0.7039775944176659	2202.284693948353
0.7040949240167356	2207.3326859440363
0.7042122731707383	2212.381519271716
0.7043296418829335	2217.43119407162
0.7044470301565806	2222.48171048399
0.70456443799494	2227.5330686490915
0.7046818654012724	2232.5852687072233
0.7047993123788394	2237.4685218377863
0.7049167789309024	2242.352394003494
0.7050342650607243	2247.237080147903
0.7051517707715678	2252.1225804066676
0.7052692960666963	2257.0088949154724
0.705386840949374	2261.8960238100267
0.7055044054228656	2266.7839672260716
0.7056219894904361	2271.62171447341
0.7057395931553511	2276.136099643464
0.705857216420877	2280.6512372110506
0.7059748592902804	2285.1671273015622
0.7060925217668288	2289.6837700404267
0.70621020385379	2294.2011655530805
0.7063279055544321	2298.7193139649803
0.7064456268720246	2303.2382154016227
0.7065633678098366	2307.8476398029384
0.7066811283711383	2312.7050601567603
0.7067989085592001	2317.5632900806418
0.7069167083772933	2322.422329709507
0.7070345278286895	2327.282179178314
0.707152366916661	2332.1428386220327
0.7072702256444803	2337.004308175654
0.7073881040154211	2341.8665879742066
0.7075060020327569	2346.897864267466
0.7076239196997625	2352.17491651178
0.7077418570197124	2357.452848264795
0.7078598139958823	2362.731659673103
0.7079777906315483	2368.011350883317
0.7080957869299869	2373.2919220420617
0.7082138028944751	2378.573373295997
0.7083318385282908	2383.855704791812
0.7084498938347124	2388.6746582646447
0.708567968817018	2393.100807128792
0.7086860634784875	2397.5276936844216
0.7088041778224007	2401.9553180544804
0.7089223118520377	2406.383680361929
0.7090404655706796	2410.812780729759
0.709158638981608	2415.242619280989
0.709276832088105	2419.6731961386454
0.7093950448934531	2424.8407177212694
0.7095132774009353	2430.360205282015
0.7096315296138355	2435.880612757357
0.7097498015354378	2441.4019403006096
0.7098680931690269	2446.924188065114
0.7099864045178884	2452.4473562042526
0.7101047355853081	2457.971444871414
0.7102230863745722	2463.4964542200155
0.7103414568889679	2468.9899533032994
0.7104598471317828	2474.4769988597277
0.7105782571063047	2479.964958923744
0.7106966868158224	2485.453833647771
0.710815136263625	2490.9436231842506
0.7109336054530023	2496.4343276856566
0.7110520943872445	2501.9259473044776
0.7111706030696424	2507.418482193238
0.7112891315034873	2512.6541572272513
0.7114076796920712	2517.8784056729146
0.7115262476386865	2523.1035248266526
0.7116448353466263	2528.329514833579
0.711763442819184	2533.5563758388425
0.711882070059654	2538.784107987612
0.7120007170713306	2544.0127114250695
0.7121193838575091	2549.252410561221
0.7122380704214853	2554.5996194452277
0.7123567767665555	2559.94771953071
0.7124755028960166	2565.2967109662086
0.7125942488131658	2570.646593900276
0.7127130145213015	2575.9973684815136
0.7128318000237216	2581.3490348584983
0.7129506053237256	2586.701593179887
0.7130694304246129	2592.0576774561173
0.7131882753296837	2597.423863321723
0.7133071400422386	2602.790943551641
0.7134260245655789	2608.1589182949265
0.7135449289030065	2613.5277877006715
0.7136638530578235	2618.8975519179808
0.7137827970333332	2624.268211096001
0.7139017608328388	2629.639765383883
0.7140207444596443	2635.026803106492
0.7141397479170543	2640.440762526296
0.7142587712083737	2645.855624272663
0.7143778143369084	2651.271388495992
0.7144968773059646	2656.6880553466926
0.7146159601188489	2662.1056249752
0.7147350627788687	2667.5240975319794
0.7148541852893318	2672.9434731675155
0.7149733276535467	2678.2127688554774
0.7150924898748222	2683.330694698512
0.715211671956468	2688.4494735291883
0.7153308739017941	2693.5691054896733
0.715450095714111	2698.6895907221497
0.71556933739673	2703.8109293688317
0.7156885989529628	2708.9331215719544
0.7158078803861218	2714.0561674737855
0.7159271816995193	2718.0200199639357
0.7160465028964692	2721.303657732427
0.7161658439802853	2724.58784277388
0.7162852049542819	2727.872575179506
0.7164045858217744	2731.1578550405343
0.716523986586078	2734.4436824482054
0.7166434072505089	2737.730057493776
0.716762847818384	2741.016980268522
0.7168823082930204	2745.6061736445085
0.7170017886777359	2750.5790931885567
0.7171212889758488	2755.5528415525255
0.7172408091906781	2760.5274188745566
0.7173603493255433	2765.5028252928096
0.7174799093837642	2770.4790609454626
0.7175994893686615	2775.4561259707266
0.7177190892835562	2780.434020506826
0.7178387091317702	2789.1862408618604
0.7179583489166254	2798.3187143045634
0.7180780086414448	2807.4527098261806
0.7181976883095517	2816.5882276803845
0.7183173879242699	2825.7252681208984
0.718437107488924	2834.8638314014875
0.7185568470068389	2844.0039177759604
0.7186766064813399	2853.0048465539007
0.7187963859157535	2858.4899418457553
0.7189161853134061	2863.9759513201584
0.719036004677625	2869.462875129475
0.7191558440117378	2874.950713426089
0.7192757033190732	2880.439466362427
0.7193955826029597	2885.9291340909144
0.7195154818667269	2891.419716764028
0.7196354011137046	2896.858312730176
0.7197553403472235	2902.0542457667907
0.7198752995706147	2907.2510447922423
0.7199952787872098	2912.4487099508688
0.720115278000341	2917.6472413870215
0.7202352972133411	2922.846639245081
0.7203553364295432	2928.046903669442
0.7204753956522815	2933.2480348045483
0.7205954748848902	2939.0423083916057
0.7207155741307044	2946.1432940214067
0.7208356933930594	2953.2454631488
0.7209558326752915	2960.3488159710496
0.7210759919807375	2967.4533526854457
0.7211961713127342	2974.559073489285
0.7213163706746197	2981.665978579936
0.7214365900697322	2988.774068154762
0.7215568295014103	2995.3685184152823
0.721677088972994	3001.34979599498
0.7217973684878227	3007.332070454264
0.7219176680492374	3013.315341959298
0.7220379876605789	3019.2996106762466
0.722158327325189	3025.2848767713162
0.7222786870464099	3031.2711404107326
0.7223990668275843	3037.2584017607574
0.7225194666720555	3042.4452062647306
0.7226398865831676	3047.0648642096476
0.7227603265642646	3051.685292097545
0.722880786618692	3056.306490056766
0.7230012667497951	3060.9284582156442
0.7231217669609201	3065.5511967025495
0.7232422872554135	3070.174705645865
0.7233628276366229	3074.7989851740126
0.7234833881078956	3081.6899663302906
0.7236039686725803	3089.4423825054823
0.7237245693340255	3097.1960907500243
0.7238451900955812	3104.951091279288
0.7239658309605971	3112.707384308631
0.7240864919324239	3120.4649700534887
0.7242071730144127	3128.223848729305
0.724327874209915	3135.98402055155
0.7244485955222832	3139.248757908386
0.7245693369548704	3141.7705434324344
0.7246900985110294	3144.2927492540666
0.7248108801941148	3146.8153754433424
0.7249316820074803	3149.338422070308
0.7250525039544815	3151.861889205049
0.7251733460384739	3154.385776917646
0.7252942082628137	3156.9208781189836
0.7254150906308574	3165.7101156311455
0.7255359931459625	3174.5008180162263
0.7256569158114868	3183.2929855183747
0.7257778586307888	3192.0866183817775
0.7258988216072273	3200.881716850655
0.7260198047441617	3209.6782811692674
0.7261408080449525	3218.476311581948
0.72626183151296	3227.024602273671
0.7263828751515454	3233.9049092852183
0.7265039389640706	3240.7863630146
0.726625022953898	3247.6689636529404
0.7267461271243904	3254.5527113913904
0.7268672514789111	3261.437606421126
0.7269883960208241	3268.3236489333603
0.7271095607534942	3275.2108391193515
0.7272307456802866	3282.211616827949
0.7273519508045666	3289.51728798782
0.7274731761297006	3296.824176759548
0.7275944216590555	3304.1322833460713
0.7277156873959987	3311.4416079503612
0.7278369733438982	3318.7521507754304
0.727958279506122	3326.063912024284
0.7280796058860397	3333.3768919000217
0.7282009524870207	3339.637608980029
0.7283223193124353	3344.3411528728975
0.7284437063656539	3349.045480689738
0.7285651136500483	3353.750592561222
0.7286865411689898	3358.456488618009
0.7288079889258514	3363.1631689908168
0.7289294569240056	3367.870633810342
0.7290509451668262	3372.5788832073426
0.7291724536576875	3377.769736535794
0.7292939823999636	3383.360694099632
0.7294155313970303	3388.9525834897418
0.7295371006522632	3394.5454048614147
0.7296586901690385	3400.1391583699788
0.7297802999507332	3405.733844170792
0.7299019300007252	3411.329462419253
0.7300235803223919	3416.9260132707404
0.7301452509191123	3424.647526763446
0.7302669417942654	3433.3507144783157
0.7303886529512311	3442.0553527244733
0.7305103843933897	3450.761441743675
0.7306321361241218	3459.4689817777057
0.7307539081468093	3468.1779730684243
0.7308757004648336	3476.8884158576734
0.7309975130815778	3485.6003103873973
0.7311193460004248	3495.545658715508
0.7312411992247582	3505.771574085017
0.7313630727579622	3515.999193773752
0.7314849666034219	3526.228518065778
0.7316068807645224	3536.4595472451806
0.7317288152446498	3546.6922815961175
0.7318507700471907	3556.926721402785
0.7319727451755319	3567.162866949416
0.732094740633061	3574.0493232171175
0.7322167564231665	3580.7860463496013
0.7323387925492371	3587.5238922692743
0.7324608490146619	3594.2628611632654
0.732582925822831	3601.0029532187405
0.7327050229771347	3607.744168622884
0.7328271404809642	3614.4865075629345
0.7329492783377112	3621.138407741709
0.7330714365507675	3626.8912604474062
0.7331936151235259	3632.6450719618865
0.7333158140593796	3638.399842444946
0.7334380333617229	3644.1555720564284
0.7335602730339499	3649.9122609561814
0.7336825330794556	3655.669909304086
0.7338048135016354	3661.4285172600376
0.7339271143038857	3668.0874241967413
0.734049435489603	3677.760843994691
0.7341717770621846	3687.4358760292757
0.7342941390250283	3697.1125205691947
0.7344165213815324	3706.7907778831996
0.734538924135096	3716.4706482401048
0.7346613472891185	3726.1521319087233
0.734783790847	3735.8352291579563
0.7349062548121412	3744.2888677876545
0.7350287391879431	3750.56794449009
0.7351512439778078	3756.8480677053226
0.7352737691851374	3763.1292376077495
0.735396314813335	3769.411454371833
0.7355188808658037	3775.694718172033
0.7356414673459482	3781.9790291828795
0.7357640742571725	3788.26438757889
0.7358867016028818	3795.4919714626226
0.7360093493864824	3803.650258023345
0.7361320176113801	3811.809904298483
0.736254706280982	3819.970910514667
0.7363774153986956	3828.1332768985644
0.7365001449679286	3836.2970036768425
0.7366228949920899	3844.4620910762565
0.7367456654745885	3852.6285393235707
0.7368684564188344	3860.6305873241113
0.7369912678282374	3868.5402841937344
0.7371140997062088	3876.451299346172
0.7372369520561599	3884.3636330011427
0.7373598248815024	3892.2772853783717
0.7374827181856494	3900.1922566976764
0.7376056319720137	3908.1085471788683
0.7377285662440091	3916.026157041809
0.7378515210050496	3924.124507585957
0.7379744962585505	3932.2781901998
0.738097492007927	3940.4332317607436
0.7382205082565949	3948.5896324952755
0.738343545007971	3956.747392629928
0.7384666022654723	3964.9065123912783
0.7385896800325165	3973.0669920059095
0.7387127783125219	3981.228831700487
0.7388358971089073	3990.194562373989
0.7389590364250921	3999.2422831543054
0.7390821962644963	4008.2915118880915
0.7392053766305403	4017.3422488266538
0.7393285775266454	4026.394494221379
0.7394517989562333	4035.448248323679
0.7395750409227259	4044.503511384981
0.7396983034295463	4053.5141219435354
0.739821586480118	4061.4993326048907
0.7399448900778645	4069.4858741346734
0.7400682142262109	4077.4737467547357
0.740191558928582	4085.462950686893
0.7403149241884034	4093.453486153032
0.7404383100091014	4101.445353375085
0.7405617163941028	4109.438552575002
0.7406851433468352	4117.2411978176915
0.7408085908707264	4124.167310479378
0.7409320589692048	4131.094577493172
0.7410555476456997	4138.0229990514745
0.7411790569036406	4144.952575346697
0.7413025867464579	4151.883306571305
0.7414261371775823	4158.815192917785
0.7415497082004452	4165.748234578651
0.7416732998184786	4172.824529393
0.741796912035115	4180.20683101855
0.7419205448537874	4187.590363027702
0.7420441982779297	4194.975125625521
0.742167872310976	4202.361119017115
0.7422915669563612	4209.748343407607
0.7424152822175206	4217.136799002161
0.7425390180978901	4224.526486005977
0.7426627746009065	4233.084279059365
0.7427865517300065	4243.06600190578
0.7429103494886282	4253.049388372679
0.7430341678802096	4263.034438737313
0.7431580069081896	4273.02115327701
0.7432818665760077	4283.009532269143
0.7434057468871037	4292.9995759911
0.7435296478449182	4302.991284720338
0.7436535694528923	4312.454570214007
0.7437775117144678	4321.556571070284
0.7439014746330868	4330.66008892669
0.7440254582121922	4339.76512403608
0.7441494624552276	4348.871676651325
0.7442734873656368	4357.979747025338
0.7443975329468645	4367.089335411088
0.7445215992023557	4376.200442061567
0.7446456861355559	4384.821425659018
0.7447697937499119	4393.26273838646
0.7448939220488703	4401.705457999354
0.7450180710358784	4410.149584732176
0.7451422407143843	4418.595118819455
0.7452664310878367	4427.042060495756
0.7453906421596846	4435.49040999566
0.7455148739333779	4443.940167553818
0.7456391264123667	4452.483642283602
0.7457633996001021	4461.04330060511
0.7458876935000356	4469.604385536353
0.7460120081156189	4478.166897315069
0.7461363434503048	4486.730836179085
0.7462606995075466	4495.296202366252
0.7463850762907978	4503.862996114439
0.7465094738035127	4512.432173458093
0.7466338920491467	4521.252810048931
0.746758331031155	4530.074916745877
0.7468827907529935	4538.898493793929
0.7470072712181189	4547.723541438156
0.7471317724299886	4556.550059923658
0.7472562943920602	4565.378049495569
0.7473808371077922	4574.207510399083
0.7475054005806435	4583.06034427198
0.7476299848140736	4592.0495576062385
0.7477545898115426	4601.040269142722
0.7478792155765113	4610.03247913113
0.7480038621124406	4619.026187821195
0.7481285294227926	4628.021395462707
0.7482532175110298	4637.018102305502
0.7483779263806148	4646.016308599425
0.7485026560350116	4655.002752010051
0.7486274064776842	4663.954798473376
0.748752177712097	4672.90833694443
0.7488769697417158	4681.863367671913
0.749001782570006	4690.819890904507
0.7491266162004343	4699.77790689097
0.7492514706364677	4708.737415880103
0.7493763458815739	4717.698418120742
0.7495012419392209	4726.599988854393
0.7496261588128773	4735.4154562246695
0.7497510965060128	4744.2323928395135
0.7498760550220971	4753.05079894379
0.7500010343646007	4761.870674782418
0.7501260345369949	4770.692020600358
0.750251055542751	4779.51483664259
0.7503760973853414	4788.339123154168
0.7505011600682389	4797.0797947296405
0.750626243594917	4805.750878511112
0.7507513479688495	4814.423407473201
0.7508764731935109	4823.097381856786
0.7510016192723765	4831.772801902771
0.7511267862089218	4840.449667852089
0.7512519740066232	4849.127979945734
0.7513771826689577	4857.807738424734
0.7515024121994025	4866.362011046135
0.7516276626014359	4874.858526322391
0.751752933878536	4883.356457684512
0.7518782260341824	4891.855805368528
0.7520035390718548	4900.356569610497
0.7521288729950334	4908.858750646501
0.7522542278071992	4917.362348712678
0.7523796035118337	4925.867364045203
0.7525050001124189	4934.293982583384
0.7526304176124378	4942.704647733426
0.7527558560153731	4951.116714660982
0.752881315324709	4959.530183599702
0.7530067955439299	4967.945054783247
0.7531322966765205	4976.361328445311
0.7532578187259665	4984.779004819656
0.7533833616957542	4993.198084140062
0.75350892558937	5001.523394280132
0.7536345104103016	5009.845616695521
0.7537601161620366	5018.169226147974
0.7538857428480638	5026.494222868677
0.7540113904718717	5034.820607088824
0.7541370590369503	5043.1483790396705
0.7542627485467898	5051.477538952516
0.7543884590048808	5059.754957509671
0.7545141904147151	5067.503941753701
0.7546399427797842	5075.254217495093
0.7547657161035808	5083.0057849491095
0.754891510389598	5090.758644331034
0.7550173256413296	5098.5127958561925
0.7551431618622698	5106.268239739937
0.7552690190559135	5114.024976197659
0.7553948972257561	5121.641376643729
0.7555207963752938	5128.783651925392
0.755646716508023	5135.927117586265
0.755772657627441	5143.07177382475
0.7558986197370455	5150.217620839277
0.756024602840335	5157.364658828304
0.7561506069408084	5164.512887990328
0.7562766320419653	5171.662308523886
0.7564026781473054	5178.442113498973
0.75652874526033	5184.570526823691
0.7566548333845401	5190.699961550631
0.7567809425234375	5196.830417850024
0.7569070726805247	5202.96189589213
0.7570332238593047	5209.094395847243
0.7571593960632813	5215.227917885686
0.7572855892959586	5221.3624621778035
0.7574118035608413	5226.974320730781
0.7575380388614347	5232.074753806044
0.7576642952012449	5237.176036953489
0.7577905725837782	5242.278170314784
0.7579168710125422	5247.381154031648
0.7580431904910444	5252.4849882458
0.7581695310227928	5257.5896730989825
0.7582958926112967	5262.695208732979
0.7584222752600652	5266.272715268576
0.7585486789726085	5268.972534831647
0.7586751037524372	5271.672804364647
0.7588015496030628	5274.373523942574
0.7589280165279966	5277.074693640426
0.7590545045307512	5279.776313533226
0.7591810136148396	5282.47838369601
0.7593075437837755	5285.180904203823
0.7594340950410726	5285.365071581475
0.7595606673902461	5284.818472626589
0.7596872608348112	5284.271782571876
0.7598138753782836	5283.725001402156
0.75994051102418	5283.178129102239
0.7600671677760173	5282.63116565694
0.7601938456373134	5282.084111051066
0.7603205446115863	5281.536965269425
0.7604472647023548	5275.25289143374
0.7605740059131385	5268.397529353516
0.7607007682474575	5261.541024712938
0.7608275517088319	5254.683377321602
0.7609543563007835	5247.82458698902
0.7610811820268336	5240.964653524718
0.7612080288905045	5234.103576738186
0.7613348968953197	5226.644453669039
0.7614617860448022	5206.936960564937
0.7615886963424764	5187.226182878626
0.7617156277918667	5167.512120062719
0.7618425803964988	5147.79477156966
0.7619695541598982	5128.074136851857
0.7620965490855914	5108.3502153616155
0.7622235651771058	5088.623006551104
0.7623506024379685	5064.66092951764
0.7624776608717082	5022.147380194793
0.7626047404818536	4979.62674528039
0.7627318412719337	4937.099023593575
0.762858963245479	4894.564213953118
0.7629861064060198	4852.022315177717
0.7631132707570876	4809.47332608581
0.7632404563022137	4766.917245495759
0.7633676630449308	4707.6968464684705
0.7634948909887717	4613.00887426061
0.7636221401372697	4518.305120724172
0.7637494104939593	4423.585583228722
0.7638767020623748	4328.8502591438255
0.7640040148460518	4234.09914583814
0.7641313488485262	4139.332240680242
0.7642587040733344	4044.549541038042
0.7643860805240132	3897.380994228703
0.7645134782041005	3687.6947506115835
0.7646408971171346	3477.973559287107
0.764768337266654	3268.21741443082
0.7648957986561985	3058.4263102169894
0.7650232812893079	2848.6002408191507
0.7651507851695227	2638.7392004097437
0.7652783103003843	2428.8431831602943
0.7654058566854343	2214.7603213700286
