#wavelength	surface flux
0.7	915281.8732719882
0.7001166666666666	916633.9616941421
0.7002333527777778	917843.8775779516
0.700350058336574	919053.995114408
0.7004667833462966	920264.3143371188
0.7005835278101878	921474.8352797034
0.7007002917314895	922685.5579757765
0.7008170751134447	923896.4824589654
0.7009338779592968	925107.6087629009
0.7010507002722901	926181.7096058996
0.7011675420556689	927088.9929462288
0.701284403312678	927996.4275004464
0.7014012840465635	928904.0132937579
0.7015181842605713	929811.750351368
0.701635103957948	930719.638698487
0.701752043141941	931627.6783603304
0.701869001815798	932535.8693621188
0.7019859799827672	933536.225280543
0.7021029776460976	934600.7841757024
0.7022199948090387	935665.5204973456
0.7023370314748403	936730.434275042
0.7024540876467528	937795.5255383678
0.702571163328027	938860.7943169025
0.7026882585219152	939926.2406402364
0.7028053732316688	940991.864537956
0.7029225074605406	942517.1642136191
0.7030396612117841	944220.1514239876
0.7031568344886527	945923.4224655582
0.7032740272944008	947626.9773856346
0.7033912396322832	949330.8162315318
0.7035084715055552	951034.9390505684
0.7036257229174727	952739.3458900754
0.7037429938712924	954444.0367973907
0.7038602843702709	956051.7680569222
0.7039775944176659	957643.2740178554
0.7040949240167356	959235.0452297826
0.7042122731707383	960827.0817369111
0.7043296418829335	962419.3835834583
0.7044470301565806	964011.9508136463
0.70456443799494	965604.7834717048
0.7046818654012724	967197.8816018739
0.7047993123788394	968565.1479253385
0.7049167789309024	969932.3826698089
0.7050342650607243	971299.8452867391
0.7051517707715678	972667.5358141046
0.7052692960666963	974035.4542898907
0.705386840949374	975403.6007520889
0.7055044054228656	976771.9752386997
0.7056219894904361	978096.451357437
0.7057395931553511	979140.7294551906
0.705857216420877	980185.1815992948
0.7059748592902804	981229.8078187556
0.7060925217668288	982274.6081425876
0.70621020385379	983319.5825998066
0.7063279055544321	984364.7312194337
0.7064456268720246	985410.0540304992
0.7065633678098366	986503.403920517
0.7066811283711383	987728.7236852829
0.7067989085592001	988954.2476700096
0.7069167083772933	990179.975908733
0.7070345278286895	991405.908435497
0.707152366916661	992632.0452843489
0.7072702256444803	993858.3864893409
0.7073881040154211	995084.9320845355
0.7075060020327569	996420.0820737075
0.7076239196997625	997913.3225981123
0.7077418570197124	999406.8119959363
0.7078598139958823	1000900.55030866
0.7079777906315483	1002394.5375777705
0.7080957869299869	1003888.773844758
0.7082138028944751	1005383.2591511226
0.7083318385282908	1006877.9935383728
0.7084498938347124	1008006.9085835664
0.708567968817018	1008825.6514571707
0.7086860634784875	1009644.5307879216
0.7088041778224007	1010463.5465985615
0.7089223118520377	1011282.6989118354
0.7090404655706796	1012101.9877504945
0.709158638981608	1012921.4131372942
0.709276832088105	1013740.975094992
0.7093950448934531	1015081.4095857915
0.7095132774009353	1016670.4120695682
0.7096315296138355	1018259.6793870928
0.7097498015354378	1019849.2115825032
0.7098680931690269	1021439.0086999446
0.7099864045178884	1023029.0707835744
0.7101047355853081	1024619.397877551
0.7102230863745722	1026209.9900260422
0.7103414568889679	1027728.9891926426
0.7104598471317828	1029231.9136768876
0.7105782571063047	1030735.0886485456
0.7106966868158224	1032238.5141493652
0.710815136263625	1033742.1902211015
0.7109336054530023	1035246.1169055174
0.7110520943872445	1036750.2942443801
0.7111706030696424	1038254.7222794668
0.7112891315034873	1039497.485384181
0.7114076796920712	1040727.9588652345
0.7115262476386865	1041958.6374252016
0.7116448353466263	1043189.5210982611
0.711763442819184	1044420.6099186001
0.711882070059654	1045651.9039204102
0.7120007170713306	1046883.4031378865
0.7121193838575091	1048119.6077599989
0.7122380704214853	1049402.9538785233
0.7123567767665555	1050686.513888066
0.7124755028960166	1051970.2878242775
0.7125942488131658	1053254.275722811
0.7127130145213015	1054538.4776193309
0.7128318000237216	1055822.8935494963
0.7129506053237256	1057107.5235489854
0.7130694304246129	1058380.1798910701
0.7131882753296837	1059610.4356316586
0.7133071400422386	1060840.896414871
0.7134260245655789	1062071.5622748798
0.7135449289030065	1063302.4332458656
0.7136638530578235	1064533.5093620126
0.7137827970333332	1065764.790657514
0.7139017608328388	1066996.2771665645
0.7140207444596443	1068225.3045131327
0.7141397479170543	1069449.7836541773
0.7142587712083737	1070674.466875077
0.7143778143369084	1071899.354209848
0.7144968773059646	1073124.445692508
0.7146159601188489	1074349.7413570818
0.7147350627788687	1075575.2412375994
0.7148541852893318	1076800.945368097
0.7149733276535467	1077795.7845347407
0.7150924898748222	1078557.7844430488
0.715211671956468	1079319.9113513418
0.7153308739017941	1080082.1652807868
0.715450095714111	1080844.546252553
0.71556933739673	1081607.0542878145
0.7156885989529628	1082369.6894077484
0.7158078803861218	1083132.451633537
0.7159271816995193	1083128.7921176828
0.7160465028964692	1082675.2156297986
0.7161658439802853	1082221.563545833
0.7162852049542819	1081767.8358531871
0.7164045858217744	1081314.0325392587
0.716523986586078	1080860.153591445
0.7166434072505089	1080406.19899714
0.716762847818384	1079952.1687437359
0.7168823082930204	1080507.0615316874
0.7170017886777359	1081358.8899292625
0.7171212889758488	1082210.8602982364
0.7172408091906781	1083062.9726622722
0.7173603493255433	1083915.2270450355
0.7174799093837642	1084767.6234701956
0.7175994893686615	1085620.1619614267
0.7177190892835562	1086472.8425424062
0.7178387091317702	1089726.5595853461
0.7179583489166254	1093221.827585342
0.7180780086414448	1096717.6781300076
0.7181976883095517	1100214.1113164306
0.7183173879242699	1103711.1272417181
0.718437107488924	1107208.726002994
0.7185568470068389	1110706.9076973982
0.7186766064813399	1114109.9561060634
0.7187963859157535	1115120.452848083
0.7189161853134061	1116131.1180062266
0.719036004677625	1117141.951608563
0.7191558440117378	1118152.9536831658
0.7192757033190732	1119164.1242581161
0.7193955826029597	1120175.463361494
0.7195154818667269	1121186.9710213903
0.7196354011137046	1122110.2882032816
0.7197553403472235	1122626.9383528442
0.7198752995706147	1123143.6746107647
0.7199952787872098	1123660.4969913953
0.720115278000341	1124177.4055090891
0.7202352972133411	1124694.400178203
0.7203553364295432	1125211.4810130938
0.7204753956522815	1125728.6480281248
0.7205954748848902	1126666.0931914225
0.7207155741307044	1128530.0608087436
0.7208356933930594	1130394.3390873307
0.7209558326752915	1132258.928078965
0.7210759919807375	1134123.8278354337
0.7211961713127342	1135989.038408526
0.7213163706746197	1137854.5598500501
0.7214365900697322	1139720.3922118125
0.7215568295014103	1140908.9273373026
0.721677088972994	1141289.1598075551
0.7217973684878227	1141669.455649885
0.7219176680492374	1142049.814874856
0.7220379876605789	1142430.237493031
0.722158327325189	1142810.7235149755
0.7222786870464099	1143191.2729512572
0.7223990668275843	1143571.8858124448
0.7225194666720555	1144542.8014131673
0.7226398865831676	1145932.1962045208
0.7227603265642646	1147321.8225616696
0.722880786618692	1148711.6805232142
0.7230012667497951	1150101.7701277514
0.7231217669609201	1151492.0914138895
0.7232422872554135	1152882.644420241
0.7233628276366229	1154273.4291854291
0.7234833881078956	1156072.2128129925
0.7236039686725803	1158026.1096559155
0.7237245693340255	1159980.3321483093
0.7238451900955812	1161934.8803444556
0.7239658309605971	1163889.754298632
0.7240864919324239	1165844.954065137
0.7242071730144127	1167800.4796982696
0.724327874209915	1169756.3312523372
0.7244485955222832	1168989.9474299077
0.7245693369548704	1167773.2833588696
0.7246900985110294	1166556.416510488
0.7248108801941148	1165339.346850962
0.7249316820074803	1164122.0743464965
0.7250525039544815	1162904.5989632783
0.7251733460384739	1161686.9206674963
0.7252942082628137	1160475.3010296493
0.7254150906308574	1162891.6513196481
0.7255359931459625	1165308.4043346953
0.7256569158114868	1167725.5601419127
0.7257778586307888	1170143.1188084322
0.7258988216072273	1172561.0804013957
0.7260198047441617	1174979.4449879553
0.7261408080449525	1177398.2126352834
0.72626183151296	1179691.016807498
0.7263828751515454	1181144.424532903
0.7265039389640706	1182598.074492928
0.726625022953898	1184051.9667279478
0.7267461271243904	1185506.1012783407
0.7268672514789111	1186960.478184491
0.7269883960208241	1188415.097486791
0.7271095607534942	1189869.9592256423
0.7272307456802866	1191223.7894648467
0.7273519508045666	1192304.2798867992
0.7274731761297006	1193384.950390488
0.7275944216590555	1194465.8010059274
0.7277156873959987	1195546.8317631364
0.7278369733438982	1196628.0426921402
0.727958279506122	1197709.4338229625
0.7280796058860397	1198791.005185641
0.7282009524870207	1199365.215693022
0.7283223193124353	1199188.8120701164
0.7284437063656539	1199012.3790466075
0.7285651136500483	1198835.9166175944
0.7286865411689898	1198659.424778177
0.7288079889258514	1198482.9035234523
0.7289294569240056	1198306.352848519
0.7290509451668262	1198129.772748473
0.7291724536576875	1198305.1799828955
0.7292939823999636	1198772.3002350368
0.7294155313970303	1199239.4983405545
0.7295371006522632	1199706.774312423
0.7296586901690385	1200174.1281636197
0.7297802999507332	1200641.5599071248
0.7299019300007252	1201109.0695559217
0.7300235803223919	1201576.657122992
0.7301452509191123	1202840.185067388
0.7302669417942654	1204471.2693907155
0.7303886529512311	1206102.6255614306
0.7305103843933897	1207734.2536248413
0.7306321361241218	1209366.1536262613
0.7307539081468093	1210998.3256110176
0.7308757004648336	1212630.7696244349
0.7309975130815778	1214263.485711856
0.7311193460004248	1216477.0645935251
0.7312411992247582	1218822.450721962
0.7313630727579622	1221168.2277480864
0.7314849666034219	1223514.3957370508
0.7316068807645224	1225860.954754012
0.7317288152446498	1228207.9048641438
0.7318507700471907	1230555.2461326285
0.7319727451755319	1232902.978624657
0.732094740633061	1233359.2133536474
0.7322167564231665	1233730.3506774867
0.7323387925492371	1234101.5498575466
0.7324608490146619	1234472.8109041366
0.732582925822831	1234844.1338275676
0.7327050229771347	1235215.5186381522
0.7328271404809642	1235586.9653462055
0.7329492783377112	1235934.6290250565
0.7330714365507675	1236047.9296820508
0.7331936151235259	1236161.2492224881
0.7333158140593796	1236274.5876495154
0.7334380333617229	1236387.9449662806
0.7335602730339499	1236501.321175932
0.7336825330794556	1236614.7162816182
0.7338048135016354	1236728.1302864887
0.7339271143038857	1237304.9322026663
0.734049435489603	1239434.4341666459
0.7341717770621846	1241564.2910476197
0.7342941390250283	1243694.5029047392
0.7344165213815324	1245825.0697971676
0.734538924135096	1247955.991784081
0.7346613472891185	1250087.2689246563
0.734783790847	1252218.901278089
0.7349062548121412	1253393.286706052
0.7350287391879431	1252875.2668716018
0.7351512439778078	1252357.1607005114
0.7352737691851374	1251838.9681783933
0.735396314813335	1251320.6892908541
0.7355188808658037	1250802.3240235015
0.7356414673459482	1250283.8723619364
0.7357640742571725	1249765.3342917615
0.7358867016028818	1249821.8179441784
0.7360093493864824	1250446.2821677744
0.7361320176113801	1251070.8504687403
0.736254706280982	1251695.522864423
0.7363774153986956	1252320.2993721724
0.7365001449679286	1252945.1800093385
0.7366228949920899	1253570.164793278
0.7367456654745885	1254195.2537413482
0.7368684564188344	1255041.335423982
0.7369912678282374	1256012.399675319
0.7371140997062088	1256983.625770698
0.7372369520561599	1257955.0137370941
0.7373598248815024	1258926.5636014822
0.7374827181856494	1259898.2753908494
0.7376056319720137	1260870.1491321817
0.7377285662440091	1261842.1848524709
0.7378515210050496	1262544.3724032973
0.7379744962585505	1263165.4391377112
0.738097492007927	1263786.6093832473
0.7382205082565949	1264407.8831571573
0.738343545007971	1265029.260476696
0.7384666022654723	1265650.741359122
0.7385896800325165	1266272.3258216942
0.7387127783125219	1266894.0138816775
0.7388358971089073	1267458.3977109562
0.7389590364250921	1268017.1174548247
0.7390821962644963	1268575.930318651
0.7392053766305403	1269134.836317954
0.7393285775266454	1269693.8354682568
0.7394517989562333	1270252.9277850855
0.7395750409227259	1270812.113283966
0.7396983034295463	1271346.5765245974
0.739821586480118	1271329.0905595345
0.7399448900778645	1271311.6016801442
0.7400682142262109	1271294.1098859408
0.740191558928582	1271276.6151764381
0.7403149241884034	1271259.1175511507
0.7404383100091014	1271241.6170095925
0.7405617163941028	1271224.1135512772
0.7406851433468352	1271041.257000665
0.7408085908707264	1270101.9326883012
0.7409320589692048	1269162.4518218855
0.7410555476456997	1268222.8143753249
0.7411790569036406	1267283.0203225238
0.7413025867464579	1266343.0696373803
0.7414261371775823	1265402.962293789
0.7415497082004452	1264462.6982656412
0.7416732998184786	1263556.6204267477
0.741796912035115	1262724.0638568315
0.7419205448537874	1261891.3685274872
0.7420441982779297	1261058.534415588
0.742167872310976	1260225.5614980026
0.7422915669563612	1259392.4497515978
0.7424152822175206	1258559.1991532354
0.7425390180978901	1257725.8096797736
0.7426627746009065	1257300.967496214
0.7427865517300065	1257374.2722342815
0.7429103494886282	1257447.5891898056
0.7430341678802096	1257520.9183648222
0.7431580069081896	1257594.259761368
0.7432818665760077	1257667.6133814796
0.7434057468871037	1257740.979227195
0.7435296478449182	1257814.357300551
0.7436535694528923	1257424.1945655374
0.7437775117144678	1256716.6505302493
0.7439014746330868	1256008.9885709567
0.7440254582121922	1255301.2086680033
0.7441494624552276	1254593.3108017326
0.7442734873656368	1253885.2949524843
0.7443975329468645	1253177.1611005939
0.7445215992023557	1252468.909226395
0.7446456861355559	1251329.5788485245
0.7447697937499119	1250031.3041910136
0.7448939220488703	1248732.813154393
0.7450180710358784	1247434.1057026011
0.7451422407143843	1246135.181799567
0.7452664310878367	1244836.0414092145
0.7453906421596846	1243536.6844954651
0.7455148739333779	1242237.1110222295
0.7456391264123667	1240534.4577715115
0.7457633996001021	1238767.1051501555
0.7458876935000356	1236999.457970026
0.7460120081156189	1235231.5161820366
0.7461363434503048	1233463.2797370816
0.7462606995075466	1231694.748586051
0.7463850762907978	1229925.922679831
0.7465094738035127	1228156.0017727183
0.7466338920491467	1226176.4589060184
0.746758331031155	1224196.5861155055
0.7468827907529935	1222216.3833461967
0.7470072712181189	1220235.850543093
0.7471317724299886	1218254.9876511882
0.7472562943920602	1216273.7946154694
0.7473808371077922	1214292.2713809097
0.7475054005806435	1212241.1723442047
0.7476299848140736	1209763.2060366748
0.7477545898115426	1207284.8267347596
0.7478792155765113	1204806.0343696268
0.7480038621124406	1202326.828872435
0.7481285294227926	1199847.2101743277
0.7482532175110298	1197367.178206435
0.7483779263806148	1194886.732899884
0.7485026560350116	1192255.7458863629
0.7486274064776842	1189218.003755023
0.748752177712097	1186179.7553333335
0.7488769697417158	1183141.0005369007
0.749001782570006	1180101.7392813386
0.7491266162004343	1177061.971482235
0.7492514706364677	1174021.6970551633
0.7493763458815739	1170980.9159156843
0.7495012419392209	1167636.6885058517
0.7496261588128773	1163856.392130453
0.7497510965060128	1160075.4657056555
0.7498760550220971	1156293.9091264552
0.7500010343646007	1152511.7222878246
0.7501260345369949	1148728.9050847192
0.750251055542751	1144945.457412084
0.7503760973853414	1141161.3791648345
0.7505011600682389	1136957.2038345053
0.750626243594917	1132402.0829530037
0.7507513479688495	1127846.2028846955
0.7508764731935109	1123289.5635030407
0.7510016192723765	1118732.1646814882
0.7511267862089218	1114174.0062934693
0.7512519740066232	1109615.0882123844
0.7513771826689577	1105055.4103116167
0.7515024121994025	1099980.3788931067
0.7516276626014359	1094664.5691944463
0.751752933878536	1089347.8735275122
0.7518782260341824	1084030.2917446315
0.7520035390718548	1078711.8236981183
0.7521288729950334	1073392.4692402666
0.7522542278071992	1068072.2282233383
0.7523796035118337	1062751.100499571
0.7525050001124189	1056608.233263086
0.7526304176124378	1050285.8251201338
0.7527558560153731	1043962.3632424992
0.752881315324709	1037637.8474545454
0.7530067955439299	1031312.2775806248
0.7531322966765205	1024985.6534450669
0.7532578187259665	1018657.9748721512
0.7533833616957542	1012329.2416861402
0.75350892558937	1005028.9137479757
0.7536345104103016	997681.7315255713
0.7537601161620366	990333.3247728003
0.7538857428480638	982983.6932855634
0.7540113904718717	975632.8368597548
0.7541370590369503	968280.7552912101
0.7542627485467898	960927.4483757328
0.7543884590048808	953483.9084731484
0.7545141904147151	945151.5357435475
0.7546399427797842	936817.7742851719
0.7547657161035808	928482.6238665518
0.754891510389598	920146.0842561957
0.7550173256413296	911808.155222568
0.7551431618622698	903468.8365341031
0.7552690190559135	895128.1279591921
0.7553948972257561	886489.6894478925
0.7555207963752938	876855.109993461
0.755646716508023	867218.9247757929
0.755772657627441	857581.1335272517
0.7558986197370455	847941.7359801676
0.756024602840335	838300.7318668282
0.7561506069408084	828658.12091947
0.7562766320419653	819013.9028702785
0.7564026781473054	808796.4388810461
0.75652874526033	797571.3406058442
0.7566548333845401	786344.3714809238
0.7567809425234375	775115.5311944868
0.7569070726805247	763884.819434675
0.7570332238593047	752652.2358895714
0.7571593960632813	741417.7802471996
0.7572855892959586	730181.4521955535
0.7574118035608413	718658.653544498
0.7575380388614347	706855.5030349287
0.7576642952012449	695050.3853336034
0.7577905725837782	683243.3001126781
0.7579168710125422	671434.2470441951
0.7580431904910444	659623.2258001962
0.7581695310227928	647810.2360526716
0.7582958926112967	635995.2774735074
0.7584222752600652	623531.3490322055
0.7585486789726085	610693.666058235
0.7586751037524372	597853.8434704306
0.7588015496030628	585011.8809121698
0.7589280165279966	572167.7780268415
0.7590545045307512	559321.5344576988
0.7591810136148396	546473.1498479617
0.7593075437837755	533622.6238407706
0.7594340950410726	520353.8366180415
0.7595606673902461	506962.10645681893
0.7596872608348112	493568.14434055606
0.7598138753782836	480171.9498972886
0.75994051102418	466773.5227549347
0.7600671677760173	453372.8625414008
0.7601938456373134	439969.96888448787
0.7603205446115863	426564.8414119729
0.7604472647023548	412999.9583356135
0.7605740059131385	399417.1568354749
0.7607007682474575	385832.09153507295
0.7608275517088319	372244.7620571512
0.7609543563007835	358655.1680242862
0.7610811820268336	345063.3090590907
0.7612080288905045	331469.18478409364
0.7613348968953197	317877.1541242642
0.7614617860448022	304372.3013894722
0.7615886963424764	290865.19784587267
0.7617156277918667	277355.84311836225
0.7618425803964988	263844.2368317194
0.7619695541598982	250330.3786106991
0.7620965490855914	236814.26807998525
0.7622235651771058	223295.90486416733
0.7623506024379685	210198.33744129766
0.7624776608717082	198952.8563947684
0.7626047404818536	187705.50110139756
0.7627318412719337	176456.27124883048
0.762858963245479	165205.16652461424
0.7629861064060198	153952.18661627627
0.7631132707570876	142697.33121127525
0.7632404563022137	131440.59999705013
0.7633676630449308	121015.96759777222
0.7634948909887717	112364.85350434954
0.7636221401372697	103712.29755858918
0.7637494104939593	95058.29952016307
0.7638767020623748	86402.85914874301
0.7640040148460518	77745.97620391787
0.7641313488485262	69087.65044526893
0.7642587040733344	60427.88163231705
0.7643860805240132	53271.77284956466
0.7645134782041005	47910.510834593304
0.7646408971171346	42548.355275950555
0.764768337266654	37185.30602471667
0.7648957986561985	31821.362931939177
0.7650232812893079	26456.52584864693
