#wavelength	surface flux
0.7	1199644.6594924992
0.7001166666666666	1201379.3395825038
0.7002333527777778	1202923.167071168
0.700350058336574	1204467.2518644128
0.7004667833462966	1206011.5940051214
0.7005835278101878	1207556.1935361908
0.7007002917314895	1209101.050500513
0.7008170751134447	1210646.1649409956
0.7009338779592968	1212191.536900551
0.7010507002722901	1213562.7038776313
0.7011675420556689	1214721.7900646972
0.701284403312678	1215881.0694327925
0.7014012840465635	1217040.5420141176
0.7015181842605713	1218200.2078408725
0.701635103957948	1219360.0669452646
0.701752043141941	1220520.119359507
0.701869001815798	1221680.3651158202
0.7019859799827672	1222932.3858512717
0.7021029776460976	1224248.350897067
0.7022199948090387	1225564.5352703717
0.7023370314748403	1226880.939007738
0.7024540876467528	1228197.562145727
0.702571163328027	1229514.4047209034
0.7026882585219152	1230831.466769846
0.7028053732316688	1232148.748329128
0.7029225074605406	1234060.787895412
0.7030396612117841	1236202.724700625
0.7031568344886527	1238345.0184953061
0.7032740272944008	1240487.6693389516
0.7033912396322832	1242630.6772910722
0.7035084715055552	1244774.0424111825
0.7036257229174727	1246917.764758814
0.7037429938712924	1249061.844393505
0.7038602843702709	1251100.7185976924
0.7039775944176659	1253122.0283947578
0.7040949240167356	1255143.67507679
0.7042122731707383	1257165.6586999346
0.7043296418829335	1259187.979320351
0.7044470301565806	1261210.636994204
0.70456443799494	1263233.6317776674
0.7046818654012724	1265256.9637269296
0.7047993123788394	1266971.202999408
0.7049167789309024	1268685.3728938876
0.7050342650607243	1270399.8284833522
0.7051517707715678	1272114.5698154143
0.7052692960666963	1273829.5969376976
0.705386840949374	1275544.909897834
0.7055044054228656	1277260.5087434663
0.7056219894904361	1278920.326402607
0.7057395931553511	1280224.1201213796
0.705857216420877	1281528.1311391066
0.7059748592902804	1282832.3594920023
0.7060925217668288	1284136.8052162917
0.70621020385379	1285441.4683482014
0.7063279055544321	1286746.348923965
0.7064456268720246	1288051.446979826
0.7065633678098366	1289416.5705384642
0.7066811283711383	1290946.633909064
0.7067989085592001	1292476.9522902255
0.7069167083772933	1294007.5257244494
0.7070345278286895	1295538.354254247
0.707152366916661	1297069.437922133
0.7072702256444803	1298600.7767706285
0.7073881040154211	1300132.3708422675
0.7075060020327569	1301792.8249653252
0.7076239196997625	1303640.8490715506
0.7077418570197124	1305489.1811817922
0.7078598139958823	1307337.8213473852
0.7079777906315483	1309186.7696196742
0.7080957869299869	1311036.0260500072
0.7082138028944751	1312885.5906897443
0.7083318385282908	1314735.4635902562
0.7084498938347124	1316137.5423796098
0.708567968817018	1317159.9444581359
0.7086860634784875	1318182.5169370095
0.7088041778224007	1319205.2598446307
0.7089223118520377	1320228.1732094015
0.7090404655706796	1321251.2570597327
0.709158638981608	1322274.51142404
0.709276832088105	1323297.9363307417
0.7093950448934531	1324958.0063858142
0.7095132774009353	1326921.8947115634
0.7096315296138355	1328886.1103520347
0.7097498015354378	1330850.6533617785
0.7098680931690269	1332815.5237953556
0.7099864045178884	1334780.7217073406
0.7101047355853081	1336746.2471523108
0.7102230863745722	1338712.1001848537
0.7103414568889679	1340573.0428126238
0.7104598471317828	1342410.383033826
0.7105782571063047	1344248.0294783972
0.7106966868158224	1346085.9821973755
0.710815136263625	1347924.2412418067
0.7109336054530023	1349762.8066627465
0.7110520943872445	1351601.678511256
0.7111706030696424	1353440.8568384077
0.7112891315034873	1354965.8963912905
0.7114076796920712	1356476.1870263892
0.7115262476386865	1357986.7293765936
0.7116448353466263	1359497.5234838554
0.711763442819184	1361008.5693901358
0.711882070059654	1362519.867137402
0.7120007170713306	1364031.4167676251
0.7121193838575091	1365549.2549309127
0.7122380704214853	1367130.3063447883
0.7123567767665555	1368711.6212672314
0.7124755028960166	1370293.1997421624
0.7125942488131658	1371875.0418135044
0.7127130145213015	1373457.1475251962
0.7128318000237216	1375039.5169211684
0.7129506053237256	1376622.1500453753
0.7130694304246129	1378182.8793684945
0.7131882753296837	1379666.3631677756
0.7133071400422386	1381150.0942143572
0.7134260245655789	1382634.0725494453
0.7135449289030065	1384118.2982142565
0.7136638530578235	1385602.771250011
0.7137827970333332	1387087.4916979403
0.7139017608328388	1388572.4595992772
0.7140207444596443	1390054.6287179447
0.7141397479170543	1391531.6106084026
0.7142587712083737	1393008.838662507
0.7143778143369084	1394486.3129212884
0.7144968773059646	1395964.0334257798
0.7146159601188489	1397442.0002170212
0.7147350627788687	1398920.2133360617
0.7148541852893318	1400398.6728239544
0.7149733276535467	1401587.1444224375
0.7150924898748222	1402483.1483191904
0.715211671956468	1403379.3015499262
0.7153308739017941	1404275.6041395345
0.715450095714111	1405172.0561129071
0.71556933739673	1406068.6574949424
0.7156885989529628	1406965.4083105412
0.7158078803861218	1407862.3085846105
0.7159271816995193	1407800.0542703555
0.7160465028964692	1407174.737939797
0.7161658439802853	1406549.31738985
0.7162852049542819	1405923.7926031451
0.7164045858217744	1405298.1635623085
0.716523986586078	1404672.4302499653
0.7166434072505089	1404046.5926487371
0.716762847818384	1403420.6507412419
0.7168823082930204	1404042.0390146943
0.7170017886777359	1405030.5207755342
0.7171212889758488	1406019.1672833336
0.7172408091906781	1407007.978565551
0.7173603493255433	1407996.9546496493
0.7174799093837642	1408986.0955630944
0.7175994893686615	1409975.4013333588
0.7177190892835562	1410964.8719879177
0.7178387091317702	1414936.9666170613
0.7179583489166254	1419209.1110693275
0.7180780086414448	1423481.9675456726
0.7181976883095517	1427755.5361647634
0.7183173879242699	1432029.8170452914
0.718437107488924	1436304.810305967
0.7185568470068389	1440580.516065521
0.7186766064813399	1444737.4932538955
0.7187963859157535	1445908.8703256198
0.7189161853134061	1447080.442626856
0.719036004677625	1448252.2101901425
0.7191558440117378	1449424.173048022
0.7192757033190732	1450596.3312330463
0.7193955826029597	1451768.6847777667
0.7195154818667269	1452941.2337147454
0.7196354011137046	1454000.1628628878
0.7197553403472235	1454535.2429109805
0.7198752995706147	1455070.4121390807
0.7199952787872098	1455605.6705620529
0.720115278000341	1456141.018194762
0.7202352972133411	1456676.4550520768
0.7203553364295432	1457211.981148867
0.7204753956522815	1457747.5965000072
0.7205954748848902	1458803.5758764092
0.7207155741307044	1461006.7426360415
0.7208356933930594	1463210.2765901298
0.7209558326752915	1465414.1777998777
0.7210759919807375	1467618.4463264968
0.7211961713127342	1469823.0822312008
0.7213163706746197	1472028.0855752255
0.7214365900697322	1474233.4564198055
0.7215568295014103	1475598.4739294723
0.721677088972994	1475960.5972819384
0.7217973684878227	1476322.780988296
0.7219176680492374	1476685.025058605
0.7220379876605789	1477047.3295029255
0.722158327325189	1477409.6943313202
0.7222786870464099	1477772.1195538528
0.7223990668275843	1478134.6051805895
0.7225194666720555	1479209.355424847
0.7226398865831676	1480789.0417429456
0.7227603265642646	1482368.991342093
0.722880786618692	1483949.2042661773
0.7230012667497951	1485529.6805590813
0.7231217669609201	1487110.4202647007
0.7232422872554135	1488691.4234269364
0.7233628276366229	1490272.690089702
0.7234833881078956	1492342.9185579969
0.7236039686725803	1494599.0319343652
0.7237245693340255	1496855.521329626
0.7238451900955812	1499112.3868064568
0.7239658309605971	1501369.628427531
0.7240864919324239	1503627.2462555452
0.7242071730144127	1505885.2403531976
0.724327874209915	1508143.6107831947
0.7244485955222832	1507062.7430920159
0.7245693369548704	1505429.518210671
0.7246900985110294	1503796.0211251816
0.7248108801941148	1502162.2517901736
0.7249316820074803	1500528.2101602817
0.7250525039544815	1498893.896190116
0.7251733460384739	1497259.309834288
0.7252942082628137	1495632.0771620555
0.7254150906308574	1498423.3856560746
0.7255359931459625	1501215.1593681762
0.7256569158114868	1504007.3983758974
0.7257778586307888	1506800.1027567878
0.7258988216072273	1509593.2725884079
0.7260198047441617	1512386.9079483298
0.7261408080449525	1515181.0089141498
0.72626183151296	1517818.5193189594
0.7263828751515454	1519412.7404522067
0.7265039389640706	1521007.2272889758
0.726625022953898	1522601.979873552
0.7267461271243904	1524196.9982502265
0.7268672514789111	1525792.2824632959
0.7269883960208241	1527387.8325570663
0.7271095607534942	1528983.6485758533
0.7272307456802866	1530448.8554163368
0.7273519508045666	1531560.7810944393
0.7274731761297006	1532672.8920934875
0.7275944216590555	1533785.188444369
0.7277156873959987	1534897.670177976
0.7278369733438982	1536010.337325207
0.727958279506122	1537123.1899169595
0.7280796058860397	1538236.2279841453
0.7282009524870207	1538729.6447503741
0.7283223193124353	1538306.3804631277
0.7284437063656539	1537883.0456318343
0.7285651136500483	1537459.640244735
0.7286865411689898	1537036.164290072
0.7288079889258514	1536612.6177560822
0.7289294569240056	1536189.0006310043
0.7290509451668262	1535765.312903072
0.7291724536576875	1535757.1946388213
0.7292939823999636	1536093.4775691105
0.7294155313970303	1536429.8165465554
0.7295371006522632	1536766.2115804963
0.7296586901690385	1537102.6626802762
0.7297802999507332	1537439.169855239
0.7299019300007252	1537775.733114732
0.7300235803223919	1538112.3524681006
0.7301452509191123	1539376.5526408032
0.7302669417942654	1541069.0805859515
0.7303886529512311	1542761.8906190912
0.7305103843933897	1544454.9827872368
0.7306321361241218	1546148.3571374093
0.7307539081468093	1547842.013716643
0.7308757004648336	1549535.9525719697
0.7309975130815778	1551230.173750441
0.7311193460004248	1553597.7859414262
0.7312411992247582	1556118.1759381332
0.7313630727579622	1558638.9859998391
0.7314849666034219	1561160.2161965577
0.7316068807645224	1563681.8665983079
0.7317288152446498	1566203.937275126
0.7318507700471907	1568726.4282970582
0.7319727451755319	1571249.3397341599
0.732094740633061	1571458.347698263
0.7322167564231665	1571563.19889948
0.7323387925492371	1571668.0675758976
0.7324608490146619	1571772.9537304277
0.732582925822831	1571877.8573659835
0.7327050229771347	1571982.7784854784
0.7328271404809642	1572087.717091827
0.7329492783377112	1572160.9252651823
0.7330714365507675	1571922.0299601764
0.7331936151235259	1571683.0948392868
0.7333158140593796	1571444.1198958769
0.7334380333617229	1571205.1051233094
0.7335602730339499	1570966.0505149467
0.7336825330794556	1570726.956064149
0.7338048135016354	1570487.8217642766
0.7339271143038857	1570798.1339998345
0.734049435489603	1572949.654149585
0.7341717770621846	1575101.5328860276
0.7342941390250283	1577253.770268925
0.7344165213815324	1579406.3663580522
0.734538924135096	1581559.3212131972
0.7346613472891185	1583712.6348941487
0.734783790847	1585866.3074607146
0.7349062548121412	1586853.27984536
0.7350287391879431	1585777.5920542548
0.7351512439778078	1584701.7249818488
0.7352737691851374	1583625.6785982654
0.735396314813335	1582549.4528736172
0.7355188808658037	1581473.0477780167
0.7356414673459482	1580396.4632815644
0.7357640742571725	1579319.6993543638
0.7358867016028818	1578919.4703080421
0.7360093493864824	1579187.490995478
0.7361320176113801	1579455.556353028
0.736254706280982	1579723.6663881377
0.7363774153986956	1579991.8211082534
0.7365001449679286	1580260.0205208221
0.7366228949920899	1580528.2646332933
0.7367456654745885	1580796.5534531162
0.7368684564188344	1581289.107322606
0.7369912678282374	1581908.46789235
0.7371140997062088	1582527.9316888559
0.7372369520561599	1583147.4987293286
0.7373598248815024	1583767.1690309732
0.7374827181856494	1584386.9426110024
0.7376056319720137	1585006.8194866285
0.7377285662440091	1585626.7996750672
0.7378515210050496	1585869.463528314
0.7379744962585505	1585998.6137299372
0.738097492007927	1586127.785456594
0.7382205082565949	1586256.978711872
0.738343545007971	1586386.1934993588
0.7384666022654723	1586515.429822644
0.7385896800325165	1586644.687685316
0.7387127783125219	1586773.9670909655
0.7388358971089073	1586791.8546593175
0.7389590364250921	1586798.5701699941
0.7390821962644963	1586805.2867999224
0.7392053766305403	1586812.0045492891
0.7393285775266454	1586818.7234182807
0.7394517989562333	1586825.4434070836
0.7395750409227259	1586832.1645158848
0.7396983034295463	1586807.6528048276
0.739821586480118	1586088.314767623
0.7399448900778645	1585368.8568407472
0.7400682142262109	1584649.2790042148
0.740191558928582	1583929.5812380437
0.7403149241884034	1583209.7635222455
0.7404383100091014	1582489.8258368275
0.7405617163941028	1581769.768161796
0.7406851433468352	1580831.7512405491
0.7408085908707264	1578897.0158640456
0.7409320589692048	1576961.958031647
0.7410555476456997	1575026.5776896079
0.7411790569036406	1573090.87478418
0.7413025867464579	1571154.8492616005
0.7414261371775823	1569218.5010681
0.7415497082004452	1567281.8301499023
0.7416732998184786	1565368.2972058482
0.741796912035115	1563504.7732731062
0.7419205448537874	1561640.9387530426
0.7420441982779297	1559776.7935938926
0.742167872310976	1557912.3377438807
0.7422915669563612	1556047.5711512272
0.7424152822175206	1554182.4937641423
0.7425390180978901	1552317.1055308273
0.7426627746009065	1550899.097626997
0.7427865517300065	1550026.621053258
0.7429103494886282	1549153.9990667559
0.7430341678802096	1548281.2316432565
0.7431580069081896	1547408.31875852
0.7432818665760077	1546535.2603883015
0.7434057468871037	1545662.0565083553
0.7435296478449182	1544788.7070944298
0.7436535694528923	1543287.515631601
0.7437775117144678	1541356.3964689372
0.7439014746330868	1539424.9554530825
0.7440254582121922	1537493.19253039
0.7441494624552276	1535561.10764721
0.7442734873656368	1533628.700749883
0.7443975329468645	1531695.9717847381
0.7445215992023557	1529762.9206980995
0.7446456861355559	1527292.4808114602
0.7447697937499119	1524623.7881004226
0.7448939220488703	1521954.6506072674
0.7450180710358784	1519285.0682578655
0.7451422407143843	1516615.0409780717
0.7452664310878367	1513944.5686937287
0.7453906421596846	1511273.6513306748
0.7455148739333779	1508602.2888147258
0.7456391264123667	1505357.1934982236
0.7457633996001021	1502019.8918195805
0.7458876935000356	1498682.033923985
0.7460120081156189	1495343.6197187465
0.7461363434503048	1492004.6491111391
0.7462606995075466	1488665.1220084273
0.7463850762907978	1485325.03831787
0.7465094738035127	1481983.1606809737
0.7466338920491467	1478317.0642335478
0.746758331031155	1474650.356770044
0.7468827907529935	1470983.0381886337
0.7470072712181189	1467315.1083874598
0.7471317724299886	1463646.5672646516
0.7472562943920602	1459977.4147183257
0.7473808371077922	1456307.650646572
0.7475054005806435	1452536.5001286855
0.7476299848140736	1448143.9877233454
0.7477545898115426	1443750.7432326034
0.7478792155765113	1439356.766534445
0.7480038621124406	1434962.057506841
0.7481285294227926	1430566.6160277328
0.7482532175110298	1426170.4419750404
0.7483779263806148	1421773.5352266787
0.7485026560350116	1417179.7322597168
0.7486274064776842	1412054.254761081
0.748752177712097	1406927.9230162045
0.7488769697417158	1401800.736882693
0.749001782570006	1396672.6962181653
0.7491266162004343	1391543.8008801953
0.7492514706364677	1386414.0507263332
0.7493763458815739	1381283.445614107
0.7495012419392209	1375760.4588386822
0.7496261588128773	1369673.685474021
0.7497510965060128	1363585.897647128
0.7498760550220971	1357497.0951889327
0.7500010343646007	1351407.277930327
0.7501260345369949	1345316.4457021751
0.750251055542751	1339224.5983353253
0.7503760973853414	1333131.7356605772
0.7505011600682389	1326516.3243538789
0.750626243594917	1319464.3422197287
0.7507513479688495	1312411.1847552338
0.7508764731935109	1305356.8517644925
0.7510016192723765	1298301.3430515842
0.7511267862089218	1291244.6584205637
0.7512519740066232	1284186.7976754354
0.7513771826689577	1277127.760620179
0.7515024121994025	1269476.4609675151
0.7516276626014359	1261548.2885452802
0.751752933878536	1253618.794760989
0.7518782260341824	1245687.9793943977
0.7520035390718548	1237755.8422252417
0.7521288729950334	1229822.383033228
0.7522542278071992	1221887.6015980155
0.7523796035118337	1213951.4976992265
0.7525050001124189	1205035.3664613212
0.7526304176124378	1195904.9028271884
0.7527558560153731	1186772.9174491283
0.752881315324709	1177639.4100734964
0.7530067955439299	1168504.380446632
0.7531322966765205	1159367.8283148417
0.7532578187259665	1150229.7534243602
0.7533833616957542	1141090.1555213972
0.75350892558937	1130860.5523838194
0.7536345104103016	1120578.0607793073
0.7537601161620366	1110293.8554261997
0.7538857428480638	1100007.9360388566
0.7540113904718717	1089720.302331629
0.7541370590369503	1079430.9540187856
0.7542627485467898	1069139.8908145505
0.7543884590048808	1058764.7964392656
0.7545141904147151	1047567.1084634319
0.7546399427797842	1036367.554206287
0.7547657161035808	1025166.1333567642
0.754891510389598	1013962.8456037672
0.7550173256413296	1002757.6906361401
0.7551431618622698	991550.6681426876
0.7552690190559135	980341.7778121555
0.7553948972257561	968843.6946928296
0.7555207963752938	956379.2545810579
0.755646716508023	943912.7370626081
0.755772657627441	931444.1417912343
0.7558986197370455	918973.4684206466
0.756024602840335	906500.7166045005
0.7561506069408084	894025.8859963851
0.7562766320419653	881548.9762498238
0.7564026781473054	868545.2767486174
0.75652874526033	854616.0598779437
0.7566548333845401	840684.5214711179
0.7567809425234375	826750.661141229
0.7569070726805247	812814.4785012931
0.7570332238593047	798875.9731642526
0.7571593960632813	784935.1447429758
0.7572855892959586	770991.9928502947
0.7574118035608413	756996.9285133074
0.7575380388614347	742951.017533912
0.7576642952012449	728902.7655693482
0.7577905725837782	714852.1722294772
0.7579168710125422	700799.2371240245
0.7580431904910444	686743.9598627157
0.7581695310227928	672686.3400552144
0.7582958926112967	658626.3773110608
0.7584222752600652	644225.8718563663
0.7585486789726085	629628.6836787597
0.7586751037524372	615029.0626364513
0.7588015496030628	600427.0083239408
0.7589280165279966	585822.5203357403
0.7590545045307512	571215.5982662085
0.7591810136148396	556606.2417096654
0.7593075437837755	541994.4502603414
0.7594340950410726	527424.3945707972
0.7595606673902461	512864.726178055
0.7596872608348112	498302.63117389946
0.7598138753782836	483738.1091539259
0.75994051102418	469171.15971360204
0.7600671677760173	454601.7824483829
0.7601938456373134	440029.97695360833
0.7603205446115863	425455.74282459286
0.7604472647023548	411263.1628087048
0.7605740059131385	397106.3951822506
0.7607007682474575	382947.26809451147
0.7608275517088319	368785.7811522892
0.7609543563007835	354621.9339622118
0.7610811820268336	340455.72613094456
0.7612080288905045	326287.15726506605
0.7613348968953197	312144.0080209051
0.7614617860448022	298568.50738733774
0.7615886963424764	284990.74417031294
0.7617156277918667	271410.71799276513
0.7618425803964988	257828.42847750988
0.7619695541598982	244243.87524733902
0.7620965490855914	230657.05792497317
0.7622235651771058	217067.97613303788
0.7623506024379685	203955.47410908408
0.7624776608717082	192939.61488546306
0.7626047404818536	181921.91968530425
0.7627318412719337	170902.38820263103
0.762858963245479	159881.0201313704
0.7629861064060198	148857.81516543028
0.7631132707570876	137832.77299865102
0.7632404563022137	126805.8933248539
0.7633676630449308	116630.06054504297
0.7634948909887717	108268.04016056472
0.7636221401372697	99904.62610603328
0.7637494104939593	91539.81814915151
0.7638767020623748	83173.61605762235
0.7640040148460518	74806.0195990684
0.7641313488485262	66437.028541105
0.7642587040733344	58066.64265128911
0.7643860805240132	51160.90240661679
0.7645134782041005	46003.43724764542
0.7646408971171346	40845.11251114542
0.764768337266654	35685.92805385789
