#wavelength	surface flux
0.6450077295303345	24287.39708363024
0.6472567915916443	25494.47889736222
0.6494921445846558	26827.31038557368
0.6517150402069092	28182.06617892796
0.6539263725280762	29495.790575663337
0.6561272740364075	30823.02459881745
0.6583186388015747	32161.61269163864
0.6605015397071838	33614.03840084167
0.6626768708229065	35098.75739127683
0.6648455858230591	36573.72340867207
0.6670085787773132	38031.823505728695
0.6691668033599854	37916.69084651443
0.6713210344314575	37579.25779053984
0.6734722256660461	42614.18107898322
0.6756211519241333	44507.92968514136
0.6777685880661011	46239.945958666445
0.6799154281616211	47990.5932133391
0.6820623278617859	49776.25298520428
0.6842101216316223	51604.183349452556
0.6863595843315125	53464.02186393334
0.688511312007904	55360.14189095666
0.6906660795211792	57074.84371711457
0.6928245425224304	58146.4700334069
0.6949873566627502	61041.227289703864
0.6971551775932312	63365.33968195434
0.6993286609649658	65384.8589215705
0.7015084028244019	67344.53436256926
0.7036949396133423	69681.13493705599
0.7058889269828796	72274.96318445892
0.7080909013748169	74475.89850289434
0.710301399230957	76805.31124096367
0.712520956993103	79378.41522915516
0.7147500514984131	81603.55137524144
0.7169892191886902	82321.41004596984
0.7192389369010925	85759.25276746019
0.7214996814727783	88114.40980473565
0.723771870136261	89988.39017974302
0.7260559797286987	91677.94507932097
0.7283523678779602	94165.79778512595
0.7306615710258484	96124.69913399128
0.7329838871955872	99805.0939654957
0.7353196740150452	102153.02315782216
0.7376693487167358	104393.32648772115
0.7400332689285278	106754.66840991845
0.7424117922782898	107233.15352237034
0.7448052167892456	108338.20849420843
0.7472138404846191	107620.92557095404
0.7496379613876343	105367.62135055878
0.7520779371261597	100232.6093686087
0.7545340061187744	91205.23556240836
0.7570064663887024	76441.68647798957
0.7594954967498779	55035.13446698324
0.7620013952255249	28069.890546563314
0.7645244002342224	6324.457236133136
0.7670646905899048	963.9649067005561
0.7696225643157959	1123.8185378103665
0.7721980810165405	15586.698335527835
0.7747915983200073	50709.0536412416
0.7774031162261963	86012.90627991346
0.7800329327583313	100907.43121418446
0.7826811671257019	139274.22253113607
0.7853479981422424	161031.97983663087
0.7880334854125977	177789.36871492106
0.7907378077507019	191108.94485027943
0.7934610247612	141631.6838202408
0.7962033748626709	171755.6872972772
0.7989648580551147	226693.9622333599
0.801745593547821	237811.61267517798
0.8045456409454346	247958.9509628671
0.8073651194572449	257783.36936123398
0.8102040886878967	262421.0962536525
0.8130625486373901	267374.362413782
0.8159406185150146	285792.08275228523
0.8188382983207703	296275.34566042194
0.8217556476593018	304594.944951428
0.8246926665306091	316025.16085438017
0.8276493549346924	327014.1003044101
0.8306257724761963	333628.63763340464
0.8336219191551208	347268.18359084113
0.8366377949714661	354063.12316682097
0.8396733403205872	366886.9473986454
0.8427285552024841	387473.10329590604
0.8458034992218018	400931.8180725565
0.8488980531692505	414688.6583296561
0.8520121574401855	424777.4851787847
0.8551458716392517	442747.75104061706
0.8582990765571594	457366.2791862665
0.8614717125892639	470082.11400233436
0.8646637797355652	484015.44654376333
0.8678751587867737	499485.85550487926
0.8711057901382446	516646.58437700593
0.8743556141853333	530841.0383127749
0.87762451171875	544561.861680633
0.8809124231338501	552981.8118386825
0.8842192888259888	565891.3495651071
0.8875449895858765	575007.5105110069
0.8908893465995789	587501.7055582276
0.894252359867096	574313.9137470819
0.8976338505744934	610600.583430851
0.9010337591171265	652121.1273364983
0.9044519662857056	681190.1246148684
0.9078882932662964	692017.623711207
0.9113426208496094	723405.8184443848
0.914814829826355	729878.5187903644
0.9183048605918884	728553.9978957191
0.9218124747276306	781962.4697838634
0.925337553024292	739732.9034161349
0.9288799166679382	550490.6703294495
0.9324395060539246	609350.6725698876
0.9360161423683167	639124.1617841308
0.9396095871925354	757165.868596328
0.943219780921936	713822.774890192
0.9468464851379395	641445.0586802304
0.9504896402359009	762372.1146369277
0.9541489481925964	772166.107502029
0.9578243494033813	828625.7468366431
0.9615156054496765	719482.7791790267
0.9652225375175476	782177.57021056
0.9689450263977051	794592.4977720657
0.9726828336715698	1027548.8939965073
0.9764357805252075	1006255.969996506
0.9802037477493286	1075195.0050926853
0.983986496925354	1126672.8504005251
0.9877838492393494	1175530.3011349542
0.9915955662727356	1250900.6641905473
0.9954215884208679	1295293.529563476
0.9992615580558777	1344111.1403861004
1.0031154155731201	1373344.1432854035
1.0069829225540161	1425193.8856626954
1.0108637809753418	1470798.7023955248
1.0147579908370972	1522275.2441954857
1.018665075302124	1562139.1256881326
1.022585153579712	1594144.2049253024
1.0265177488327026	1614918.63560421
1.0304628610610962	1610157.4867768884
1.0344202518463135	1722939.4683751035
1.0383895635604858	1764702.0071734597
1.0423706769943237	1808393.4653545162
1.0463634729385376	1849786.3047193561
1.0503677129745483	1876886.6930728224
1.0543830394744873	1929899.610111464
1.058409333229065	1977548.4298268766
1.0624464750289917	2020872.061535942
1.0664942264556885	2064775.8893594695
1.0705522298812866	2095246.2371568987
1.0746204853057861	2152435.712709715
1.0786986351013184	2192230.377708718
1.0827864408493042	2244379.1690312303
1.086883783340454	2278719.2114865165
1.0909905433654785	2274676.956763167
1.0951062440872192	2283086.259370004
1.0992310047149658	2129180.729486011
1.10336434841156	1625174.6202801976
1.1075061559677124	1735524.5207799592
1.1116561889648438	1677983.812667588
1.115814208984375	1328700.1639733657
1.1199802160263062	1298868.2775147357
1.124153733253479	1450316.1046751733
1.1283347606658936	1594778.9095888564
1.1325229406356812	1230187.0149659878
1.1367181539535522	1720667.9359589363
1.1409201622009277	1848254.0389799825
1.145128846168518	2173454.707187088
1.1493438482284546	1896564.1267159923
1.1535650491714478	790021.7467597135
1.1577922105789185	1203191.2901668686
1.1620250940322876	1339259.846028767
1.1662636995315552	2070411.9376159257
1.170507550239563	1917599.9911399744
1.174756646156311	2457092.286058548
1.1790107488632202	2877977.265488876
1.1832695007324219	3114019.759523406
1.1875330209732056	3192735.3092714283
1.191800832748413	3379567.7148944763
1.1960728168487549	3560856.530093535
1.2003488540649414	3689682.2718573743
1.2046287059783936	3702430.1459139874
1.2089121341705322	3833865.037234663
1.2131990194320679	3884340.5164791523
1.2174891233444214	4011387.6649415116
1.2217823266983032	4091825.2277471917
1.2260783910751343	4193676.128010888
1.230377197265625	4261436.167666999
1.2346785068511963	4322682.903226861
1.238982081413269	4416700.977609954
1.2432878017425537	4490392.828440123
1.2475954294204712	4552908.800620324
1.2519049644470215	4617677.778924784
1.256216049194336	4711889.527510585
1.2605286836624146	4759583.688277753
1.2648425102233887	4811600.592837513
1.2691574096679688	4867487.329847208
1.2734732627868652	4914364.244656051
1.2777899503707886	4998398.662138989
1.2821072340011597	4995439.059587877
1.2864248752593994	5047063.259521315
1.2907428741455078	4942963.821409988
1.2950609922409058	4998723.70350602
1.2993791103363037	5059652.533402329
1.303696870803833	4954762.312608215
1.3080145120620728	4988592.6897938065
1.3123314380645752	4907615.020807564
1.3166478872299194	5291043.53750624
1.3209635019302368	5184234.097587807
1.3252781629562378	4678791.839614399
1.3295916318893433	3988611.878125106
1.3339040279388428	2416543.74145237
1.3382149934768677	797700.273584634
1.3425244092941284	299785.2000262506
1.3468321561813354	804071.5145099064
1.3511382341384888	275470.64272240066
1.3554422855377197	222848.49653037707
1.3597444295883179	165985.2290673374
1.3640443086624146	239908.2411571462
1.3683418035507202	191436.89607720214
1.3726370334625244	623175.2633765244
1.3769296407699585	1468907.844077876
1.381219506263733	584103.5125266692
1.3855066299438477	88082.29350462437
1.3897908926010132	114776.81409232567
1.3940720558166504	214750.19302220404
1.3983501195907593	190403.88370477938
1.4026249647140503	552823.185622552
1.4068963527679443	987391.559490689
1.4111642837524414	231578.52929867426
1.4154287576675415	379218.80962837674
1.419689416885376	363492.5278611099
1.4239463806152344	170230.07232941975
1.4281994104385376	627462.6765255952
1.4324485063552856	464698.1820743924
1.436693549156189	765653.0946209123
1.440934419631958	741393.6848501179
1.4451709985733032	1118823.3361201126
1.449403166770935	2473152.965367484
1.453631043434143	2691935.761137692
1.4578542709350586	2959375.2202746826
1.4620729684829712	3091367.0299755326
1.4662868976593018	3458999.0660401583
1.4704961776733398	2561259.7703537554
1.4747005701065063	2598681.572640551
1.4788999557495117	2495909.554112396
1.4830944538116455	3775508.2221851056
1.4872838258743286	4600506.987922303
1.491468071937561	4719970.339079015
1.4956470727920532	4107496.817803753
1.4998208284378052	4720890.476795586
1.5039892196655273	5473050.645881895
1.5081522464752197	5153217.421760418
1.5123097896575928	5551566.223800643
1.5164618492126465	6226530.091704595
1.5206083059310913	7002101.303125887
1.5247491598129272	7674907.635124446
1.5288842916488647	7337975.276895513
1.5330137014389038	7748652.744998155
1.5371372699737549	8088473.369334764
1.541254997253418	8150895.566081162
1.545366883277893	8388180.883849648
1.5494728088378906	8543673.274595113
1.5535727739334106	8818868.666221697
1.5576666593551636	8586595.915077755
1.561754584312439	8770423.337187033
1.5658363103866577	9265289.374351237
1.5699119567871094	9445140.571077432
1.5739814043045044	9120278.26452123
1.5780447721481323	8423230.332332877
1.582101821899414	8831790.768290006
1.5861525535583496	9815285.617971111
1.5901970863342285	9792383.245519802
1.5942351818084717	9615062.089651668
1.5982669591903687	9303508.234844472
1.6022924184799194	9112074.82158476
1.606311559677124	9334954.65278864
1.6103241443634033	9215114.286164252
1.6143304109573364	8835389.336841509
1.6183301210403442	8514636.801102858
1.6223233938217163	7890930.987586049
1.6263102293014526	7384059.5492381165
1.6302905082702637	6444487.595362489
1.634264349937439	7018722.459468562
1.638231635093689	9349618.14397907
1.6421923637390137	9547477.520446954
1.646146535873413	8385059.20293241
1.6500942707061768	7070245.695580312
1.6540353298187256	8685295.502625559
1.6579699516296387	9021488.044208782
1.661897897720337	8667171.5660678
1.6658192873001099	5658366.116214354
1.6697341203689575	5114228.778747208
1.6736423969268799	8098156.093580262
1.677544116973877	7862128.041587849
1.6814392805099487	7340217.718001685
1.6853278875350952	7401505.488754756
1.6892099380493164	6838009.335370025
1.6930854320526123	6237983.533370452
1.696954369544983	4595991.522791898
1.7008168697357178	5142197.370634127
1.7046726942062378	5056790.073447587
1.708522081375122	6370444.2394826
1.712364912033081	6611716.096768293
1.7162011861801147	7422435.758115531
1.7200311422348022	8165630.627970293
1.723854422569275	8032503.750353544
1.7276713848114014	7728497.497187709
1.731481909751892	7336853.544088815
1.7352858781814575	6883504.613423554
1.7390835285186768	6935740.333323541
1.7428747415542603	6923389.068929432
1.7466596364974976	6275699.505646499
1.7504380941390991	5844878.104431348
1.7542102336883545	4679202.466741581
1.7579760551452637	6534021.619176014
1.7617355585098267	7185948.528766654
1.7654887437820435	6018450.722076438
1.7692357301712036	4629201.763686961
1.7729763984680176	3021760.975225948
1.776710867881775	1466481.440939871
1.7804391384124756	1337256.5378936238
1.7841613292694092	1784836.3039499323
1.7878772020339966	1056798.2138087172
1.7915871143341064	1454156.9378032887
1.7952908277511597	2341120.2319156164
1.7989884614944458	3040646.3280842407
1.8026801347732544	1146702.4436399667
1.806365728378296	340333.3174907309
1.8100452423095703	645264.0365051563
1.8137187957763672	1092844.7692910265
1.817386507987976	272936.39100237755
1.8210482597351074	1061923.173933808
1.8247040510177612	1085313.28118788
1.828354001045227	225139.40223001828
1.8319982290267944	279420.384245423
1.8356364965438843	700120.9800214431
1.8392690420150757	1301297.333812655
1.8428958654403687	917457.3062013893
1.8465168476104736	981879.2777762214
1.8501322269439697	1550707.2445375298
1.8537418842315674	876856.9429514689
1.8573459386825562	562601.5948053099
1.860944390296936	580555.9037719703
1.864537239074707	208602.42322506028
1.8681244850158691	226661.35670725742
1.871706247329712	658483.1441281231
1.8752825260162354	1068748.4576154707
1.8788533210754395	2353238.439175015
1.8824186325073242	3373240.051536842
1.8859784603118896	2427117.906778282
1.8895330429077148	2011754.0428841813
1.8930821418762207	3370363.8912371034
1.8966259956359863	3116791.6436957205
1.9001644849777222	555390.2237940645
1.9036977291107178	173768.07679756673
1.9072256088256836	405615.56392815814
1.9107483625411987	309201.18827855354
1.9142658710479736	98544.26978081101
1.9177782535552979	160434.2010957586
1.9212853908538818	326747.76725240966
1.9247875213623047	252441.37202344066
1.9282845258712769	291226.1507717102
1.9317764043807983	512773.5353790935
1.9352631568908691	589193.6293406362
1.9387450218200684	511779.18882509513
1.942221760749817	820398.3385363368
1.9456936120986938	896826.4670467087
1.9491604566574097	1311036.5753828876
1.952622413635254	1173803.0981476586
1.956079363822937	638934.4073550726
1.959531545639038	825380.2330912002
1.962978720664978	856525.9111278693
1.966421127319336	1353273.4270535575
1.9698586463928223	2468526.6566865826
1.9732913970947266	2621356.332060831
1.9767193794250488	2804210.6380173406
1.9801424741744995	3794613.520883504
1.9835609197616577	4517941.707338274
1.9869745969772339	4665336.437871285
1.990383505821228	3374906.6804346535
1.9937876462936401	3788095.637700606
1.9971871376037598	3755528.7608369864
2.000581979751587	4052130.816100861
2.003972291946411	5803896.613222734
2.007357597351074	6505104.531383888
2.0107386112213135	7894667.988673591
2.0141148567199707	7788634.502218372
2.017486572265625	6488809.457527294
2.0208535194396973	7337822.717533266
2.0242159366607666	8660400.673574893
2.027573823928833	9049482.531615729
2.0309269428253174	9747581.635888522
2.034275770187378	10357215.932589876
2.0376198291778564	10826648.57938558
2.040959596633911	11501212.045992065
2.044294595718384	12317073.332338253
2.0476250648498535	13108748.54916164
2.0509510040283203	12878291.109272657
2.054272413253784	12260157.373631548
2.057589530944824	12652986.999610916
2.0609018802642822	13236972.699205603
2.0642096996307373	13608598.526344508
2.0675129890441895	13813938.707234828
2.0708119869232178	13931169.80895658
2.074106216430664	13814503.84455522
2.0773961544036865	13721176.11074106
2.080681324005127	13896695.304808158
2.0839622020721436	13924292.626880465
2.087238311767578	13940809.236599924
2.090510129928589	13915946.749538923
2.0937774181365967	13705597.125422118
2.0970399379730225	13694681.08949133
2.1002981662750244	13624168.028174948
2.1035518646240234	13470555.894830184
2.1068007946014404	13289601.44731692
2.1100454330444336	13324223.126306342
2.1132853031158447	13267838.108660372
2.116520881652832	12820215.447837967
2.1197516918182373	12553138.506182246
2.1229779720306396	12534356.951886714
2.12619948387146	12623368.662737362
2.1294167041778564	12611218.84928024
2.132629156112671	12652496.969937727
2.1358368396759033	12305145.048775831
2.139039993286133	11763997.229609622
2.1422386169433594	11271488.868474321
2.145432472229004	10756896.393758465
2.1486217975616455	10474679.560542034
2.151806354522705	9942264.555162342
2.1549863815307617	10130613.74522651
2.1581614017486572	10282981.263477266
2.16133189201355	9550676.675363485
2.1644976139068604	9286960.341477135
2.167658567428589	9306896.319396554
2.1708147525787354	9587049.277983004
2.173966407775879	9759054.831236906
2.1771130561828613	9656712.444942992
2.1802549362182617	9232976.21914089
2.183391809463501	8632682.467777602
2.1865241527557373	7980837.884973873
2.1896514892578125	7207201.937488262
2.1927738189697266	5775375.054885144
2.1958916187286377	3880861.1802959307
2.1990041732788086	2540097.8241035556
2.2021119594573975	2042841.9570581927
2.2052149772644043	2068244.7340988659
2.208312749862671	2364351.781953471
2.2114057540893555	2779741.200067032
2.214493751525879	3012326.7808745108
2.217576742172241	2806845.1198028466
2.2206547260284424	2609647.1984429252
2.2237277030944824	2511900.7049086937
2.2267956733703613	2093883.0464884024
2.2298583984375	1585465.1983114376
2.2329163551330566	1332145.4520680076
2.235969066619873	1267062.8120621876
2.2390167713165283	1179615.5016213679
2.2420592308044434	953462.4246815243
2.2450966835021973	751679.9074858865
2.248128890991211	849838.9527391611
2.2511560916900635	1085453.7174958598
2.254178285598755	1182562.9992857391
2.257194995880127	1266967.2870753733
2.260206699371338	1248807.5478590273
2.2632133960723877	1022904.4682333325
2.266214609146118	832287.548313168
2.2692108154296875	817203.9182505507
2.2722020149230957	968261.5495584712
2.2751877307891846	1103181.6959399895
2.278168201446533	1072843.4421858746
2.2811436653137207	964122.9436012395
2.284113883972168	891002.5856857188
2.287078857421875	818657.8151636361
2.290038824081421	751290.3290042321
2.2929933071136475	761916.0800616802
2.295942783355713	827306.5562763899
2.298887014389038	892712.9169096568
2.301826238632202	1029440.2802251835
2.304760217666626	1410197.803748536
2.3076889514923096	2024748.5690469542
2.310612440109253	2458547.0817113793
2.3135311603546143	2167212.239269335
2.3164443969726562	1212035.4417890108
2.319352865219116	607257.4069890424
2.322256088256836	582282.0055873393
2.3251543045043945	613692.9658364485
2.328047275543213	594379.6830785297
2.330935478210449	592496.7199556527
2.3338186740875244	578640.1486836413
2.3366971015930176	553007.7466117876
2.3395702838897705	524791.0135546725
2.3424389362335205	475554.81515216245
2.3453025817871094	420352.27370563755
2.348161458969116	419630.1571463968
2.351015567779541	524088.8449573549
2.353865146636963	701262.3548545329
2.3567099571228027	862048.5387324304
2.3595502376556396	983680.9304090911
2.3623859882354736	1081626.2545160665
2.3652172088623047	984650.7823407848
2.368043899536133	636572.1393629774
2.370866537094116	389157.1120005533
2.3736846446990967	365809.4330133095
2.3764986991882324	433254.1532867289
2.3793084621429443	520149.8021662332
2.3821144104003906	634116.1131682851
2.384916305541992	767173.8070226789
2.387714147567749	844175.4114491772
2.3905084133148193	796752.1479513051
2.393299102783203	754363.6675576296
2.3960859775543213	807705.1730229493
2.398869514465332	874338.7493023546
2.4016497135162354	865587.6140980932
2.4044265747070312	889804.9167278251
2.407200336456299	1056703.9029102162
2.409970998764038	1312151.2900568133
2.4127390384674072	1490952.3002410214
2.415503978729248	1572839.0371979026
2.418266534805298	1801146.0337141503
2.4210267066955566	1906372.5894640244
2.4237842559814453	1698032.6591536347
2.426539897918701	1593492.9450703156
2.429293394088745	1811344.5560058723
2.4320452213287354	2167201.8969135415
2.4347951412200928	2266323.25608697
2.4375438690185547	2172052.917396869
2.440291166305542	2212144.066189155
2.443037271499634	2114046.62992697
2.445782423019409	1814883.842730742
2.4485268592834473	1530334.5210691008
2.451270818710327	1515340.8143855364
2.454014539718628	1835123.2564994046
2.4567582607269287	2108916.342870321
2.4595019817352295	2138338.2040044605
2.4622461795806885	2298820.5076341894
2.4649908542633057	2170173.988878476
2.4677364826202393	1724263.768605599
2.4704833030700684	1197334.9995590567
2.473231554031372	872065.9151915634
2.4759814739227295	705257.1213022151
2.4787333011627197	670186.0707427658
2.481487512588501	737477.5390412617
2.4842441082000732	775815.5862521009
