#wavelength	surface flux
0.8	750859.4878286895
0.8002000000000001	753719.244105529
0.8004000500000003	757035.8913697719
0.8006001500125003	760357.975623068
0.8008003000500035	763680.8903974277
0.8010005001250161	767004.6359004827
0.8012007502500472	770329.2123399085
0.8014010504376099	772963.564637322
0.8016014007002193	775367.093114469
0.8018018010503944	777771.2224737353
0.8020022515006572	780175.9528653425
0.8022027520635323	782581.2844395456
0.8024033027515483	785004.6726356847
0.8026039035772362	787445.7721818498
0.8028045545531306	789887.4820029015
0.8030052556917691	792329.8022514096
0.803206007005692	794772.7330799777
0.8034068085074435	797351.7486794902
0.8036076602095705	800311.1626340293
0.8038085621246229	803271.3164420546
0.8040095142651542	806232.2102885337
0.8042105166437206	809193.8443584736
0.8044115692728815	812142.3276277557
0.8046126721651998	814494.0626367108
0.8048138253332411	816846.3855794164
0.8050150287895745	819199.2966028597
0.805216282546772	821552.7958540583
0.8054175866174087	823906.8834800684
0.8056189410140631	826238.2530547936
0.8058203457493168	828563.6082000727
0.8060218008357541	830889.5446841351
0.8062233062859632	833216.0626523198
0.8064248621125346	835543.1622499948
0.806626468328063	838223.050619404
0.8068281249451449	841206.1121632209
0.8070298319763813	844189.9194724275
0.8072315894343755	847174.4727334591
0.8074333973317341	850159.7721328071
0.8076352556810671	852481.2400978137
0.8078371644949874	853203.5387912298
0.8080391237861113	853926.0180593196
0.8082411335670578	854648.6779472259
0.8084431938504498	855371.5185001049
0.8086453046489125	856065.0154939279
0.8088474659750746	856208.9968648753
0.8090496778415686	856353.0142311656
0.809251940261029	856497.0676017975
0.8094542532460944	856641.1569857721
0.8096566168094059	856785.2823920925
0.8098590309636085	857497.0623352069
0.8100614957213493	858341.8759692707
0.8102640110952797	859186.9008067431
0.8104665770980536	860032.1369004253
0.8106691937423283	860877.5843031311
0.8108718610407639	862097.5315187562
0.8110745790060241	863603.9824546843
0.8112773476507757	865110.8100033479
0.8114801669876885	866618.0142588981
0.8116830370294355	868125.5953155115
0.8118859577886929	869329.6371583602
0.8120889292781401	869902.7329636189
0.8122919515104597	870475.9720428289
0.8124950244983374	871049.3544318087
0.8126981482544621	871622.8801663857
0.8129013227915257	872274.3153382555
0.8131045481222237	873816.3465977447
0.8133078242592543	875358.763365049
0.8135111512153191	876901.5657365447
0.813714529003123	878444.7538086333
0.8139179576353739	879988.3276777404
0.8141214371247829	887932.4335858728
0.8143249674840641	897119.6215074081
0.814528548725935	906309.1062259183
0.8147321808631167	915500.8883156205
0.8149358639083326	924694.9683508422
0.8151395978743097	930471.2377293743
0.8153433827737784	933938.1819200774
0.8155472186194719	937405.9928468268
0.8157511054241268	940874.6707263073
0.815955043200483	944344.21577526
0.8161590319612831	947300.4333928281
0.8163630717192736	949315.1907392326
0.8165671624872033	951330.4517749713
0.8167713042778252	953346.216625971
0.8169754971038948	955362.4854181845
0.8171797409781707	957145.9836768755
0.8173840359134155	957067.624425286
0.8175883819223938	956989.2455838836
0.8177927790178745	956910.8471477709
0.8179972272126291	956832.4291120492
0.8182017265194322	956753.9914718185
0.8184062769510622	960941.3571326779
0.8186108785203001	965786.2166435333
0.8188155312399301	970632.2873692599
0.8190202351227402	975479.5696126733
0.819224990181521	980328.0636766443
0.8194297964290664	983870.5032131136
0.8196346538781738	986625.875704403
0.8198395625416434	989381.9370388142
0.8200445224322789	992138.68738856
0.820249533562887	994896.1269258925
0.8204545959462778	997683.8855925
0.8206597095952644	1000520.0295127078
0.8208648745226633	1003356.882468898
0.8210700907412941	1006194.4446383266
0.8212753582639793	1009032.7161982949
0.8214806771035456	1010816.1622035621
0.8216860472728215	1006096.6717089143
0.8218914687846397	1001376.0013416427
0.822096941651836	996654.1508067767
0.822302465887249	991931.1198092799
0.8225080415037209	987206.9080540311
0.8227136685140968	990921.2068670784
0.8229193469312254	995594.5156425365
0.8231250767679583	1000268.9927451898
0.8233308580371503	1004944.6384671164
0.8235366907516598	1009621.4531004768
0.8237425749243477	1014911.8907791198
0.8239485105680789	1020528.2623698316
0.824154497695721	1026146.0380534374
0.824360536320145	1031765.2181809653
0.8245666264542252	1037385.8031035246
0.8247727681108388	1042294.016622111
0.8249789613028664	1046181.194832331
0.8251852060431922	1050069.344837107
0.825391502344703	1053958.4668793825
0.8255978502202894	1057848.5612021722
0.8258042496828445	1061483.944179278
0.8260107007452654	1063878.4892848055
0.8262172034204517	1066273.6330266069
0.8264237577213068	1068669.3755543444
0.8266303636607373	1071065.7170177146
0.8268370212516525	1073462.6575664496
0.8270437305069654	1072710.2019411076
0.8272504914395923	1071711.4065329114
0.8274573040624523	1070712.3614258626
0.8276641683884679	1069713.0665575382
0.8278710844305652	1068713.5218654955
0.8280780522016729	1070463.3070946329
0.8282850717147234	1073470.357608247
0.8284921429826521	1076478.1598844866
0.8286992660183978	1079486.7141112976
0.8289064408349024	1082496.020476663
0.8291136674451112	1084275.3054555398
0.8293209458619727	1084503.0912767383
0.8295282760984382	1084730.9340443916
0.829735658167463	1084958.8337727373
0.8299430920820048	1085186.7904760146
0.8301505778550254	1085507.5505596832
0.8303581154994891	1086198.5688403621
0.8305657050283641	1086889.7598756119
0.8307733464546212	1087581.1237086197
0.8309810397912352	1088272.660382587
0.8311887850511829	1088964.3699407214
0.8313965822474458	1095850.1660720238
0.8316044313930077	1103025.1759489044
0.8318123325008561	1110201.979578261
0.8320202855839813	1117380.5774085214
0.8322282906553774	1124560.96988824
0.8324363477280413	1127578.2944545816
0.8326444568149735	1128919.6141967075
0.8328526179291771	1130261.2692687674
0.8330608310836596	1131603.2597545974
0.8332690962914304	1132945.585738047
0.8334774135655034	1133887.9435504684
0.833685782918895	1134383.3845150901
0.8338942043646247	1134878.9493399528
0.834102677915716	1135374.6380560219
0.834311203585195	1135870.4506942697
0.8345197813860912	1137714.173208912
0.8347284113314379	1144095.1301113986
0.8349370934342709	1150477.6822531072
0.8351458277076294	1156861.8300328436
0.8353546141645565	1163247.5738495355
0.8355634528180977	1169634.9141021788
0.8357723436813022	1163445.4235147948
0.8359812867672226	1157099.0740229625
0.8361902820889144	1150751.1379437603
0.8363993296594368	1144401.6148805367
0.8366084294918518	1138050.5044365448
0.8368175815992247	1140845.0838623429
0.8370267859946247	1146790.7783078474
0.8372360426911234	1152737.9591769616
0.8374453517017962	1158686.6268412923
0.8376547130397217	1164636.7816725385
0.8378641267179816	1168629.2287635915
0.8380735927496613	1170678.6429552562
0.8382831111478488	1172728.5695004677
0.8384926819256358	1174779.0085273145
0.8387023050961173	1176829.9601639197
0.8389119806723914	1178813.6501493745
0.8391217086675596	1180607.0967805393
0.8393314890947265	1182400.9917733604
0.8395413219670003	1184195.33523993
0.8397512072974922	1185990.1272923676
0.8399611450993165	1187894.48952519
0.8401711353855914	1195218.261665388
0.8403811781694378	1202543.864748619
0.8405912734639802	1209871.2992326226
0.8408014212823464	1217200.5655752507
0.8410116216376671	1224531.6642344634
0.8412218745430766	1230676.2221619685
0.8414321800117124	1236476.545396349
0.8416425380567154	1242278.318711541
0.8418529486912297	1248081.5424700629
0.8420634119284025	1253886.2170345197
0.8422739277813847	1257371.8519175267
0.8424844962633302	1258813.9157266226
0.842695117387396	1260256.3400516687
0.8429057911667428	1261699.1249827961
0.8431165176145345	1263142.2706101572
0.8433272967439382	1264814.072733286
0.8435381285681244	1267043.1693485132
0.8437490131002665	1269272.8232378939
0.8439599503535415	1271503.0345407452
0.84417094034113	1273733.803396424
0.8443819830762154	1276018.7501204167
0.8445930785719846	1279384.451112491
0.8448042268416277	1282750.9935298117
0.8450154278983382	1286118.377582736
0.8452266817553128	1289486.6034816736
0.8454379884257517	1292855.6714370863
0.8456493479228583	1296425.016887756
0.845860760259839	1300043.281074655
0.846072225449904	1303662.4498276005
0.8462837435062666	1307282.5233727351
0.8464953144421433	1310903.5019362578
0.8467069382707537	1313673.1635351544
0.8469186150053215	1315779.2365105974
0.847130344659073	1317885.8360042847
0.8473421272452377	1319992.9621478433
0.8475539627770492	1322100.61507294
0.8477658512677435	1324559.1690426923
0.8479777927305605	1327762.3109810203
0.8481897871787432	1330966.2537048322
0.848401834625538	1334170.9974143268
0.8486139350841944	1337376.5423097468
0.8488260885679657	1340510.4179039958
0.8490382950901076	1342761.6850149566
0.8492505546638802	1345013.5149426966
0.8494628673025462	1347265.9078279173
0.8496752330193721	1349518.8638113628
0.8498876518276269	1351772.383033801
0.8501001237405839	1350863.1402808777
0.8503126487715191	1349322.2149194027
0.850525226933712	1347780.904326588
0.8507378582404455	1346239.2084061252
0.8509505427050057	1344697.1270616814
0.8511632803406821	1344460.055465396
0.8513760711607672	1345116.8813203543
0.8515889151785576	1345773.871381777
0.8518018124073523	1346431.0256907148
0.8520147628604541	1347088.3442882295
0.8522277665511693	1349806.1592099834
0.8524408234928071	1356334.9885627043
0.8526539336986805	1362865.450122765
0.8528670971821053	1369397.5442982165
0.8530803139564007	1375931.271497204
0.8532935840348901	1382393.712145098
0.8535069074308987	1388241.9218853358
0.8537202841577566	1394091.5936780134
0.8539337142287962	1399942.7278886398
0.8541471976573534	1405795.3248828154
0.8543607344567677	1411649.3850262403
0.8545743246403821	1415733.660141086
0.8547879682215422	1419537.6618116235
0.8550016652135977	1423342.614482578
0.8552154156299011	1427148.5183917002
0.8554292194838088	1430955.3737768028
0.8556430767886797	1434136.6034465923
0.855856987557877	1436938.187157709
0.8560709518047664	1439740.4712647516
0.8562849695427177	1442543.4559428222
0.8564990407851035	1445347.141367063
0.8567131655452999	1448151.4762373138
0.8569273438366862	1450956.4278472122
0.8571415756726455	1453762.0806950133
0.8573558610665638	1456568.4349560277
0.8575702000318304	1459375.490805604
0.8577845925818384	1462226.7246079254
0.857999038729984	1465350.239510591
0.8582135384896665	1468474.5352919814
0.858428091874289	1471599.6121473175
0.8586426988972576	1474725.4702718665
0.8588573595719821	1477852.1098609476
0.8590720739118751	1480491.1646123247
0.8592868419303532	1483073.299258089
0.8595016636408359	1485656.0794375145
0.8597165390567462	1488239.5053119843
0.8599314681915105	1490823.5770429233
0.8601464510585584	1493159.6047332818
0.860361487671323	1495364.2134835254
0.8605765780432408	1497569.373385956
0.8607917221877518	1499775.084578364
0.8610069201182988	1501981.3471985694
0.8612221718483286	1501361.4746284497
0.8614374773912907	1496666.3955956183
0.8616528367606385	1491970.1427930302
0.8618682499698288	1487272.7159272386
0.8620837170323213	1482574.1147047312
0.8622992379615795	1478949.380306024
0.8625148127710699	1480643.7081107057
0.8627304414742627	1482338.4594973386
0.8629461240846313	1484033.6345718184
0.8631618606156526	1485729.2334400672
0.8633776510808066	1487425.2562080324
0.8635934954935769	1496816.7928308444
0.8638093938674504	1506841.457770362
0.8640253462159173	1516868.628876114
0.8642413525524714	1526898.3067746423
0.8644574128906095	1536930.4920926432
0.8646735272438323	1539756.8002689932
0.8648896956256433	1539231.7161751036
0.8651059180495498	1538706.5008101906
0.8653221945290621	1538181.1541414368
0.8655385250776946	1537655.6761360152
0.8657549097089641	1539970.6255864776
0.8659713484363913	1545922.6934976908
0.8661878412735006	1551876.2494258848
0.866404388233819	1557831.29374306
0.8666209893308775	1563787.8268213116
0.8668376445782103	1568997.4791581638
0.8670543539893549	1571153.956546735
0.8672711175778525	1573310.9730546551
0.8674879353572469	1575468.5288166995
0.8677048073410862	1577626.6239676853
0.8679217335429217	1579785.2586424602
0.8681387139763074	1582386.8506965449
0.8683557486548015	1585011.071333847
0.8685728375919655	1587635.9480263114
0.8687899808013633	1590261.4809379433
0.8690071782965637	1592887.6702328066
0.869224430091138	1596396.1345892644
0.8694417361986609	1600264.205520774
0.8696590966327107	1604133.2434700157
0.869876511406869	1608003.2486787448
0.8700939805347206	1611874.221388774
0.8703115040298544	1615718.1183209042
0.870529081905862	1619530.9143699897
0.8707467141763385	1623344.6636180861
0.8709644008548827	1627159.3663034942
0.8711821419550964	1630975.0226645714
0.8713999374905854	1634696.7930227367
0.871617787474958	1638092.16836413
0.8718356919218269	1641488.3925493616
0.8720536508448075	1644885.4657906399
0.8722716642575187	1648283.3883002265
0.8724897321735832	1651682.160290442
0.8727078546066265	1654470.0016017107
0.8729260315702784	1657249.232686977
0.873144263078171	1660029.1585800112
0.8733625491439405	1662809.7794545193
0.8735808897812266	1665591.095484247
0.8737992850036719	1666694.743725507
0.874017734824923	1667204.2192595603
0.8742362392586293	1667713.8221624969
0.874454798318444	1668223.552466159
0.8746734120180236	1668733.410202397
0.8748920803710283	1669919.3809571986
0.875110803391121	1671784.9492741358
0.8753295810919689	1673650.9839831535
0.875548413487242	1675517.4852008482
0.8757673005906139	1677384.4530438473
0.8759862424157616	1680161.0550136163
0.8762052389763657	1685569.0698679015
0.8764242902861098	1690978.4367258966
0.8766433963586814	1696389.1559256075
0.8768625572077712	1701801.2278051202
0.8770817728470732	1707172.9393785025
0.8773010432902849	1709289.1227866295
0.8775203685511077	1711405.8352406116
0.8777397486432454	1713523.0768727043
0.8779591835804065	1715640.847815208
0.8781786733763015	1717759.1482004442
0.8783982180446457	1717527.4561363526
0.878617817599157	1716596.4697816018
0.8788374720535569	1715665.2506802625
0.8790571814215703	1714733.798774148
0.8792769457169257	1713802.1140050571
0.879496764953355	1711703.6419887326
0.8797166391445934	1708555.8363946285
0.8799365683043796	1705407.243849126
0.8801565524464557	1702257.864155487
0.8803765915845676	1699107.6971169214
0.8805966857324639	1699767.620307917
0.880816834903897	1709999.4909868983
0.881037039112623	1720233.9196335531
0.8812572983724012	1730470.9068873688
0.8814776126969944	1740710.4533880025
0.8816979821001687	1750627.5599818479
0.8819184065956938	1752896.5960118552
0.8821388861973429	1755166.1993008726
0.8823594209188923	1757436.36999071
0.882580010774122	1759707.108223219
0.8828006557768155	1761978.414140287
0.8830213559407598	1764616.9120098646
0.8832421112797452	1767348.2791931052
0.8834629218075651	1770080.3292181396
0.8836837875380171	1772813.0622556813
0.8839047084849018	1775546.478476483
0.884125684662023	1776523.0173897187
0.8843467160831886	1776091.3400337228
0.8845678027622095	1775659.5547583879
0.8847889447129001	1775227.6615367339
0.8850101419490785	1774795.6603417746
0.8852313944845657	1776298.3657373006
0.885452702333187	1782036.518642102
0.8856740655087704	1787776.1060851288
0.8858954840251476	1793517.128425015
0.8861169578961539	1799259.5860204832
0.886338487135628	1804316.352068092
0.886560071757412	1800230.5016177765
0.8867817117753515	1796143.6297048484
0.8870034072032955	1792055.73607394
0.8872251580550963	1787966.820469629
0.8874469643446101	1783876.8826364144
0.8876688260856963	1788238.9343724789
0.8878907432922178	1794351.535797675
0.8881127159780409	1800465.6653732236
0.8883347441570356	1806581.3234811733
0.8885568278430749	1812698.5105036437
0.8887789670500358	1817475.7597610215
0.8890011617917983	1821302.6019519086
0.8892234120822464	1825130.4008533452
0.8894457179352669	1828959.156704504
0.8896680793647509	1832788.8697446287
0.8898904963845921	1834481.3413450846
0.8901129690086883	1832094.4963398534
0.8903354972509405	1829707.0546233712
0.8905580811252535	1827319.0160464584
0.8907807206455347	1824930.3804599042
0.8910034158256963	1822138.7647867196
0.8912261666796527	1815750.3695236642
0.8914489732213227	1809360.3771617915
0.8916718354646282	1802968.787301822
0.8918947534234944	1796575.5995443938
0.8921177271118502	1790180.8134900301
0.8923407565436284	1781959.5814895576
0.8925638417327644	1773438.6119747523
0.8927869826931977	1764915.5122175654
0.8930101794388711	1756390.2816854399
0.8932334319837308	1747862.9198456823
0.8934567403417267	1740753.0842586288
0.8936801045268123	1734523.6216024603
0.8939035245529441	1728292.6015806317
0.8941270004340824	1722060.0238037955
0.894350532184191	1715825.8878825165
0.8945741198172371	1722256.9730692646
0.8947977633471915	1749696.0091229773
0.8950214627880284	1777141.904935702
0.8952452181537254	1804594.6622223638
0.8954690294582639	1832054.2826983635
0.8956928967156286	1856084.8730315198
0.8959168199398075	1857823.7361142305
0.8961407991447926	1859563.0339127125
0.8963648343445789	1861302.7665356437
0.896588925553165	1863042.9340917298
0.8968130727845534	1864783.5366897052
0.8970372760527496	1863542.8468356398
0.8972615353717629	1861928.7726395293
0.8974858507556059	1860314.2949248694
0.8977102222182949	1858699.4135907816
0.8979346497738496	1857084.1285363592
0.8981591334362931	1870535.0487432524
0.8983836732196523	1892228.9059180657
0.8986082691379572	1913928.1865571584
0.8988329212052417	1935632.8920164108
0.8990576294355432	1957343.023652047
0.8992823938429022	1972152.1005745544
0.8995072144413631	1976695.8183458978
0.8997320912449734	1981240.6720466823
0.8999570242677847	1985786.661960891
0.9001820135238516	1990333.7883725786
0.9004070590272328	1994543.4125549179
0.9006321607919896	1996978.8279167
0.9008573188321878	1999414.8521323248
0.9010825331618959	2001851.4853540026
0.9013078037951865	2004288.7277339862
0.9015331307461353	2006726.5794245633
0.9017585140288219	2011177.0916133784
0.9019839536573292	2015802.0196011423
0.9022094496457435	2020428.1038209
0.9024350020081551	2025055.3445617177
0.9026606107586572	2029683.7421127192
0.902886275911347	2038563.3498557415
0.9031119974803249	2049493.9989224116
0.9033377754796951	2060427.3806513485
0.903563609923565	2071363.4957257127
0.903789500826046	2082302.344828853
0.9040154482012526	2089951.8174168293
0.904241452063303	2093338.5597275235
0.9044675124263188	2096726.1487237946
0.9046936293044254	2100114.5846173144
0.9049198027117517	2103503.8676198088
0.9051460326624297	2107035.1117867613
0.9053723191705955	2111168.134339422
0.9055986622503881	2115302.1901477166
0.9058250619159507	2119437.2794699636
0.9060515181814298	2123573.4025645438
0.9062780310609752	2127710.559689895
0.9065046005687405	2118045.429764233
0.906731226718883	2107607.837068271
0.9069579095255627	2097167.6349741486
0.907184649002944	2086724.8228295017
0.907411445165195	2076279.399981808
0.9076382980264862	2084229.75646297
0.907865207600993	2099822.9181091287
0.9080921739028933	2115419.9780456945
0.9083191969463691	2131020.9372472423
0.9085462767456058	2146625.7966885976
0.9087734133147922	2156617.721959708
0.9090006066681211	2160124.6307203616
0.909227856819788	2163632.416208201
0.9094551637839932	2167141.0786424177
0.9096825275749393	2170650.618242241
0.9099099482068329	2174792.479340303
0.9101374256938848	2181179.539231464
0.9103649600503083	2187568.195887594
0.9105925512903209	2193958.449707887
0.9108201994281437	2200350.301091642
0.9110479044780008	2206743.7504382357
0.9112756664541204	2212798.9224378783
0.911503485370734	2218847.828535452
0.9117313612420768	2224898.2468595505
0.9119592940823873	2230950.1777882283
0.912187283905908	2237003.6216996396
0.9124153307268845	2229931.1164852525
0.9126434345595664	2218092.3415826415
0.9128715954182063	2206250.606986316
0.9130998133170609	2194405.9119563354
0.9133280882703902	2182558.2557525984
0.913556420292458	2181127.1631152444
0.9137848093975312	2190441.523181139
