#wavelength	surface flux
0.676892	785141.3321138455
0.678297	801065.6892449111
0.679702	813694.3470829183
0.681109	826695.0890601173
0.682517	846061.7662517119
0.683926	864358.7445419795
0.685337	880276.595796237
0.686749	896309.6697209561
0.688164	911786.2119307145
0.689581	926513.9090150439
0.691	935094.4185635907
0.692422	946562.0468400762
0.693847	970543.8143597443
0.695274	994160.8253789089
0.696705	1012970.1335508262
0.698139	1029888.474241461
0.699576	1047317.8705158407
0.701017	1064495.2683111487
0.702461	1080157.3607903097
0.70391	1099911.1251286275
0.705362	1120081.976842766
0.706819	1137497.7238287744
0.70828	1155272.4436861996
0.709745	1173138.5179719378
0.711216	1193122.5845339117
0.71269	1211690.7213942085
0.71417	1229430.2928864975
0.715655	1242416.216546148
0.717145	1251807.0271903134
0.71864	1276603.5414481363
0.72014	1296264.591408875
0.721647	1313225.610869431
0.723158	1330568.2704391126
0.724676	1345773.76238311
0.726199	1361625.60171091
0.727728	1381562.7496455328
0.729264	1391863.5604494482
0.730805	1408870.4113637349
0.732353	1430829.5236818192
0.733907	1444870.9805949533
0.735468	1459059.6365023237
0.737035	1470485.3118932857
0.738609	1485141.1233744263
0.74019	1494434.4811946773
0.741777	1494373.5042065608
0.743372	1494598.0137804726
0.744973	1491544.0339827398
0.746582	1478783.484130241
0.748197	1457339.018941297
0.74982	1423924.1879016992
0.751451	1374823.9578329173
0.753088	1303721.1263968695
0.754734	1206836.5253732526
0.756386	1077984.1749025485
0.758047	906990.2065129748
0.759715	699896.0506923691
0.76139	462907.4840042985
0.763074	231123.87369739666
0.764765	71108.8469632249
0.766464	10520.32049515104
0.768172	14831.747435986628
0.769887	17964.9509140328
0.77161	128838.978110745
0.773341	384639.17666520504
0.775081	695846.0013960502
0.776829	990452.5686415788
0.778585	1156701.9098561283
0.780349	1262030.2376272953
0.782121	1613035.9485703972
0.783902	1839688.187752427
0.785691	1988992.3932615714
0.787489	2113409.050248514
0.789295	2218858.378209115
0.79111	2297298.9911694597
0.792933	2014710.9753627528
0.794764	1173544.993057291
0.796604	2238367.795628218
0.798453	2628607.167351046
0.80031	2709003.9517534156
0.802176	2779422.5473609236
0.804051	2844586.9190328177
0.805934	2905551.692397654
0.807826	2961651.2919203974
0.809727	2996344.753544173
0.811636	3036286.372453476
0.813554	3092063.6867215717
0.81548	3188233.5412682504
0.817416	3245917.2592840423
0.81936	3299185.876993648
0.821313	3370766.947262877
0.823274	3412881.4068688485
0.825244	3499624.286908604
0.827223	3559082.9045093674
0.829211	3603745.1195782563
0.831208	3659647.063021346
0.833213	3734034.0838713315
0.835227	3790132.957305588
0.837249	3830973.910666393
0.83928	3896501.3444037153
0.841321	3991763.861221938
0.843369	4072714.095477196
0.845427	4140194.9967916785
0.847493	4213565.84242293
0.849567	4270233.6598013025
0.851651	4298680.146078728
0.853742	4397852.183223466
0.855843	4501022.258722474
0.857952	4577258.525363094
0.86007	4637247.200328592
0.862196	4511672.642994806
0.864331	4623605.5519151315
0.866474	4746203.485784732
0.868626	4848467.964500661
0.870786	4915938.899772645
0.872955	4997052.909711648
0.875132	5070295.359731615
0.877317	5169935.67654441
0.879511	5176600.230257077
0.881713	5269873.793039899
0.883923	5393580.435635155
0.886142	5457669.099812468
0.888369	5521371.803575279
0.890604	5540298.581730487
0.892847	5486448.84831425
0.895099	5620778.529673937
0.897358	5788620.210711466
0.899626	5925707.071924644
0.901901	6044347.928898457
0.904185	6177122.098218492
0.906476	6259174.8589135455
0.908776	6353437.065136126
0.911083	6469837.468560839
0.913398	6508816.217579689
0.915721	6534874.958448478
0.918051	6559038.711993561
0.92039	6772855.373047545
0.922736	6845237.33769052
0.925089	6671323.32153097
0.927451	6173152.638486659
0.929819	5593539.960744934
0.932195	6150757.483499126
0.934579	6194184.604743046
0.93697	6474552.903277004
0.939369	6892050.665115951
0.941774	7006341.629474601
0.944187	6627946.469933919
0.946607	6548364.457944715
0.949035	7025182.294435486
0.951469	6962553.891099411
0.953911	7164358.237614974
0.956359	7689668.527275748
0.958814	7165931.194786108
0.961277	6951507.266054691
0.963746	7089535.681404223
0.966222	7249765.133402602
0.968705	7232895.698354497
0.971194	8049275.327698101
0.97369	8500347.058581188
0.976193	8425372.722430192
0.978702	8705436.181380896
0.981217	8836877.22167849
0.983739	8998199.822574215
0.986268	9136901.44438598
0.988802	9359435.712830223
0.991343	9567387.482570635
0.99389	9688672.242853284
0.996444	9901106.876427388
0.999003	9994509.562993405
1.00157	10070442.869581684
1.00414	10211538.59530313
1.00672	10420251.092877256
1.0093	10592312.428659244
1.01189	10779269.894421518
1.01448	10994059.689156527
1.01708	11152990.819779199
1.01969	11310945.033687016
1.0223	11387429.866458034
1.02492	11385459.745819947
1.02754	11569020.721068198
1.03017	11553838.994016612
1.0328	11966579.59617899
1.03544	12153908.289269725
1.03808	12298619.624216326
1.04073	12441135.054073008
1.04339	12580524.334204322
1.04604	12722439.477841865
1.04871	12818769.100163257
1.05138	12932915.44932102
1.05405	13130071.647371946
1.05673	13301148.34268825
1.05941	13439183.820944391
1.0621	13567821.469201207
1.06479	13707422.38312083
1.06749	13849918.279405633
1.07019	13937812.724821711
1.07289	14103618.109376404
1.0756	14274188.061455656
1.07832	14392473.009690618
1.08104	14555434.223936241
1.08376	14702528.72721714
1.08649	14800043.089682547
1.08922	14782319.981833683
1.09195	14709428.547724197
1.09469	14708406.471187714
1.09743	14839932.955527183
1.10018	13428305.147684129
1.10293	12078203.706028692
1.10568	11167281.506812708
1.10844	13075790.29154503
1.1112	12442232.237837339
1.11396	11579499.581772497
1.11673	11567911.705309011
1.1195	11879951.992330123
1.12228	11051159.045998102
1.12505	12883960.805951314
1.12783	12991818.133860331
1.13062	12892738.747706769
1.13341	9737959.551171117
1.1362	11748478.947569937
1.13899	14248603.223684225
1.14178	13935794.80708174
1.14458	14669686.312052803
1.14738	15545683.137177004
1.15019	13386644.758867232
1.153	10128275.36751549
1.1558	11320631.617311163
1.15862	11552910.593041163
1.16143	11761113.371499846
1.16425	13496426.331247512
1.16707	15245659.114074245
1.16989	14220576.548083263
1.17271	14712847.063258424
1.17554	16242313.478204649
1.17837	17286054.345575273
1.1812	17720168.428277805
1.18403	18700915.62102931
1.18686	18642876.166450005
1.1897	18657953.573255274
1.19253	19546396.467061713
1.19537	19979451.893993825
1.19822	20189962.345456164
1.20106	20544097.743586473
1.2039	20412249.465710044
1.20675	20745382.64914233
1.2096	20936667.301474098
1.21245	21022306.744295783
1.2153	21488896.197471302
1.21815	21754682.381700832
1.221	21967750.34376615
1.22385	22207047.1565605
1.22671	22455592.355903868
1.22957	22636391.861636654
1.23242	22751328.270308528
1.23528	22968309.57874736
1.23814	23193371.95521843
1.241	23359441.892542705
1.24387	23530863.096455608
1.24673	23703949.95528058
1.24959	23732957.799940087
1.25245	23432074.50561504
1.25532	24082940.351020336
1.25818	24391230.598584373
1.26105	24434413.347518682
1.26392	24513956.642909937
1.26678	24667319.277243968
1.26965	24773075.126699507
1.27252	24805912.193600066
1.27538	25089536.196871616
1.27825	25200285.89391723
1.28112	25143226.546140105
1.28399	25395573.26321314
1.28686	25388876.402643565
1.28973	25127661.438304584
1.2926	25053665.03139175
1.29546	25445883.93690989
1.29833	25702398.515961777
1.3012	25297478.048768964
1.30407	25292472.291694403
1.30694	25271748.921484634
1.30981	25779509.66162474
1.31267	25596748.215370487
1.31554	26160142.29156735
1.31841	26602283.176592264
1.32128	25875066.321955897
1.32414	24578278.526953522
1.32701	23976951.765074495
1.32987	22032403.136222377
1.33274	16050902.023783833
1.3356	12061075.12840457
1.33847	6209202.558802443
1.34133	3362711.807847951
1.34419	6208091.390393378
1.34705	8075311.795393443
1.34991	6005855.800649242
1.35277	3530765.713727344
1.35563	3591772.214468077
1.35849	4600242.9189265305
1.36135	3062642.730332281
1.3642	4932803.0114690475
1.36706	5364161.904449958
1.36991	4924024.66284029
1.37277	8639792.511433939
1.37562	12351833.194306776
1.37847	13274643.589216959
1.38132	6829092.33307711
1.38417	2161688.7413016898
1.38701	3657257.302781549
1.38986	3097615.5990419085
1.39271	3209297.13006503
1.39555	4300889.619093707
1.39839	3140996.76614484
1.40123	4898142.097703977
1.40407	8187781.737598608
1.40691	10270581.153739741
1.40974	6608271.557566015
1.41258	2847749.3811654607
1.41541	5154284.703078158
1.41824	6651811.6761086155
1.42107	4906392.450368082
1.4239	3501066.3029593714
1.42673	5999658.542508793
1.42955	8313759.359670743
1.43237	5416963.99045189
1.43519	7183382.389747567
1.43801	6026736.430600697
1.44083	7149104.370857872
1.44365	10070006.928503934
1.44646	10313992.088589806
1.44927	14464804.559793837
1.45208	16592054.63119358
1.45489	14270380.835893078
1.45769	16354063.29747174
1.4605	17562875.66817864
1.4633	17761122.538993847
1.4661	18681535.939283047
1.4689	15865772.445886372
1.47169	16501972.084297596
1.47449	16560583.306830605
1.47728	17184393.87610266
1.48007	16989283.55655849
1.48286	19793615.046864886
1.48564	22121647.82547164
1.48842	21719172.779102195
1.4912	21970827.122362886
1.49398	21675417.421541754
1.49676	20720997.566945687
1.49953	23141868.10974044
1.5023	25305786.883366827
1.50507	25274908.981891222
1.50784	24347906.23750157
1.51061	24613219.840414904
1.51337	25490355.28843387
1.51613	26604364.227295276
1.51888	28007415.52269329
1.52164	30123738.5829903
1.52439	31076977.516815804
1.52714	30121699.271597512
1.52989	29831441.824553017
1.53263	30802989.393431474
1.53538	31977893.45140892
1.53812	32073002.312731642
1.54086	31863580.270496342
1.54359	32087735.319806654
1.54632	33032697.944070656
1.54905	33216856.507650387
1.55178	34005949.39518779
1.5545	33886526.49488643
1.55723	33231808.53106914
1.55995	33343244.89486863
1.56266	34063142.67530588
1.56538	35226976.4343115
1.56809	35796592.85176754
1.5708	35745533.58825983
1.57351	35223279.98038383
1.57621	34864793.034749866
1.57891	33986067.166397825
1.58161	35014298.36050913
1.5843	36797986.07183857
1.587	37155769.30922392
1.58969	37107895.39348278
1.59238	37109188.845917515
1.59506	36878792.68891401
1.59774	36564176.11276423
1.60042	36617919.17998639
1.6031	36944128.10425814
1.60577	37200455.56601903
1.60844	37318631.39137775
1.61111	37214269.97896554
1.61378	37004752.23453899
1.61644	37118486.1050298
1.6191	36911064.86631928
1.62176	36684836.56152247
1.62441	37006124.731052846
1.62707	36953281.48861819
1.62971	36350463.15376462
1.63236	36085424.14205795
1.635	37278890.99894358
1.63764	38813791.1957961
1.64028	39292371.05196966
1.64292	39307750.08015409
1.64555	38929733.43448842
1.64818	37916091.623420216
1.65081	37759982.22829488
1.65343	38638449.2982817
1.65605	39030086.639911324
1.65867	39041980.6483331
1.66128	38632477.545251235
1.6639	37050231.731228024
1.66651	33781519.86835138
1.66911	33502637.057834294
1.67172	36658979.73142877
1.67432	38880411.70644819
1.67692	39003272.82359966
1.67951	38475233.27582857
1.68211	38614923.27885252
1.6847	38779560.4424937
1.68728	38358102.646784596
1.68987	37806392.00770462
1.69245	36680494.0253456
1.69503	34734596.017046496
1.6976	33847096.4354525
1.70018	35349652.15453443
1.70275	35507843.39962456
1.70531	35450311.0208314
1.70788	36187362.970725514
1.71044	35833573.317317575
1.713	36008670.75394967
1.71556	36450428.97537162
1.71811	37094518.57712594
1.72066	37652887.56869523
1.72321	37260085.00282792
1.72575	36911219.61836373
1.7283	36297790.40201945
1.73084	35108959.26636285
1.73337	33784622.81807615
1.73591	32756486.808490735
1.73844	32230123.172572535
1.74097	32040536.672971793
1.74349	30627213.48083135
1.74602	28843668.978160847
1.74854	27977525.903712593
1.75105	26155493.589150548
1.75357	23471335.888824075
1.75608	25445228.098169412
1.75859	30420477.015560623
1.7611	32746187.76161488
1.7636	32115699.28434104
1.7661	27899401.83130631
1.7686	23855968.932844523
1.7711	20503273.657656044
1.77359	16798430.706942994
1.77608	12163552.727695806
1.77857	9852685.69980882
1.78105	11306853.742672727
1.78354	12791722.880534464
1.78602	10658686.464611538
1.78849	8925009.749048032
1.79097	10581652.689197749
1.79344	12802387.024111934
1.79591	14051146.351505011
1.79837	15466563.33967768
1.80084	11085352.795789605
1.8033	7458546.06475312
1.80576	4446012.694526745
1.80821	3186741.9623872926
1.81067	6623837.749781754
1.81312	9878379.337980617
1.81557	6413332.389193513
1.81801	4053859.4188674847
1.82046	7227498.254995901
1.8229	10567793.175862364
1.82533	7971531.471703162
1.82777	3820297.1447016136
1.8302	3352615.168414779
1.83263	5301171.677209746
1.83506	7284664.244728895
1.83749	9547713.98794943
1.83991	11057338.318378245
1.84233	9820368.19693363
1.84475	9216949.973355293
1.84716	9691564.88311593
1.84957	10359249.67202629
1.85198	9175120.431182623
1.85439	5366109.05541906
1.8568	4569888.998469393
1.8592	5766329.73854745
1.8616	4801736.922577932
1.864	3326853.508760395
1.86639	3745443.7316475557
1.86878	5405264.443977833
1.87118	7584412.836643018
1.87356	9848439.831375472
1.87595	10776350.246140921
1.87833	12747006.025537694
1.88071	16556942.737128621
1.88309	16056914.241694534
1.88547	13538038.11368727
1.88784	13162280.156238781
1.89021	12615173.461824829
1.89258	16664058.64384823
1.89494	19493823.123694837
1.89731	14528391.394832924
1.89967	8301695.054580251
1.90203	4744170.962427054
1.90439	4495817.815273082
1.90674	6574324.1986989295
1.90909	7255794.507984724
1.91144	5199554.699885707
1.91379	2972892.5166471433
1.91613	2682546.2330317106
1.91848	3983124.5116412523
1.92082	5488895.8688594485
1.92315	5317180.2356366785
1.92549	4125792.0050027547
1.92782	4609937.251671126
1.93015	6128295.410014559
1.93248	7203572.067579654
1.93481	7270631.281936808
1.93713	6404349.822191483
1.93945	6014068.375486781
1.94177	6823891.452912851
1.94409	7570008.945804028
1.94641	7515267.561598851
1.94872	8212461.814603769
1.95103	9368187.852332642
1.95334	6926506.39290233
1.95564	5594508.575088409
1.95795	6521957.453608402
1.96025	6894351.4621122265
1.96255	6975307.970454788
1.96484	7700651.439725868
1.96714	9650629.425385414
1.96943	12176315.512175275
1.97172	13450722.137049744
1.97401	12475663.113535909
1.97629	13049344.757675568
1.97858	15329793.974242473
1.98086	16648055.543697301
1.98314	18053213.97946731
1.98541	18938505.0361449
1.98769	17845607.053561915
1.98996	15032226.308514763
1.99223	14338974.704324264
1.9945	15947897.687329015
1.99677	15393345.741449583
1.99903	15255645.739112072
2.00129	17573074.26004407
2.00355	20696984.302141532
2.00581	22198092.92720635
2.00806	22342322.362729326
2.01031	24976349.56748395
2.01256	26549946.531995185
2.01481	25119169.41323585
2.01706	23093061.73573658
2.0193	22950468.429848026
2.02154	25335144.31388911
2.02378	28143059.92845702
2.02602	29001645.614193194
2.02825	29658392.036692746
2.03049	30534127.98216449
2.03272	31661704.88978934
2.03494	32779594.065693475
2.03717	33484598.659766577
2.03939	33860323.12354655
2.04162	35007111.59148423
2.04384	36013608.7478812
2.04605	37132585.55743097
2.04827	38254341.4906394
2.05048	38476671.12448959
2.05269	37061868.961390845
2.0549	36698965.00776013
2.05711	37298126.081069104
2.05931	38290375.56500587
2.06151	39126446.987995476
2.06371	39819488.90987926
2.06591	40326692.88243048
2.06811	40709263.93728419
2.0703	40868038.65973828
2.07249	40742199.9775888
2.07468	40334538.747930825
2.07686	40325538.80580003
2.07905	40605831.316869095
2.08123	40949560.417999275
2.08341	41251177.859714076
2.08559	41538798.959592625
2.08776	41729766.444260456
2.08994	41637036.73653926
2.09211	41378894.284547366
2.09428	41157684.91136916
2.09645	41347098.68493001
2.09861	41428907.9788869
2.10077	41378309.581551634
2.10293	41170197.03892496
2.10509	40819763.92314379
2.10725	40519276.699376844
2.1094	41065648.077857666
2.11155	41694986.882073835
2.1137	42039350.92779224
2.11585	41764644.66841821
2.11799	41537179.56604995
2.12013	41580283.39538199
2.12227	41793530.83893851
2.12441	42059826.34116544
2.12655	42141295.59441685
2.12868	42138447.32482524
2.13081	42174742.88972462
2.13294	42244919.855923206
2.13507	42100673.19907109
2.13719	41697615.474902965
2.13931	41357329.00181638
2.14143	41119479.75484622
2.14355	40874631.04003138
2.14567	40726143.70388998
2.14778	40572417.59139237
2.14989	40355485.53267906
2.152	39966786.32630408
2.1541	40041577.240406394
2.15621	40208054.910506696
2.15831	40293762.47970926
2.16041	39944953.607807525
2.16251	39786925.86569193
2.1646	39661708.20591408
2.1667	39548889.6662312
2.16879	39538817.928864926
2.17087	39435869.81467913
2.17296	39244846.44689065
2.17504	38974156.28924873
2.17713	38828340.12857635
2.1792	38723598.67537376
2.18128	38583175.517515875
2.18336	38317875.50395705
2.18543	37903303.04161394
2.1875	37436896.76492387
2.18957	36822213.31219276
2.19163	35610804.64187624
2.1937	33504027.100535266
2.19576	31120657.720403884
2.19782	28704549.186560296
2.19987	27363589.199416656
2.20193	26514302.900640834
2.20398	26075745.72653761
2.20603	25912522.26223643
2.20808	26383071.0673958
2.21012	27180832.783598002
2.21217	28235294.20665842
2.21421	28773732.59897495
2.21625	28789670.436608136
2.21828	28358209.05173885
2.22032	28227532.696287654
2.22235	28053117.235032357
2.22438	27627485.871544313
2.22641	26380312.291849285
2.22843	24996475.453202184
2.23046	23804569.971130855
2.23248	23092494.63266679
2.2345	22958828.712490488
2.23651	22845024.41309444
2.23853	22664652.864892486
2.24054	21550673.822393276
2.24255	20226319.37615684
2.24456	18814771.341903295
2.24657	18855439.108870078
2.24857	19667804.228881996
2.25057	20923723.506574977
2.25257	21579361.424641717
2.25457	22071221.770150695
2.25656	22456618.160004377
2.25856	22771584.54235497
2.26055	22155501.619731836
2.26254	20985392.339314602
2.26453	19308776.487039022
2.26651	18216759.51322087
2.2685	17657641.62158795
2.27048	18223309.841309883
2.27246	19165622.572745968
2.27443	20068966.04898108
2.27641	20189915.46918964
2.27838	19648107.24848503
2.28036	18834338.021047864
2.28233	18193481.450615674
2.28429	17735329.29232169
2.28626	17333252.604704764
2.28823	16709131.037559925
2.29019	15940904.498420814
2.29215	15070314.032446222
2.29411	14097450.239731882
2.29607	13147252.908997573
2.29802	12222237.238437306
2.29998	11599885.984691322
2.30193	11186766.006768836
2.30388	11009138.616645973
2.30583	11179770.728529086
2.30778	11506812.757723076
2.30972	12045101.089391684
2.31167	12227289.50012546
2.31361	11951256.773939805
2.31555	10569443.519279836
2.31749	9186035.324609034
2.31943	7940811.605714168
2.32137	7679453.168626081
2.32331	7545941.9134576125
2.32524	7514398.333979294
2.32718	7477039.6516529005
2.32911	7536606.708586485
2.33104	7735890.839019716
2.33297	7948809.144074919
2.3349	8160860.350158735
2.33683	8361161.405252952
2.33876	8543649.715994706
2.34068	8708961.562265567
2.34261	8769257.679914717
2.34453	8835846.79288409
2.34646	8910307.846249422
2.34838	9074724.590082787
2.3503	9350527.244343137
2.35223	9894285.713055415
2.35415	10392309.58330157
2.35607	10864396.847333709
2.35799	11261828.438581798
2.35991	11834665.43010623
2.36183	12619198.594377652
2.36375	12560421.485717239
2.36566	11942653.206187148
2.36758	9924059.034864333
2.3695	8396811.205057144
2.37142	7184528.978785897
2.37334	7709968.801545156
2.37526	7968832.335428994
2.37718	7768238.685854746
2.3791	7508950.744057998
2.38101	7362723.640206519
2.38293	8178882.36398246
2.38485	9301115.004623653
2.38677	10735865.2235375
2.3887	11556289.984486744
2.39062	12074574.515685936
2.39254	11957823.00062781
2.39446	11468556.120863434
2.39639	10736705.36783288
2.39831	10201126.452059483
2.40024	9742386.731687803
2.40216	9427295.79477337
2.40409	9473904.182772966
2.40602	9718092.901322445
2.40795	10544479.478221321
2.40989	11245697.477882553
2.41182	11784912.53772697
2.41376	12130715.336761892
2.4157	12506117.692333138
2.41764	13207635.333925337
2.41958	13659749.860041818
2.42152	13909078.675444456
2.42347	13224300.068437299
2.42542	12561543.449310038
