#wavelength	surface flux
0.8	96848343.69250631
0.8002000000000001	97214467.90276091
0.8004000500000003	97067957.01283796
0.8006001500125003	96916230.45138703
0.8008003000500035	96764465.95829572
0.8010005001250161	96612663.52408107
0.8012007502500472	96460823.13925809
0.8014010504376099	96605910.6280478
0.8016014007002193	96850508.87036315
0.8018018010503944	97095168.2622391
0.8020022515006572	97339888.81896311
0.8022027520635323	97584670.55582611
0.8024033027515483	97787464.99011157
0.8026039035772362	97949104.2337074
0.8028045545531306	98110783.88711411
0.8030052556917691	98272503.96043426
0.803206007005692	98434264.4637726
0.8034068085074435	98578814.70068091
0.8036076602095705	98675044.81426
0.8038085621246229	98771298.98536743
0.8040095142651542	98867577.22001769
0.8042105166437206	98963879.52422658
0.8044115692728815	99055266.08441386
0.8046126721651998	98934205.14700584
0.8048138253332411	98813113.94436355
0.8050150287895745	98691992.4689205
0.805216282546772	98570840.71310861
0.8054175866174087	98449658.66935784
0.8056189410140631	98367689.8310446
0.8058203457493168	98296808.9565643
0.8060218008357541	98225910.3618655
0.8062233062859632	98154994.04251797
0.8064248621125346	98084059.99409066
0.806626468328063	98057260.90860692
0.8068281249451449	98068376.94827028
0.8070298319763813	98079495.76694357
0.8072315894343755	98090617.36532153
0.8074333973317341	98101741.74409908
0.8076352556810671	98148684.34166835
0.8078371644949874	98281852.41394037
0.8080391237861113	98415053.77823049
0.8082411335670578	98548288.44286159
0.8084431938504498	98681556.416159
0.8086453046489125	98814199.19887817
0.8088474659750746	98934614.91108525
0.8090496778415686	99055060.72722057
0.809251940261029	99175536.6548098
0.8094542532460944	99296042.70138106
0.8096566168094059	99416578.87446381
0.8098590309636085	99413423.66398428
0.8100614957213493	99381309.63328536
0.8102640110952797	99349187.57407874
0.8104665770980536	99317057.48435731
0.8106691937423283	99284919.36211345
0.8108718610407639	99283159.3693506
0.8110745790060241	99304633.64135054
0.8112773476507757	99326113.2819185
0.8114801669876885	99347598.29239658
0.8116830370294355	99369088.67412728
0.8118859577886929	99441426.40787034
0.8120889292781401	99619383.24050602
0.8122919515104597	99797384.56234986
0.8124950244983374	99975430.38452417
0.8126981482544621	100153520.718154
0.8129013227915257	100334612.44874857
0.8131045481222237	100549606.11600322
0.8133078242592543	100764653.5316747
0.8135111512153191	100979754.70920004
0.813714529003123	101194909.66201977
0.8139179576353739	101410118.40357776
0.8141214371247829	101559811.7636741
0.8143249674840641	101696827.57953927
0.814528548725935	101833877.64935832
0.8147321808631167	101970961.98169501
0.8149358639083326	102108080.58511475
0.8151395978743097	102108351.84834953
0.8153433827737784	102016140.21398167
0.8155472186194719	101923905.52670527
0.8157511054241268	101831647.78075704
0.815955043200483	101739366.97037227
0.8161590319612831	101644425.58726789
0.8163630717192736	101544627.56695348
0.8165671624872033	101444804.5971341
0.8167713042778252	101344956.67157218
0.8169754971038948	101245083.78402881
0.8171797409781707	101094073.26827738
0.8173840359134155	100534976.80515848
0.8175883819223938	99975740.56792445
0.8177927790178745	99416364.5216308
0.8179972272126291	98856848.63132542
0.8182017265194322	98297192.86204803
0.8184062769510622	98206275.72292365
0.8186108785203001	98187489.32270001
0.8188155312399301	98168698.22587633
0.8190202351227402	98149902.43127842
0.819224990181521	98131101.93773188
0.8194297964290664	98614600.18359417
0.8196346538781738	99400981.81120673
0.8198395625416434	100187560.03422588
0.8200445224322789	100974334.90180112
0.820249533562887	101761306.46309303
0.8204545959462778	102366406.33799839
0.8206597095952644	102678623.26615301
0.8208648745226633	102990918.2485399
0.8210700907412941	103303291.30467233
0.8212753582639793	103615742.45406848
0.8214806771035456	103903431.35044181
0.8216860472728215	104038145.25150329
0.8218914687846397	104172892.83104004
0.822096941651836	104307674.09747176
0.822302465887249	104442489.05921999
0.8225080415037209	104577337.72470874
0.8227136685140968	104866871.68622023
0.8229193469312254	105174034.21819235
0.8231250767679583	105481273.54079759
0.8233308580371503	105788589.6732333
0.8235366907516598	106095982.63470235
0.8237425749243477	106180762.64753233
0.8239485105680789	106147534.34826389
0.824154497695721	106114297.74192066
0.824360536320145	106081052.82642584
0.8245666264542252	106047799.59970215
0.8247727681108388	106140090.19414411
0.8249789613028664	106412218.14831266
0.8251852060431922	106684414.13446997
0.825391502344703	106956678.16962372
0.8255978502202894	107229010.2707865
0.8258042496828445	107486143.04585317
0.8260107007452654	107669192.85652614
0.8262172034204517	107852288.42965159
0.8264237577213068	108035429.77667035
0.8266303636607373	108218616.90902597
0.8268370212516525	108401849.83816458
0.8270437305069654	108449154.83733319
0.8272504914395923	108485846.19882438
0.8274573040624523	108522546.73315595
0.8276641683884679	108559256.44262107
0.8278710844305652	108595975.3295136
0.8280780522016729	108752541.77049577
0.8282850717147234	108963925.25209083
0.8284921429826521	109175361.57955608
0.8286992660183978	109386850.76610334
0.8289064408349024	109598392.8249471
0.8291136674451112	109820708.91424379
0.8293209458619727	110056599.40910035
0.8295282760984382	110292548.87658033
0.829735658167463	110528557.33142745
0.8299430920820048	110764624.78838798
0.8301505778550254	110969227.98334675
0.8303581154994891	111048063.69194101
0.8305657050283641	111126919.10946248
0.8307733464546212	111205794.24083829
0.8309810397912352	111284689.09099706
0.8311887850511829	111363603.66486822
0.8313965822474458	111662479.94797185
0.8316044313930077	111971639.62090309
0.8318123325008561	112280876.58375284
0.8320202855839813	112590190.85584316
0.8322282906553774	112899582.45650153
0.8324363477280413	113158715.58646215
0.8326444568149735	113397648.47671577
0.8328526179291771	113636641.10019167
0.8330608310836596	113875693.47182378
0.8332690962914304	114114805.6065485
0.8334774135655034	114238869.72149144
0.833685782918895	114234385.66224723
0.8338942043646247	114229900.4819882
0.834102677915716	114225414.18043414
0.834311203585195	114220926.75730467
0.8345197813860912	114310087.8096121
0.8347284113314379	114714504.45440945
0.8349370934342709	115119022.20336777
0.8351458277076294	115523641.08176285
0.8353546141645565	115928361.11487819
0.8355634528180977	116333182.32800165
0.8357723436813022	115941090.81880441
0.8359812867672226	115539060.19552486
0.8361902820889144	115136929.06458968
0.8363993296594368	114734697.40087165
0.8366084294918518	114332365.17923756
0.8368175815992247	114151137.85712151
0.8370267859946247	114046050.66840824
0.8372360426911234	113940937.20789783
0.8374453517017962	113835797.46902229
0.8376547130397217	113730631.44521205
0.8378641267179816	113812592.18472037
0.8380735927496613	114080277.89539717
0.8382831111478488	114348030.5275015
0.8384926819256358	114615850.09776369
0.8387023050961173	114883736.62291868
0.8389119806723914	115064567.84728828
0.8391217086675596	115000253.73678684
0.8393314890947265	114935923.54775783
0.8395413219670003	114871577.27618156
0.8397512072974922	114807214.91803734
0.8399611450993165	114745991.5247216
0.8401711353855914	114841431.75005645
0.8403811781694378	114936895.8354476
0.8405912734639802	115032383.78686012
0.8408014212823464	115127895.61026056
0.8410116216376671	115223431.31161682
0.8412218745430766	115264907.35708722
0.8414321800117124	115290657.54849572
0.8416425380567154	115316414.17745209
0.8418529486912297	115342177.2455657
0.8420634119284025	115367946.7544463
0.8422739277813847	115710125.32834859
0.8424844962633302	116331152.43504666
0.842695117387396	116952334.79852061
0.8429057911667428	117573672.45758545
0.8431165176145345	118195165.45106536
0.8433272967439382	118591010.90044567
0.8435381285681244	118436159.38059358
0.8437490131002665	118281269.14786157
0.8439599503535415	118126340.19257146
0.84417094034113	117971372.50504242
0.8443819830762154	117806890.01380941
0.8445930785719846	117451470.32726897
0.8448042268416277	117095961.78580709
0.8450154278983382	116740364.36720988
0.8452266817553128	116384678.04925807
0.8454379884257517	116028902.80972672
0.8456493479228583	116165414.0270435
0.845860760259839	116420529.2862309
0.846072225449904	116675708.32423308
0.8462837435062666	116930951.15699482
0.8464953144421433	117186257.8004649
0.8467069382707537	117394801.95512342
0.8469186150053215	117566898.57103
0.847130344659073	117739038.21109061
0.8473421272452377	117911220.88606106
0.8475539627770492	118083446.60670042
0.8477658512677435	118218548.56914835
0.8479777927305605	118274765.47044204
0.8481897871787432	118330996.42596106
0.848401834625538	118387241.43921898
0.8486139350841944	118443500.51373018
0.8488260885679657	118470639.19942428
0.8490382950901076	118142646.02335806
0.8492505546638802	117814570.84899765
0.8494628673025462	117486413.65584376
0.8496752330193721	117158174.42339112
0.8498876518276269	116829853.13113078
0.8501001237405839	116987364.12365106
0.8503126487715191	117241911.53522968
0.850525226933712	117496522.58366106
0.8507378582404455	117751197.28485455
0.8509505427050057	118005935.65472348
0.8511632803406821	118566326.55513185
0.8513760711607672	119336129.9542931
0.8515889151785576	120106125.80430534
0.8518018124073523	120876314.15327945
0.8520147628604541	121646695.04934035
0.8522277665511693	122285711.04201123
0.8524408234928071	122681587.09726875
0.8526539336986805	123077562.12154017
0.8528670971821053	123473636.1395677
0.8530803139564007	123869809.17609927
0.8532935840348901	124223271.14735562
0.8535069074308987	124215268.24151994
0.8537202841577566	124207263.3349578
0.8539337142287962	124199256.42716901
0.8541471976573534	124191247.51765327
0.8543607344567677	124183236.60591017
0.8545743246403821	124160940.86959274
0.8547879682215422	124136371.28398754
0.8550016652135977	124111795.55598594
0.8552154156299011	124087213.68405235
0.8554292194838088	124062625.66665076
0.8556430767886797	123946576.62012152
0.855856987557877	123774969.57237168
0.8560709518047664	123603319.62286
0.8562849695427177	123431626.76086088
0.8564990407851035	123259890.9756462
0.8567131655452999	123175249.35012117
0.8569273438366862	123233363.60012604
0.8571415756726455	123291492.37869342
0.8573558610665638	123349635.68945546
0.8575702000318304	123407793.53604513
0.8577845925818384	123595210.56120229
0.857999038729984	124589984.07059968
0.8582135384896665	125585006.27337417
0.858428091874289	126580277.2316994
0.8586426988972576	127575797.00776398
0.8588573595719821	128571565.6637729
0.8590720739118751	128270995.2585932
0.8592868419303532	127817478.11102545
0.8595016636408359	127363847.5841708
0.8597165390567462	126910103.6496846
0.8599314681915105	126456246.27921465
0.8601464510585584	126097114.8212661
0.860361487671323	125788233.659651
0.8605765780432408	125479275.27774557
0.8607917221877518	125170239.65624443
0.8610069201182988	124861126.77583799
0.8612221718483286	123928568.81951095
0.8614374773912907	122097108.68287961
0.8616528367606385	120265190.68121462
0.8618682499698288	118432814.70004804
0.8620837170323213	116599980.62488648
0.8622992379615795	115042254.71324727
0.8625148127710699	114847811.77076474
0.8627304414742627	114653320.21754658
0.8629461240846313	114458780.04144007
0.8631618606156526	114264191.23028953
0.8633776510808066	114069553.77193624
0.8635934954935769	116005234.34806475
0.8638093938674504	118116028.85528941
0.8640253462159173	120227351.06114082
0.8642413525524714	122339201.09754363
0.8644574128906095	124451579.09645511
0.8646735272438323	124398408.82238582
0.8648896956256433	123337939.72574276
0.8651059180495498	122277205.51182547
0.8653221945290621	121216206.11435571
0.8655385250776946	120154941.46703511
0.8657549097089641	119826302.91724092
0.8659713484363913	120435844.32545604
0.8661878412735006	121045538.11902349
0.866404388233819	121655384.33603925
0.8666209893308775	122265383.01460898
0.8668376445782103	122755777.29673411
0.8670543539893549	122757505.49094032
0.8672711175778525	122759234.11719508
0.8674879353572469	122760963.17560641
0.8677048073410862	122762692.66628234
0.8679217335429217	122764422.58933094
0.8681387139763074	122626770.26953585
0.8683557486548015	122482159.36045936
0.8685728375919655	122337512.29865542
0.8687899808013633	122192829.07508634
0.8690071782965637	122048109.68071118
0.869224430091138	121835947.3836025
0.8694417361986609	121596304.33558959
0.8696590966327107	121356601.37681471
0.869876511406869	121116838.49230014
0.8700939805347206	120877015.66706455
0.8703115040298544	120702734.17457685
0.870529081905862	120603410.36216512
0.8707467141763385	120504061.71880034
0.8709644008548827	120404688.23827471
0.8711821419550964	120305289.91437902
0.8713999374905854	120313585.79044792
0.871617787474958	120693659.55478512
0.8718356919218269	121073828.33756375
0.8720536508448075	121454092.1625381
0.8722716642575187	121834451.05346848
0.8724897321735832	122214905.03412175
0.8727078546066265	122462005.52222514
0.8729260315702784	122707137.59438969
0.873144263078171	122952330.94957203
0.8733625491439405	123197585.60309318
0.8735808897812266	123442901.57027781
0.8737992850036719	123444734.1319044
0.874017734824923	123360307.61124425
0.8742362392586293	123275859.98395397
0.874454798318444	123191391.24475686
0.8746734120180236	123106901.38837497
0.8748920803710283	123079637.91479924
0.875110803391121	123109895.91322431
0.8753295810919689	123140161.47614901
0.875548413487242	123170434.60546443
0.8757673005906139	123200715.30306219
0.8759862424157616	123367479.02646577
0.8762052389763657	123929182.61231695
0.8764242902861098	124491026.6240642
0.8766433963586814	125053011.09681454
0.8768625572077712	125615136.06568325
0.8770817728470732	126174843.55586328
0.8773010432902849	126534968.01197693
0.8775203685511077	126895182.49920513
0.8777397486432454	127255487.0400547
0.8779591835804065	127615881.6570399
0.8781786733763015	127976366.37267888
0.8783982180446457	127492604.49020703
0.878617817599157	126757547.27513815
0.8788374720535569	126022306.29576586
0.8790571814215703	125286881.5061489
0.8792769457169257	124551272.86033453
0.879496764953355	124114111.77526163
0.8797166391445934	123945330.69953448
0.8799365683043796	123776507.4285384
0.8801565524464557	123607641.95172456
0.8803765915845676	123438734.25854136
0.8805966857324639	123546651.34068468
0.880816834903897	124350002.31042188
0.881037039112623	125153554.11790186
0.8812572983724012	125957306.81333362
0.8814776126969944	126761260.44693959
0.8816979821001687	127531672.0208171
0.8819184065956938	127507959.16485775
0.8821388861973429	127484240.38068439
0.8823594209188923	127460515.66681501
0.882580010774122	127436785.02176717
0.8828006557768155	127413048.44405806
0.8830213559407598	127867967.56829153
0.8832421112797452	128443388.68254073
0.8834629218075651	129018953.65206815
0.8836837875380171	129594662.51283814
0.8839047084849018	130170515.3008234
0.884125684662023	129995617.69127499
0.8843467160831886	129218930.42744456
0.8845678027622095	128442048.99179818
0.8847889447129001	127664973.33579274
0.8850101419490785	126887703.41087343
0.8852313944845657	126758427.7077674
0.885452702333187	128047924.89749336
0.8856740655087704	129337744.46151657
0.8858954840251476	130627886.48043042
0.8861169578961539	131918351.03484842
0.886338487135628	133052571.91049024
0.886560071757412	132103584.95966502
0.8867817117753515	131154360.7621021
0.8870034072032955	130204899.25848937
0.8872251580550963	129255200.38950185
0.8874469643446101	128305264.0957965
0.8876688260856963	128402253.37336494
0.8878907432922178	128715990.71273507
0.8881127159780409	129029806.48643984
0.8883347441570356	129343700.7140884
0.8885568278430749	129657673.41529356
0.8887789670500358	129727515.72894588
0.8890011617917983	129624140.15940584
0.8892234120822464	129520738.74597338
0.8894457179352669	129417311.48218764
0.8896680793647509	129313858.36158589
0.8898904963845921	129301486.04912946
0.8901129690086883	129462944.570866
0.8903354972509405	129624443.45723294
0.8905580811252535	129785982.71832158
0.8907807206455347	129947562.36422528
0.8910034158256963	130081192.79200861
0.8912261666796527	129964714.46707106
0.8914489732213227	129848207.02255222
0.8916718354646282	129731670.45117214
0.8918947534234944	129615104.74564934
0.8921177271118502	129498509.89870022
0.8923407565436284	129718285.37163413
0.8925638417327644	129992991.68889618
0.8927869826931977	130267766.68273763
0.8930101794388711	130542610.37032753
0.8932334319837308	130817522.76883928
0.8934567403417267	131150491.02168974
0.8936801045268123	131519574.68960452
0.8939035245529441	131888750.62843603
0.8941270004340824	132258018.86125238
0.894350532184191	132627379.41112685
0.8945741198172371	132951814.58499177
0.8947977633471915	133201674.35530116
0.8950214627880284	133451596.59055312
0.8952452181537254	133701581.30636375
0.8954690294582639	133951628.51835346
0.8956928967156286	134158525.43842022
0.8959168199398075	134085038.3801616
0.8961407991447926	134011532.9501384
0.8963648343445789	133938009.1437577
0.896588925553165	133864466.95642543
0.8968130727845534	133790906.38354634
0.8970372760527496	134157000.63964576
0.8972615353717629	134578198.3932276
0.8974858507556059	134999501.4462479
0.8977102222182949	135420909.82503134
0.8979346497738496	135842423.5559097
0.8981591334362931	136218545.93308082
0.8983836732196523	136569881.2478289
0.8986082691379572	136921304.39640546
0.8988329212052417	137272815.40076917
0.8990576294355432	137624414.28288427
0.8992823938429022	137609926.16227332
0.8995072144413631	137050978.8733961
0.8997320912449734	136491891.84769687
0.8999570242677847	135932665.05024132
0.9001820135238516	135373298.44608638
0.9004070590272328	134930834.76657772
0.9006321607919896	135101838.58276698
0.9008573188321878	135272885.14991048
0.9010825331618959	135443974.4786957
0.9013078037951865	135615106.57981312
0.9015331307461353	135786281.46395573
0.9017585140288219	136056850.61232862
0.9019839536573292	136336044.80266228
0.9022094496457435	136615308.79154333
0.9024350020081551	136894642.5964219
0.9026606107586572	137174046.2347516
0.902886275911347	137499466.7521846
0.9031119974803249	137847118.29054537
0.9033377754796951	138194856.7417907
0.903563609923565	138542682.12764874
0.903789500826046	138890594.46985346
0.9040154482012526	139119880.41330793
0.904241452063303	139195440.8639809
0.9044675124263188	139271020.20476648
0.9046936293044254	139346618.44038725
0.9049198027117517	139422235.57556695
0.9051460326624297	139475124.16570804
0.9053723191705955	139431162.0469071
0.9055986622503881	139387188.93757647
0.9058250619159507	139343204.8349685
0.9060515181814298	139299209.7363349
0.9062780310609752	139255203.63892663
0.9065046005687405	139371222.49244106
0.906731226718883	139496198.28330684
0.9069579095255627	139621205.3181202
0.907184649002944	139746243.60469228
0.907411445165195	139871313.1508361
0.9076382980264862	139668037.91176185
0.907865207600993	139328337.8874121
0.9080921739028933	138988552.93805635
0.9083191969463691	138648683.04246333
0.9085462767456058	138308728.17939627
0.9087734133147922	138573790.3854021
0.9090006066681211	139537819.2340882
0.909227856819788	140502089.0899852
0.9094551637839932	141466600.01334748
0.9096825275749393	142431352.0644403
0.9099099482068329	143102544.19177163
0.9101374256938848	142729729.871493
0.9103649600503083	142356822.3476345
0.9105925512903209	141983821.5968951
0.9108201994281437	141610727.59596762
0.9110479044780008	141237540.32154033
0.9112756664541204	141416789.01105645
0.911503485370734	141608729.81011537
0.9117313612420768	141800718.59437403
0.9119592940823873	141992755.37582874
0.912187283905908	142184840.16647884
0.9124153307268845	142152697.93616933
0.9126434345595664	142039148.93922725
0.9128715954182063	141925571.5550361
0.9130998133170609	141811965.7764988
0.9133280882703902	141698331.59651688
0.913556420292458	141716308.20646518
