#wavelength	surface flux
0.8	37457091.48129136
0.8002000000000001	37590717.28636118
0.8004000500000003	37546309.57044212
0.8006001500125003	37500092.10130242
0.8008003000500035	37453863.07779544
0.8010005001250161	37407622.49703255
0.8012007502500472	37361370.35612455
0.8014010504376099	37422526.372388825
0.8016014007002193	37519680.00213384
0.8018018010503944	37616857.92028629
0.8020022515006572	37714060.13291833
0.8022027520635323	37811286.646103434
0.8024033027515483	37894421.31653296
0.8026039035772362	37963743.49438163
0.8028045545531306	38033083.00277476
0.8030052556917691	38102439.84604502
0.803206007005692	38171814.02852604
0.8034068085074435	38234106.220654115
0.8036076602095705	38276513.51154986
0.8038085621246229	38318931.40426829
0.8040095142651542	38361359.901459925
0.8042105166437206	38403799.00577585
0.8044115692728815	38444506.0592382
0.8046126721651998	38410268.38543456
0.8048138253332411	38376022.152212486
0.8050150287895745	38341767.357432075
0.805216282546772	38307503.99895298
0.8054175866174087	38273232.074634284
0.8056189410140631	38251765.542270586
0.8058203457493168	38233920.82502978
0.8060218008357541	38216071.646609694
0.8062233062859632	38198218.00589498
0.8064248621125346	38180359.90177011
0.806626468328063	38176755.33135755
0.8068281249451449	38185395.75543926
0.8070298319763813	38194038.339627
0.8072315894343755	38202683.08446077
0.8074333973317341	38211329.990480766
0.8076352556810671	38237329.28676795
0.8078371644949874	38305099.980144426
0.8080391237861113	38372887.616194256
0.8082411335670578	38440692.19915305
0.8084431938504498	38508513.733257666
0.8086453046489125	38576221.25619552
0.8088474659750746	38641507.34348677
0.8090496778415686	38706809.75229993
0.809251940261029	38772128.48671524
0.8094542532460944	38837463.55081422
0.8096566168094059	38902814.94867914
0.8098590309636085	38914769.1559575
0.8100614957213493	38914224.47932062
0.8102640110952797	38913679.66651459
0.8104665770980536	38913134.71750536
0.8106691937423283	38912589.63225887
0.8108718610407639	38921408.047346465
0.8110745790060241	38937388.54848692
0.8112773476507757	38953373.04475267
0.8114801669876885	38969361.53714249
0.8116830370294355	38985354.02665539
0.8118859577886929	39021752.691736326
0.8120889292781401	39100536.67118141
0.8122919515104597	39179340.34662135
0.8124950244983374	39258163.72298015
0.8126981482544621	39337006.80518303
0.8129013227915257	39417080.39709449
0.8131045481222237	39511037.84035697
0.8133078242592543	39605018.77298028
0.8135111512153191	39699023.20083672
0.813714529003123	39793051.129800126
0.8139179576353739	39887102.5657458
0.8141214371247829	39925696.05714572
0.8143249674840641	39953540.409139544
0.814528548725935	39981391.722221345
0.8147321808631167	40009249.99813146
0.8149358639083326	40037115.238610536
0.8151395978743097	40023339.50243585
0.8153433827737784	39981421.224663734
0.8155472186194719	39939492.46732219
0.8157511054241268	39897553.227791324
0.815955043200483	39855603.50345055
0.8161590319612831	39813652.812580206
0.8163630717192736	39771709.0799286
0.8165671624872033	39729754.861343876
0.8167713042778252	39687790.154204465
0.8169754971038948	39645814.95588825
0.8171797409781707	39595564.45886145
0.8173840359134155	39479320.90191816
0.8175883819223938	39363048.284085765
0.8177927790178745	39246746.598098844
0.8179972272126291	39130415.8366904
0.8182017265194322	39014055.992591724
0.8184062769510622	39020301.58882037
0.8186108785203001	39045420.38557731
0.8188155312399301	39070545.46203341
0.8190202351227402	39095676.81975866
0.819224990181521	39120814.46032332
0.8194297964290664	39244661.01468116
0.8196346538781738	39428031.36545881
0.8198395625416434	39611447.558824085
0.8200445224322789	39794909.606237784
0.820249533562887	39978417.51916327
0.8204545959462778	40141619.8490326
0.8206597095952644	40272107.853976175
0.8208648745226633	40402628.48092109
0.8210700907412941	40533181.738022715
0.8212753582639793	40663767.63343849
0.8214806771035456	40789731.81848956
0.8216860472728215	40887050.98584648
0.8218914687846397	40984394.48299526
0.822096941651836	41081762.31601836
0.822302465887249	41179154.49099967
0.8225080415037209	41276571.01402477
0.8227136685140968	41395371.650171146
0.8229193469312254	41516626.765538864
0.8231250767679583	41637912.19468547
0.8233308580371503	41759227.94518929
0.8235366907516598	41880574.02463082
0.8237425749243477	41909917.022187755
0.8239485105680789	41890488.02584638
0.824154497695721	41871054.17225593
0.824360536320145	41851615.46020208
0.8245666264542252	41832171.888470225
0.8247727681108388	41862938.42486078
0.8249789613028664	41965629.93961326
0.8251852060431922	42068347.12724452
0.825391502344703	42171089.99417263
0.8255978502202894	42273858.54681758
0.8258042496828445	42373305.06187669
0.8260107007452654	42456517.95340032
0.8262172034204517	42539751.64814675
0.8264237577213068	42623006.15131689
0.8266303636607373	42706281.46811285
0.8268370212516525	42789577.60373797
0.8270437305069654	42824487.768248394
0.8272504914395923	42855623.98386196
0.8274573040624523	42886767.98352943
0.8276641683884679	42917919.76919679
0.8278710844305652	42949079.34281061
0.8280780522016729	43022392.728534
0.8282850717147234	43114989.31131135
0.8284921429826521	43207609.0432343
0.8286992660183978	43300251.93009031
0.8289064408349024	43392917.977667965
0.8291136674451112	43495504.193592824
0.8293209458619727	43610595.67945369
0.8295282760984382	43725715.93818588
0.829735658167463	43840864.976982884
0.8299430920820048	43956042.80303944
0.8301505778550254	44055694.575189486
0.8303581154994891	44093287.3054175
0.8305657050283641	44130889.433828115
0.8307733464546212	44168500.9627708
0.8309810397912352	44206121.89459578
0.8311887850511829	44243752.231653646
0.8313965822474458	44358392.179182604
0.8316044313930077	44476634.77342609
0.8318123325008561	44594906.928318255
0.8320202855839813	44713208.65124908
0.8322282906553774	44831539.94961064
0.8324363477280413	44946667.16357517
0.8326444568149735	45060521.29632773
0.8328526179291771	45174403.89261335
0.8330608310836596	45288314.95954821
0.8332690962914304	45402254.504249655
0.8334774135655034	45465076.36216654
0.833685782918895	45470781.97218878
0.8338942043646247	45476489.00861351
0.834102677915716	45482197.47179736
0.834311203585195	45487907.362096995
0.8345197813860912	45530989.76495972
0.8347284113314379	45699877.50563383
0.8349370934342709	45868807.468243
0.8351458277076294	46037779.663342625
0.8353546141645565	46206794.10149131
0.8355634528180977	46375850.79324945
0.8357723436813022	46239086.67556258
0.8359812867672226	46098511.73722994
0.8361902820889144	45957901.65516278
0.8363993296594368	45817256.42057507
0.8366084294918518	45676576.02467866
0.8368175815992247	45593616.09668008
0.8370267859946247	45530527.063642465
0.8372360426911234	45467422.2583466
0.8374453517017962	45404301.676849425
0.8376547130397217	45341165.315206885
0.8378641267179816	45374772.733000495
0.8380735927496613	45504399.19239871
0.8382831111478488	45634058.058411695
0.8384926819256358	45763749.33914112
0.8387023050961173	45893473.042690836
0.8389119806723914	45982749.075993694
0.8391217086675596	45958123.196316294
0.8393314890947265	45933491.160169
0.8395413219670003	45908852.96601266
0.8397512072974922	45884208.612307765
0.8399611450993165	45860446.72939454
0.8401711353855914	45880808.04759525
0.8403811781694378	45901174.456125505
0.8405912734639802	45921545.9562579
0.8408014212823464	45941922.54926534
0.8410116216376671	45962304.23642103
0.8412218745430766	45964186.84493931
0.8414321800117124	45960685.92350993
0.8416425380567154	45957184.1268502
0.8418529486912297	45953681.45474131
0.8420634119284025	45950177.906964384
0.8422739277813847	46104166.59257119
0.8424844962633302	46396951.315937236
0.842695117387396	46689809.23548376
0.8429057911667428	46982740.369510174
0.8431165176145345	47275744.736320235
0.8433272967439382	47463616.176507875
0.8435381285681244	47394907.54342185
0.8437490131002665	47326181.733177565
0.8439599503535415	47257438.74148077
0.84417094034113	47188678.56403599
0.8443819830762154	47115073.686141044
0.8445930785719846	46944199.7972099
0.8448042268416277	46773283.189806625
0.8450154278983382	46602323.85325152
0.8452266817553128	46431321.776862286
0.8454379884257517	46260276.949953936
0.8456493479228583	46317825.39426602
0.845860760259839	46430446.53014776
0.846072225449904	46543095.82131346
0.8462837435062666	46655773.27480199
0.8464953144421433	46768478.89765395
0.8467069382707537	46864608.553073816
0.8469186150053215	46947819.820729055
0.847130344659073	47031051.891201235
0.8473421272452377	47114304.769690946
0.8475539627770492	47197578.46140037
0.8477658512677435	47261150.32473651
0.8479777927305605	47282859.63768626
0.8481897871787432	47304574.377964236
0.848401834625538	47326294.546927296
0.8486139350841944	47348020.145932585
0.8488260885679657	47358138.270480715
0.8490382950901076	47226701.72476483
0.8492505546638802	47095232.31991245
0.8494628673025462	46963730.0477089
0.8496752330193721	46832194.89993711
0.8498876518276269	46700626.86837855
0.8501001237405839	46773589.7266772
0.8503126487715191	46887405.34927138
0.850525226933712	47001249.42577113
0.8507378582404455	47115121.96329002
0.8509505427050057	47229022.96894334
0.8511632803406821	47469477.6231785
0.8513760711607672	47796638.96592602
0.8515889151785576	48123882.099009745
0.8518018124073523	48451207.04287647
0.8520147628604541	48778613.81797896
0.8522277665511693	49057799.69924283
0.8524408234928071	49247725.28780551
0.8526539336986805	49437698.357765384
0.8528670971821053	49627718.920992754
0.8530803139564007	49817786.98936071
0.8532935840348901	49988708.643977955
0.8535069074308987	49997570.47555493
0.8537202841577566	50006434.522589795
0.8539337142287962	50015300.78563643
0.8541471976573534	50024169.26524882
0.8543607344567677	50033039.96198112
0.8545743246403821	50021078.832784235
0.8547879682215422	50005806.029059626
0.8550016652135977	49990529.40713409
0.8552154156299011	49975248.966053076
0.8554292194838088	49959964.704861775
0.8556430767886797	49902141.116415516
0.855856987557877	49818476.636142924
0.8560709518047664	49734791.23975031
0.8562849695427177	49651084.922008574
0.8564990407851035	49567357.67768738
0.8567131655452999	49523705.59709194
0.8569273438366862	49545741.39413473
0.8571415756726455	49567782.70012678
0.8573558610665638	49589829.51644534
0.8575702000318304	49611881.84446795
0.8577845925818384	49696837.351351514
0.857999038729984	50174696.08926367
0.8582135384896665	50652674.29186019
0.858428091874289	51130771.98900739
0.8586426988972576	51608989.210578755
0.8588573595719821	52087325.986455664
0.8590720739118751	51941086.04474581
0.8592868419303532	51721155.98248452
0.8595016636408359	51501170.93770766
0.8597165390567462	51281130.89666968
0.8599314681915105	51061035.845621385
0.8601464510585584	50893480.34389984
0.860361487671323	50753799.78555392
0.8605765780432408	50614084.30706845
0.8607917221877518	50474333.89971325
0.8610069201182988	50334548.55475625
0.8612221718483286	50053588.58953247
0.8614374773912907	49569086.44389966
0.8616528367606385	49084463.172730565
0.8618682499698288	48599718.74574337
0.8620837170323213	48114853.13264952
0.8622992379615795	47711900.391575776
0.8625148127710699	47714802.18714076
0.8627304414742627	47717704.70815464
0.8629461240846313	47720607.95479878
0.8631618606156526	47723511.92725457
0.8633776510808066	47726416.62570348
0.8635934954935769	48218038.348389044
0.8638093938674504	48749843.93536721
0.8640253462159173	49281782.47374211
0.8642413525524714	49813853.9967516
0.8644574128906095	50346058.53764173
0.8646735272438323	50304742.184044264
0.8648896956256433	49996650.521447584
0.8651059180495498	49688481.83593523
0.8653221945290621	49380236.108251795
0.8655385250776946	49071913.31913601
0.8657549097089641	48969461.93002242
0.8659713484363913	49130644.25605775
0.8661878412735006	49291866.877674654
0.866404388233819	49453129.804946944
0.8666209893308775	49614433.047950976
0.8668376445782103	49747193.20316639
0.8670543539893549	49763323.12742395
0.8672711175778525	49779457.084162585
0.8674879353572469	49795595.07439039
0.8677048073410862	49811737.09911576
0.8679217335429217	49827883.15934732
0.8681387139763074	49779658.92091432
0.8683557486548015	49728224.67345807
0.8685728375919655	49676777.56743989
0.8687899808013633	49625317.59964532
0.8690071782965637	49573844.76685873
0.869224430091138	49537861.74347495
0.8694417361986609	49508177.744257644
0.8696590966327107	49478486.32404053
0.869876511406869	49448787.48096837
0.8700939805347206	49419081.21318545
0.8703115040298544	49407041.87775273
0.870529081905862	49415206.43773007
0.8707467141763385	49423373.038847394
0.8709644008548827	49431541.681614995
0.8711821419550964	49439712.36654329
0.8713999374905854	49468723.93788105
0.871617787474958	49569664.84211979
0.8718356919218269	49670630.981584676
0.8720536508448075	49771622.36258444
0.8722716642575187	49872638.99142939
0.8724897321735832	49973680.8744316
0.8727078546066265	50051958.90290444
0.8729260315702784	50129909.80368821
0.873144263078171	50207880.19219709
0.8733625491439405	50285870.07330311
0.8735808897812266	50363879.451879434
0.8737992850036719	50388107.14632644
0.874017734824923	50393285.402088605
0.8742362392586293	50398464.952414714
0.874454798318444	50403645.7976284
0.8746734120180236	50408827.9380534
0.8748920803710283	50425571.4023368
0.875110803391121	50453935.77943389
0.8753295810919689	50482307.24762527
0.875548413487242	50510685.8086837
0.8757673005906139	50539071.464382395
0.8759862424157616	50597433.192571685
0.8762052389763657	50742526.15778822
0.8764242902861098	50887655.39624596
0.8766433963586814	51032820.91701335
0.8768625572077712	51178022.72916097
0.8770817728470732	51323151.83440725
0.8773010432902849	51459806.20275156
0.8775203685511077	51596494.73468816
0.8777397486432454	51733217.43875757
0.8779591835804065	51869974.32350317
0.8781786733763015	52006765.39746976
0.8783982180446457	51920265.01365316
0.878617817599157	51767307.79649026
0.8788374720535569	51614312.340023145
0.8790571814215703	51461278.634691946
0.8792769457169257	51308206.67093442
0.879496764953355	51232349.59279999
0.8797166391445934	51225929.20957343
0.8799365683043796	51219507.22125108
0.8801565524464557	51213083.62743163
0.8803765915845676	51206658.42771373
0.8805966857324639	51258539.429289944
0.880816834903897	51456885.13382794
0.881037039112623	51655280.42479215
0.8812572983724012	51853725.314579085
0.8814776126969944	52052219.81558855
0.8816979821001687	52242080.603065886
0.8819184065956938	52227581.63748651
0.8821388861973429	52213079.04716572
0.8823594209188923	52198572.831197366
0.882580010774122	52184062.98867503
0.8828006557768155	52169549.518692054
0.8830213559407598	52304678.51621359
0.8832421112797452	52477478.80811148
0.8834629218075651	52650322.30008225
0.8836837875380171	52823209.00292607
0.8839047084849018	52996138.92744561
0.884125684662023	52993421.09973991
0.8843467160831886	52849908.70665606
0.8845678027622095	52706360.43547395
0.8847889447129001	52562776.27722401
0.8850101419490785	52419156.22293454
0.8852313944845657	52434453.10716091
0.885452702333187	52797682.09442177
0.8856740655087704	53161001.88892939
0.8858954840251476	53524412.513385534
0.8861169578961539	53887913.99049763
0.886338487135628	54208509.69322011
0.886560071757412	53957011.634367295
0.8867817117753515	53705450.70099978
0.8870034072032955	53453826.877398804
0.8872251580550963	53202140.14784223
0.8874469643446101	52950390.49660311
0.8876688260856963	52970984.292988256
0.8878907432922178	53047961.230297595
0.8881127159780409	53124957.41184121
0.8883347441570356	53201972.84243031
0.8885568278430749	53279007.52687697
0.8887789670500358	53316180.377441354
0.8890011617917983	53325071.92524232
0.8892234120822464	53333965.695930235
0.8894457179352669	53342861.690060824
0.8896680793647509	53351759.908189945
0.8898904963845921	53384188.786488
0.8901129690086883	53461518.64649449
0.8903354972509405	53538867.83896597
0.8905580811252535	53616236.36873562
0.8907807206455347	53693624.24063761
0.8910034158256963	53765714.917271495
0.8912261666796527	53790309.87071071
0.8914489732213227	53814910.97288829
0.8916718354646282	53839518.22534144
0.8918947534234944	53864131.62960768
0.8921177271118502	53888751.18722497
0.8923407565436284	53971829.28121889
0.8925638417327644	54064463.31755187
0.8927869826931977	54157120.51239398
0.8930101794388711	54249800.87153479
0.8932334319837308	54342504.40076537
0.8934567403417267	54455469.72896846
0.8936801045268123	54581039.22036397
0.8939035245529441	54706640.104132235
0.8941270004340824	54832272.3881215
0.894350532184191	54957936.08018173
0.8945741198172371	55048392.87474574
0.8947977633471915	55080433.744059764
0.8950214627880284	55112482.623591125
0.8952452181537254	55144539.51534234
0.8954690294582639	55176604.42131652
0.8956928967156286	55204012.92807785
0.8959168199398075	55201157.892361596
0.8961407991447926	55198302.14288642
0.8963648343445789	55195445.67947388
0.896588925553165	55192588.50194548
0.8968130727845534	55189730.610122696
0.8970372760527496	55359597.71557593
0.8972615353717629	55551118.75272202
0.8974858507556059	55742687.67012741
0.8977102222182949	55934304.4797621
0.8979346497738496	56125969.1935993
0.8981591334362931	56266323.16279497
0.8983836732196523	56378625.376504935
0.8986082691379572	56490955.66576824
0.8988329212052417	56603314.03760388
0.8990576294355432	56715700.499032564
0.8992823938429022	56709193.254418954
0.8995072144413631	56525862.77508836
0.8997320912449734	56342486.463138014
0.8999570242677847	56159064.30710971
0.9001820135238516	55975596.2955424
0.9004070590272328	55830535.30913441
0.9006321607919896	55887021.23690684
0.9008573188321878	55943521.28616128
0.9010825331618959	56000035.460428
0.9013078037951865	56056563.763238296
0.9015331307461353	56113106.19812426
0.9017585140288219	56195201.682200834
0.9019839536573292	56279517.422972016
0.9022094496457435	56363854.24267833
0.9024350020081551	56448212.14658967
0.9026606107586572	56532591.139976956
0.902886275911347	56643991.05479097
0.9031119974803249	56768434.61540449
0.9033377754796951	56892909.28690815
0.903563609923565	57017415.07707963
0.903789500826046	57141951.993698746
0.9040154482012526	57241507.701650634
0.904241452063303	57308686.99225262
0.9044675124263188	57375883.07767724
0.9046936293044254	57443095.96212321
0.9049198027117517	57510325.64979032
0.9051460326624297	57557945.99507734
0.9053723191705955	57522005.53384555
0.9055986622503881	57486056.087498486
0.9058250619159507	57450097.65378984
0.9060515181814298	57414130.230472736
0.9062780310609752	57378153.81529983
0.9065046005687405	57444501.38165247
0.906731226718883	57516574.389057845
0.9069579095255627	57588665.414714985
0.907184649002944	57660774.463128544
0.907411445165195	57732901.53880428
0.9076382980264862	57688682.80709018
0.907865207600993	57596127.33380651
0.9080921739028933	57503548.72165454
0.9083191969463691	57410946.964849554
0.9085462767456058	57318322.05760532
0.9087734133147922	57431925.61100741
0.9090006066681211	57783780.739323825
0.909227856819788	58135723.83142185
0.9094551637839932	58487754.90929338
0.9096825275749393	58839873.994934276
0.9099099482068329	59081260.78315884
0.9101374256938848	58928850.55367415
0.9103649600503083	58776402.221632145
0.9105925512903209	58623915.77750717
0.9108201994281437	58471391.211771004
0.9110479044780008	58318828.51489358
0.9112756664541204	58389627.76418506
0.911503485370734	58465558.30189228
0.9117313612420768	58541507.82223393
0.9119592940823873	58617476.32995564
0.912187283905908	58693463.829804294
0.9124153307268845	58717948.492092595
0.9126434345595664	58723739.86117853
0.9128715954182063	58729532.67810673
0.9130998133170609	58735326.943239175
0.9133280882703902	58741122.65693789
0.913556420292458	58777368.329895474
0.9137848093975312	58845025.0625594
0.9140132555998806	58912698.709406495
0.9142417589137806	58980389.274665296
0.9144703193535092	59048096.76256546
0.9146989369333476	59114150.50706772
0.9149276116675811	59175181.971369624
