#wavelength	surface flux
0.7	312852.6342676842
0.7001166666666666	313401.9820574377
0.7002333527777778	313829.7574872459
0.700350058336574	314257.60421295883
0.7004667833462966	314685.52224645886
0.7005835278101878	315113.5115996323
0.7007002917314895	315541.5722843639
0.7008170751134447	315969.7043125429
0.7009338779592968	316397.90769605973
0.7010507002722901	316708.73407285317
0.7011675420556689	316876.68539124896
0.701284403312678	317044.66470153094
0.7014012840465635	317212.6720083648
0.7015181842605713	317380.7073164165
0.701635103957948	317548.7706303527
0.701752043141941	317716.86195484124
0.701869001815798	317884.98129455076
0.7019859799827672	318173.32193595544
0.7021029776460976	318545.3583904588
0.7022199948090387	318917.45685103844
0.7023370314748403	319289.61732802796
0.7024540876467528	319661.83983176365
0.702571163328027	320034.12437258265
0.7026882585219152	320406.4709608261
0.7028053732316688	320778.87960683374
0.7029225074605406	321479.77080019267
0.7030396612117841	322307.5970175354
0.7031568344886527	323135.5612059145
0.7032740272944008	323963.6633883244
0.7033912396322832	324791.9035877652
0.7035084715055552	325620.28182723833
0.7036257229174727	326448.79812975175
0.7037429938712924	327277.45251831634
0.7038602843702709	327989.8951919225
0.7039775944176659	328682.72282439074
0.7040949240167356	329375.6659281313
0.7042122731707383	330068.72452238883
0.7043296418829335	330761.89862641244
0.7044470301565806	331455.1882594533
0.70456443799494	332148.59344076575
0.7046818654012724	332842.11418960884
0.7047993123788394	333388.29341650713
0.7049167789309024	333934.39445969946
0.7050342650607243	334480.58651973313
0.7051517707715678	335026.8696117766
0.7052692960666963	335573.2437510018
0.705386840949374	336119.70895258326
0.7055044054228656	336666.2652316992
0.7056219894904361	337177.8867556608
0.7057395931553511	337467.0080153499
0.705857216420877	337756.1774619158
0.7059748592902804	338045.3951033894
0.7060925217668288	338334.66094780347
0.70621020385379	338623.97500319156
0.7063279055544321	338913.3372775885
0.7064456268720246	339202.74777903163
0.7065633678098366	339530.92564631876
0.7066811283711383	339965.7914060429
0.7067989085592001	340400.7296433936
0.7069167083772933	340835.7403704503
0.7070345278286895	341270.8235992951
0.707152366916661	341705.9793420115
0.7072702256444803	342141.2076106845
0.7073881040154211	342576.50841740286
0.7075060020327569	343092.47401907603
0.7076239196997625	343725.8959183833
0.7077418570197124	344359.4233880065
0.7078598139958823	344993.05644554127
0.7079777906315483	345626.79510858626
0.7080957869299869	346260.6393947413
0.7082138028944751	346894.5893216103
0.7083318385282908	347528.6449068009
0.7084498938347124	347871.15774958977
0.708567968817018	347966.46218949516
0.7086860634784875	348061.78251347394
0.7088041778224007	348157.1187241735
0.7089223118520377	348252.4708242414
0.7090404655706796	348347.8388163259
0.709158638981608	348443.22270307585
0.709276832088105	348538.6224871403
0.7093950448934531	349035.1478335372
0.7095132774009353	349723.0494593206
0.7096315296138355	350411.06573537533
0.7097498015354378	351099.1966808092
0.7098680931690269	351787.4423147333
0.7099864045178884	352475.80265626387
0.7101047355853081	353164.277724518
0.7102230863745722	353852.86753861624
0.7103414568889679	354493.8364938102
0.7104598471317828	355124.06561876833
0.7105782571063047	355754.39978191355
0.7106966868158224	356384.8390007526
0.710815136263625	357015.3832927947
0.7109336054530023	357646.0326755525
0.7110520943872445	358276.7871665405
0.7111706030696424	358907.64678327745
0.7112891315034873	359326.62492880336
0.7114076796920712	359735.55841213
0.7115262476386865	360144.5600510372
0.7116448353466263	360553.62985688384
0.711763442819184	360962.7678410318
0.711882070059654	361371.97401484405
0.7120007170713306	361781.248389685
0.7121193838575091	362192.8933680467
0.7122380704214853	362628.6203039905
0.7123567767665555	363064.4198610898
0.7124755028960166	363500.2920514489
0.7125942488131658	363936.2368871727
0.7127130145213015	364372.2543803703
0.7128318000237216	364808.34454314876
0.7129506053237256	365244.5073876216
0.7130694304246129	365672.56687575416
0.7131882753296837	366072.1113555488
0.7133071400422386	366471.72242609016
0.7134260245655789	366871.4000984763
0.7135449289030065	367271.144383808
0.7136638530578235	367670.9552931871
0.7137827970333332	368070.8328377183
0.7139017608328388	368470.7770285068
0.7140207444596443	368863.1974523613
0.7141397479170543	369242.1427160081
0.7142587712083737	369621.1511371984
0.7143778143369084	370000.2227264591
0.7144968773059646	370379.35749431816
0.7146159601188489	370758.555451305
0.7147350627788687	371137.8166079514
0.7148541852893318	371517.14097479044
0.7149733276535467	371738.3445662808
0.7150924898748222	371800.07581900904
0.715211671956468	371861.8173602794
0.7153308739017941	371923.5691918067
0.715450095714111	371985.3313153059
0.71556933739673	372047.10373249237
0.7156885989529628	372108.8864450817
0.7158078803861218	372170.67945478985
0.7159271816995193	371650.91729819827
0.7160465028964692	370789.72586952
0.7161658439802853	369928.390908937
0.7162852049542819	369066.9123925274
0.7164045858217744	368205.2902963645
0.716523986586078	367343.52459651936
0.7166434072505089	366481.6152690579
0.716762847818384	365619.56229004165
0.7168823082930204	365429.72578980116
0.7170017886777359	365437.6631462372
0.7171212889758488	365445.601825566
0.7172408091906781	365453.54182800796
0.7173603493255433	365461.48315378366
0.7174799093837642	365469.42580311367
0.7175994893686615	365477.3697762186
0.7177190892835562	365485.315073319
0.7178387091317702	367414.2758800875
0.7179583489166254	369536.3951020599
0.7180780086414448	371658.8680105708
0.7181976883095517	373781.6946645664
0.7183173879242699	375904.8751230046
0.718437107488924	378028.409444853
0.7185568470068389	380152.2976890892
0.7186766064813399	382202.1774172305
0.7187963859157535	382393.1724742216
0.7189161853134061	382584.19936372223
0.719036004677625	382775.2580910378
0.7191558440117378	382966.3486614744
0.7192757033190732	383157.47108033975
0.7193955826029597	383348.6253529413
0.7195154818667269	383539.8114845884
0.7196354011137046	383675.934033367
0.7197553403472235	383558.4099818649
0.7198752995706147	383440.86634302087
0.7199952787872098	383323.30311357026
0.720115278000341	383205.72029024817
0.7202352972133411	383088.1178697888
0.7203553364295432	382970.49584892613
0.7204753956522815	382852.8542243932
0.7205954748848902	383029.3783353698
0.7207155741307044	383854.5005966537
0.7208356933930594	384679.760378313
0.7209558326752915	385505.1577032695
0.7210759919807375	386330.69259444793
0.7211961713127342	387156.3650747738
0.7213163706746197	387982.175167181
0.7214365900697322	388808.1228946028
0.7215568295014103	389175.627496282
0.721677088972994	388996.0292198999
0.7217973684878227	388816.40101047204
0.7219176680492374	388636.74286300904
0.7220379876605789	388457.05477252154
0.722158327325189	388277.3367340189
0.7222786870464099	388097.58874251
0.7223990668275843	387917.8107930024
0.7225194666720555	387955.2522015908
0.7226398865831676	388146.6698830819
0.7227603265642646	388338.1194675196
0.722880786618692	388529.60096022167
0.7230012667497951	388721.11436650576
0.7231217669609201	388912.65969169093
0.7232422872554135	389104.2369410968
0.7233628276366229	389295.84612004453
0.7234833881078956	389995.8895185059
0.7236039686725803	390889.0703181949
0.7237245693340255	391782.39998134924
0.7238451900955812	392675.8785327824
0.7239658309605971	393569.5059973063
0.7240864919324239	394463.2823997423
0.7242071730144127	395357.207764912
0.724327874209915	396251.2821176407
0.7244485955222832	395074.05044186197
0.7245693369548704	393554.1249704648
0.7246900985110294	392033.946178158
0.7248108801941148	390513.51402271504
0.7249316820074803	388992.828461918
0.7250525039544815	387471.88945352496
0.7251733460384739	385950.696955297
0.7252942082628137	384433.9797856093
0.7254150906308574	385657.06145113206
0.7255359931459625	386880.3469635992
0.7256569158114868	388103.83635698544
0.7257778586307888	389327.5296652712
0.7258988216072273	390551.4269224414
0.7260198047441617	391775.5281624863
0.7261408080449525	392999.8334194068
0.72626183151296	394120.268738199
0.7263828751515454	394549.2594262432
0.7265039389640706	394978.32161273534
0.726625022953898	395407.4553095921
0.7267461271243904	395836.6605287319
0.7268672514789111	396265.9372820746
0.7269883960208241	396695.28558154247
0.7271095607534942	397124.7054390605
0.7272307456802866	397515.03799164714
0.7273519508045666	397799.6580266329
0.7274731761297006	398084.325498291
0.7275944216590555	398369.0404145277
0.7277156873959987	398653.8027832506
0.7278369733438982	398938.61261236866
0.727958279506122	399223.46990979085
0.7280796058860397	399508.3746834296
0.7282009524870207	399390.47975175484
0.7283223193124353	398676.709316729
0.7284437063656539	397962.81991996535
0.7285651136500483	397248.8115416345
0.7286865411689898	396534.6841619087
0.7288079889258514	395820.4377609512
0.7289294569240056	395106.0723189285
0.7290509451668262	394391.587815998
0.7291724536576875	393934.2553030277
0.7292939823999636	393690.02334470314
0.7294155313970303	393445.75068105164
0.7295371006522632	393201.43730528967
0.7296586901690385	392957.0832106319
0.7297802999507332	392712.6883902918
0.7299019300007252	392468.252837481
0.7300235803223919	392223.7765454121
0.7301452509191123	392619.2685085375
0.7302669417942654	393310.2349892352
0.7303886529512311	394001.31663101324
0.7305103843933897	394692.51345306507
0.7306321361241218	395383.82547458675
0.7307539081468093	396075.25271477987
0.7308757004648336	396766.79519284493
0.7309975130815778	397458.45292799047
0.7311193460004248	398558.0256247009
0.7312411992247582	399750.10222628806
0.7313630727579622	400942.3775073086
0.7314849666034219	402134.8515008772
0.7316068807645224	403327.5242401106
0.7317288152446498	404520.39575813443
0.7318507700471907	405713.46608807857
0.7319727451755319	406906.73526307725
0.732094740633061	406673.5708838871
0.7322167564231665	406376.140200046
0.7323387925492371	406078.6599444243
0.7324608490146619	405781.13010876003
0.732582925822831	405483.5506847897
0.7327050229771347	405185.92166424915
0.7328271404809642	404888.2430388715
0.7329492783377112	404570.2378092988
0.7330714365507675	404052.83529719536
0.7331936151235259	403535.3465513401
0.7333158140593796	403017.77155736106
0.7334380333617229	402500.1103008822
0.7335602730339499	401982.3627675271
0.7336825330794556	401464.52894291625
0.7338048135016354	400946.60881266906
0.7339271143038857	400765.23678238975
0.734049435489603	401711.7906620525
0.7341717770621846	402658.5023006954
0.7342941390250283	403605.37172461086
0.7344165213815324	404552.39896009665
0.734538924135096	405499.5840334564
0.7346613472891185	406446.9269709938
0.734783790847	407394.4277990211
0.7349062548121412	407700.35350165144
0.7350287391879431	406872.04083095473
0.7351512439778078	406043.59010814456
0.7352737691851374	405215.0013102149
0.735396314813335	404386.27441415156
0.7355188808658037	403557.40939694026
0.7356414673459482	402728.4062355577
0.7357640742571725	401899.26490698213
0.7358867016028818	401444.86510248063
0.7360093493864824	401360.61708932696
0.7361320176113801	401276.35503483785
0.736254706280982	401192.078936673
0.7363774153986956	401107.7887924917
0.7365001449679286	401023.4845999532
0.7366228949920899	400939.1663567159
0.7367456654745885	400854.83406043804
0.7368684564188344	400867.09324407973
0.7369912678282374	400933.9538835626
0.7371140997062088	401000.8256664854
0.7372369520561599	401067.70859470544
0.7373598248815024	401134.60267008
0.7374827181856494	401201.5078944673
0.7376056319720137	401268.4242697253
0.7377285662440091	401335.3517977125
0.7378515210050496	401205.97844547057
0.7379744962585505	401017.5192118297
0.738097492007927	400829.0285683166
0.7382205082565949	400640.50650969637
0.738343545007971	400451.9530307331
0.7384666022654723	400263.3681261898
0.7385896800325165	400074.75179082935
0.7387127783125219	399886.10401941277
0.7388358971089073	399774.54997628543
0.7389590364250921	399670.71318675665
0.7390821962644963	399566.85909109615
0.7392053766305403	399462.9876864199
0.7393285775266454	399359.09896984283
0.7394517989562333	399255.19293847954
0.7395750409227259	399151.2695894445
0.7396983034295463	399029.4066094309
0.739821586480118	398508.8281856676
0.7399448900778645	397988.1629988346
0.7400682142262109	397467.4110344689
0.740191558928582	396946.5722781097
0.7403149241884034	396425.64671529154
0.7404383100091014	395904.63433154614
0.7405617163941028	395383.53511240374
0.7406851433468352	394760.69621441327
0.7408085908707264	393672.7162639465
0.7409320589692048	392584.5549834885
0.7410555476456997	391496.2123428163
0.7411790569036406	390407.68831170467
0.7413025867464579	389318.98285992094
0.7414261371775823	388230.0959572283
0.7415497082004452	387141.027573386
0.7416732998184786	386070.27307082026
0.741796912035115	385039.01636792714
0.7419205448537874	384007.5877889171
0.7420441982779297	382975.98730514396
0.742167872310976	381944.21488795587
0.7422915669563612	380912.2705086983
0.7424152822175206	379880.15413871116
0.7425390180978901	378847.8657493296
0.7426627746009065	378121.96620616014
0.7427865517300065	377769.6653621496
0.7429103494886282	377417.3058013313
0.7430341678802096	377064.8875139198
0.7431580069081896	376712.4104901271
0.7432818665760077	376359.8747201633
0.7434057468871037	376007.2801942381
0.7435296478449182	375654.6269025588
0.7436535694528923	375016.8667007914
0.7437775117144678	374183.87601425545
0.7439014746330868	373350.74649593973
0.7440254582121922	372517.4781227035
0.7441494624552276	371684.0708714048
0.7442734873656368	370850.52471889765
0.7443975329468645	370016.8396420311
0.7445215992023557	369183.01561765186
0.7446456861355559	368102.13169205404
0.7447697937499119	366930.10850455385
0.7448939220488703	365757.88997985603
0.7450180710358784	364585.47608540516
0.7451422407143843	363412.8667886384
0.7452664310878367	362240.0620569877
0.7453906421596846	361067.06185788306
0.7455148739333779	359893.8661587448
0.7456391264123667	358558.87175655784
0.7457633996001021	357197.8154019597
0.7458876935000356	355836.53220463335
0.7460120081156189	354475.02212677675
0.7461363434503048	353113.2851305732
0.7462606995075466	351751.32117820234
0.7463850762907978	350389.13023184147
0.7465094738035127	349026.447705219
0.7466338920491467	347594.33366515447
0.746758331031155	346161.98093941517
0.7468827907529935	344729.3894882233
0.7470072712181189	343296.5592717895
0.7471317724299886	341863.4902503194
0.7472562943920602	340430.1823840134
0.7473808371077922	338996.6356330617
0.7475054005806435	337538.7393624237
0.7476299848140736	335932.08829804213
0.7477545898115426	334325.1694584828
0.7478792155765113	332717.98279911646
0.7480038621124406	331110.5282753082
0.7481285294227926	329502.805842413
0.7482532175110298	327894.8154557773
0.7483779263806148	326286.557070746
0.7485026560350116	324627.803890888
0.7486274064776842	322832.8374295458
0.748752177712097	321037.5718071301
0.7488769697417158	319242.0069737735
0.749001782570006	317446.14287961344
0.7491266162004343	315649.97947477154
0.7492514706364677	313853.5167093614
0.7493763458815739	312056.75453348854
0.7495012419392209	310154.2679167881
0.7496261588128773	308099.90324611304
0.7497510965060128	306045.1961813247
0.7498760550220971	303990.14666535973
0.7500010343646007	301934.75464114174
0.7501260345369949	299879.02005158534
0.750251055542751	297822.9428395997
0.7503760973853414	295766.5229480775
0.7505011600682389	293590.3146771035
0.750626243594917	291314.0093242558
0.7507513479688495	289037.32458718616
0.7508764731935109	286760.2604026595
0.7510016192723765	284482.8167074349
0.7511267862089218	282204.9934382632
0.7512519740066232	279926.7905318791
0.7513771826689577	277648.20792500937
0.7515024121994025	275261.0263026082
0.7516276626014359	272822.9889198388
0.751752933878536	270384.54519750987
0.7518782260341824	267945.6950678931
0.7520035390718548	265506.43846325355
0.7521288729950334	263066.7753158479
0.7522542278071992	260626.70555791748
0.7523796035118337	258186.22912169286
0.7525050001124189	255565.53147897805
0.7526304176124378	252905.29142962163
0.7527558560153731	250244.6080069271
0.752881315324709	247583.4811369929
0.7530067955439299	244921.9107459127
0.7531322966765205	242259.8967597709
0.7532578187259665	239597.43910463058
0.7533833616957542	236934.53770654785
0.75350892558937	234106.87481396215
0.7536345104103016	231271.01395739798
0.7537601161620366	228434.6804573592
0.7538857428480638	225597.87423506763
0.7540113904718717	222760.5952117427
0.7541370590369503	219922.84330858118
0.7542627485467898	217084.61844676733
0.7543884590048808	214236.92683162828
0.7545141904147151	211299.07424766323
0.7546399427797842	208360.7320216056
0.7547657161035808	205421.90007184312
0.754891510389598	202482.57831675588
0.7550173256413296	199542.76667470825
0.7551431618622698	196602.46506405433
0.7552690190559135	193661.6734031326
0.7553948972257561	190686.40450590898
0.7555207963752938	187596.5578167432
0.755646716508023	184506.19615313102
0.755772657627441	181415.31942924048
0.7558986197370455	178323.92755922885
0.756024602840335	175232.02045723965
0.7561506069408084	172139.59803740017
0.7562766320419653	169046.66021382128
0.7564026781473054	165893.70396434888
0.75652874526033	162635.51292924906
0.7566548333845401	159376.7788623084
0.7567809425234375	156117.50167302438
0.7569070726805247	152857.68127087737
0.7570332238593047	149597.31756533042
0.7571593960632813	146336.41046582942
0.7572855892959586	143074.9598818117
0.7574118035608413	139895.6741797448
0.7575380388614347	136796.77497948252
0.7576642952012449	133697.359296019
0.7577905725837782	130597.42704327941
0.7579168710125422	127496.97813515883
0.7580431904910444	124396.0124855524
0.7581695310227928	121294.53000834162
0.7582958926112967	118192.53061738075
0.7584222752600652	115128.24770853696
0.7585486789726085	112085.4177621437
0.7586751037524372	109042.08067742489
0.7588015496030628	105998.23636985268
0.7589280165279966	102953.8847549019
0.7590545045307512	99909.0257480153
0.7591810136148396	96863.65926462761
0.7593075437837755	93817.78522015487
0.7594340950410726	90912.77288201275
0.7595606673902461	88048.29279429016
0.7596872608348112	85183.33529321675
0.7598138753782836	82317.90029922964
0.75994051102418	79451.98773274086
0.7600671677760173	76585.5975141599
0.7601938456373134	73718.72956387365
0.7603205446115863	70851.38380226397
0.7604472647023548	68192.18251791131
0.7605740059131385	65553.27507182323
0.7607007682474575	62913.9278078249
0.7608275517088319	60274.14065262175
0.7609543563007835	57633.91353288688
0.7610811820268336	54993.24637530032
0.7612080288905045	52352.13910652589
0.7613348968953197	49722.9716593141
0.7614617860448022	47347.37640738219
0.7615886963424764	44971.38522290505
0.7617156277918667	42594.998039899474
0.7618425803964988	40218.21479236143
0.7619695541598982	37841.03541428277
0.7620965490855914	35463.45983964285
0.7622235651771058	33085.4880024044
0.7623506024379685	30816.60237439933
0.7624776608717082	29027.212513257156
0.7626047404818536	27237.52442047138
0.7627318412719337	25447.538046339883
0.762858963245479	23657.253341144908
0.7629861064060198	21866.67025516557
0.7631132707570876	20075.788738670042
0.7632404563022137	18284.608741923374
0.7633676630449308	16671.19313759755
0.7634948909887717	15436.54547215148
0.7636221401372697	14201.692032096107
0.7637494104939593	12966.632783132894
0.7638767020623748	11731.367690963303
0.7640040148460518	10495.896721276946
0.7641313488485262	9260.21983976235
0.7642587040733344	8024.337012099435
0.7643860805240132	7040.035610000354
0.7645134782041005	6356.028011550446
0.7646408971171346	5671.906411833845
0.764768337266654	4987.670791850875
0.7648957986561985	4303.321132597687
0.7650232812893079	3618.8574150680474
0.7651507851695227	2934.2796202521467
0.7652783103003843	2249.5877291371944
0.7654058566854343	1851.0335109687662
