#wavelength	surface flux
0.7	306959.08439788094
0.7001166666666666	307415.8986840142
0.7002333527777778	307856.9541430739
0.700350058336574	308298.0831113765
0.7004667833462966	308739.2856011733
0.7005835278101878	309180.5616247196
0.7007002917314895	309621.9111942691
0.7008170751134447	310063.33432208013
0.7009338779592968	310504.83102041227
0.7010507002722901	310933.0310288673
0.7011675420556689	311345.031671057
0.701284403312678	311757.10098001966
0.7014012840465635	312169.2389672011
0.7015181842605713	312581.445644047
0.701635103957948	312993.7210220054
0.701752043141941	313406.06511252676
0.701869001815798	313818.47792706377
0.7019859799827672	314235.40302748256
0.7021029776460976	314655.4900762996
0.7022199948090387	315075.64713962533
0.7023370314748403	315495.87422912807
0.7024540876467528	315916.171356479
0.702571163328027	316336.5385333505
0.7026882585219152	316756.97577141924
0.7028053732316688	317177.48308236036
0.7029225074605406	317656.30537771684
0.7030396612117841	318157.6985038065
0.7031568344886527	318659.1751954172
0.7032740272944008	319160.73546647624
0.7033912396322832	319662.37933091406
0.7035084715055552	320164.1068026621
0.7036257229174727	320665.9178956556
0.7037429938712924	321167.81262383173
0.7038602843702709	321667.097149651
0.7039775944176659	322166.0079926338
0.7040949240167356	322665.0019874239
0.7042122731707383	323164.0791478796
0.7043296418829335	323663.23948786233
0.7044470301565806	324162.483021235
0.70456443799494	324661.80976186274
0.7046818654012724	325161.2197236143
0.7047993123788394	325634.4782733223
0.7049167789309024	326107.78559403255
0.7050342650607243	326581.17179929704
0.7051517707715678	327054.63690226217
0.7052692960666963	327528.1809160775
0.705386840949374	328001.80385389505
0.7055044054228656	328475.5057288696
0.7056219894904361	328944.66904631455
0.7057395931553511	329384.56678686774
0.705857216420877	329824.5378437114
0.7059748592902804	330264.58222906425
0.7060925217668288	330704.6999551484
0.70621020385379	331144.8910341869
0.7063279055544321	331585.1554784046
0.7064456268720246	332025.4933000304
0.7065633678098366	332472.43310729996
0.7066811283711383	332937.4272776585
0.7067989085592001	333402.4989470454
0.7069167083772933	333867.648128377
0.7070345278286895	334332.8748345724
0.707152366916661	334798.17907855223
0.7072702256444803	335263.5608732389
0.7073881040154211	335729.0202315586
0.7075060020327569	336206.73849253374
0.7076239196997625	336702.276615379
0.7077418570197124	337197.897327911
0.7078598139958823	337693.60064389504
0.7079777906315483	338189.38657709886
0.7080957869299869	338685.2551412912
0.7082138028944751	339181.20635024394
0.7083318385282908	339677.24021773186
0.7084498938347124	340138.32100567885
0.708567968817018	340569.7746141115
0.7086860634784875	341001.30013147945
0.7088041778224007	341432.89756976726
0.7089223118520377	341864.5669409609
0.7090404655706796	342296.3082570495
0.709158638981608	342728.12153002457
0.709276832088105	343160.00677187863
0.7093950448934531	343646.815330869
0.7095132774009353	344159.8642186198
0.7096315296138355	344672.99861451884
0.7097498015354378	345186.21853281703
0.7098680931690269	345699.52398776775
0.7099864045178884	346212.91499362834
0.7101047355853081	346726.3915646564
0.7102230863745722	347239.95371511264
0.7103414568889679	347747.21796082845
0.7104598471317828	348253.1162693468
0.7105782571063047	348759.0988942496
0.7106966868158224	349265.1658495898
0.710815136263625	349771.3171494225
0.7109336054530023	350277.5528078054
0.7110520943872445	350783.8728387979
0.7111706030696424	351290.27725646255
0.7112891315034873	351775.63859486376
0.7114076796920712	352260.07277390466
0.7115262476386865	352744.58769197535
0.7116448353466263	353229.1833625321
0.711763442819184	353713.8597990342
0.711882070059654	354198.61701494275
0.7120007170713306	354683.4550237204
0.7121193838575091	355169.3301010225
0.7122380704214853	355665.25972737133
0.7123567767665555	356161.27200865734
0.7124755028960166	356657.3669586571
0.7125942488131658	357153.5445911482
0.7127130145213015	357649.80491991277
0.7128318000237216	358146.1479587305
0.7129506053237256	358642.5737213888
0.7130694304246129	359137.8082354045
0.7131882753296837	359628.6709837044
0.7133071400422386	360119.61554246244
0.7134260245655789	360610.64192531334
0.7135449289030065	361101.7501458948
0.7136638530578235	361592.9402178462
0.7137827970333332	362084.2121548102
0.7139017608328388	362575.56597043027
0.7140207444596443	363068.8539549206
0.7141397479170543	363565.5284316378
0.7142587712083737	364062.28568743373
0.7143778143369084	364559.12573610607
0.7144968773059646	365056.0485914533
0.7146159601188489	365553.0542672762
0.7147350627788687	366050.1427773785
0.7148541852893318	366547.31413556554
0.7149733276535467	367021.4984027095
0.7150924898748222	367472.49847566604
0.715211671956468	367923.57371530146
0.7153308739017941	368374.7241341438
0.715450095714111	368825.94974472246
0.71556933739673	369277.25055956957
0.7156885989529628	369728.6265912191
0.7158078803861218	370180.07785220793
0.7159271816995193	370545.15348454856
0.7160465028964692	370859.54869536735
0.7161658439802853	371173.996305388
0.7162852049542819	371488.49632334354
0.7164045858217744	371803.048757969
0.716523986586078	372117.65361800004
0.7166434072505089	372432.3109121743
0.716762847818384	372747.02064923104
0.7168823082930204	373184.7010131151
0.7170017886777359	373658.6163277816
0.7171212889758488	374132.6106283335
0.7172408091906781	374606.68392793566
0.7173603493255433	375080.8362397546
0.7174799093837642	375555.06757695857
0.7175994893686615	376029.3779527189
0.7177190892835562	376503.76738020836
0.7178387091317702	377237.08805629885
0.7179583489166254	377996.5152782117
0.7180780086414448	378756.0690713288
0.7181976883095517	379515.74945674464
0.7183173879242699	380275.5564555582
0.718437107488924	381035.49008887174
0.7185568470068389	381795.5503777911
0.7186766064813399	382545.4354583561
0.7187963859157535	383037.8756896247
0.7189161853134061	383530.39799426513
0.719036004677625	384023.00238595647
0.7191558440117378	384515.68887837935
0.7192757033190732	385008.4574852184
0.7193955826029597	385501.308220158
0.7195154818667269	385994.24109688716
0.7196354011137046	386477.24053776154
0.7197553403472235	386914.20690574736
0.7198752995706147	387351.24610146094
0.7199952787872098	387788.3581370408
0.720115278000341	388225.54302462656
0.7202352972133411	388662.8007763603
0.7203553364295432	389100.1314043854
0.7204753956522815	389537.5349208491
0.7205954748848902	390026.47851667495
0.7207155741307044	390628.9694966712
0.7208356933930594	391231.5608918298
0.7209558326752915	391834.25271888764
0.7210759919807375	392437.0449945842
0.7211961713127342	393039.93773565924
0.7213163706746197	393642.93095885875
0.7214365900697322	394246.02468092815
0.7215568295014103	394780.0379636365
0.721677088972994	395231.5957148387
0.7217973684878227	395683.2287256653
0.7219176680492374	396134.9370086609
0.7220379876605789	396586.72057637013
0.722158327325189	397038.57944134076
0.7222786870464099	397490.513616122
0.7223990668275843	397942.52311326587
0.7225194666720555	398446.23576278
0.7226398865831676	398986.62229112966
0.7227603265642646	399527.09888389945
0.722880786618692	400067.6655561026
0.7230012667497951	400608.32232275064
0.7231217669609201	401149.0691988599
0.7232422872554135	401689.90619944804
0.7233628276366229	402230.8333395372
0.7234833881078956	402832.2072912815
0.7236039686725803	403456.5965654597
0.7237245693340255	404081.0899045159
0.7238451900955812	404705.68732579646
0.7239658309605971	405330.3888466465
0.7240864919324239	405955.19448441756
0.7242071730144127	406580.1042564616
0.724327874209915	407205.11818013294
0.7244485955222832	407533.7706084989
0.7245693369548704	407813.4597193671
0.7246900985110294	408093.19544508675
0.7248108801941148	408372.97779342806
0.7249316820074803	408652.8067721598
0.7250525039544815	408932.6823890552
0.7251733460384739	409212.6046518868
0.7252942082628137	409493.2728524984
0.7254150906308574	410179.17516949086
0.7255359931459625	410865.1918035362
0.7256569158114868	411551.3227736874
0.7257778586307888	412237.56809900067
0.7258988216072273	412923.9277985346
0.7260198047441617	413610.4018913511
0.7261408080449525	414296.9903965175
0.72626183151296	414970.20325780625
0.7263828751515454	415553.8790308991
0.7265039389640706	416137.65208328736
0.726625022953898	416721.5224311847
0.7267461271243904	417305.49009080697
0.7268672514789111	417889.5550783722
0.7269883960208241	418473.71741010144
0.7271095607534942	419057.9771022197
0.7272307456802866	419632.13871466066
0.7273519508045666	420178.8556323458
0.7274731761297006	420725.663669517
0.7275944216590555	421272.562841361
0.7277156873959987	421819.55316306715
0.7278369733438982	422366.63464982784
0.727958279506122	422913.80731683486
0.7280796058860397	423461.07117928704
0.7282009524870207	423953.895881379
0.7283223193124353	424366.14622971264
0.7284437063656539	424778.4652864368
0.7285651136500483	425190.8530630044
0.7286865411689898	425603.3095708672
0.7288079889258514	426015.83482148236
0.7289294569240056	426428.428826305
0.7290509451668262	426841.0915967956
0.7291724536576875	427295.12149051315
0.7292939823999636	427783.44718129415
0.7294155313970303	428271.8542596912
0.7295371006522632	428760.34273926786
0.7296586901690385	429248.9126335907
0.7297802999507332	429737.5639562291
0.7299019300007252	430226.29672075587
0.7300235803223919	430715.110940742
0.7301452509191123	431294.0931191413
0.7302669417942654	431914.7529658598
0.7303886529512311	432535.5162558862
0.7305103843933897	433156.38300646114
0.7306321361241218	433777.35323482734
0.7307539081468093	434398.4269582327
0.7308757004648336	435019.604193924
0.7309975130815778	435640.8849591553
0.7311193460004248	436332.5708992756
0.7312411992247582	437040.2875115125
0.7313630727579622	437748.1220765181
0.7314849666034219	438456.0746139518
0.7316068807645224	439164.1451434746
0.7317288152446498	439872.33368475275
0.7318507700471907	440580.64025745477
0.7319727451755319	441289.06488125195
0.732094740633061	441793.53600458935
0.7322167564231665	442288.90383968165
0.7323387925492371	442784.3542360798
0.7324608490146619	443279.8872075439
0.732582925822831	443775.5027678367
0.7327050229771347	444271.2009307223
0.7328271404809642	444766.9817099688
0.7329492783377112	445260.5440935279
0.7330714365507675	445731.56721850514
0.7331936151235259	446202.6688473364
0.7333158140593796	446673.84899310523
0.7334380333617229	447145.1076688991
0.7335602730339499	447616.44488780585
0.7336825330794556	448087.8606629158
0.7338048135016354	448559.3550073207
0.7339271143038857	449084.61868881277
0.734049435489603	449789.87075846037
0.7341717770621846	450495.2403701197
0.7342941390250283	451200.7275433806
0.7344165213815324	451906.3322978367
0.734538924135096	452612.05465308635
0.7346613472891185	453317.8946287276
0.734783790847	454023.85224436497
0.7349062548121412	454624.48007365136
0.7350287391879431	455038.8253402991
0.7351512439778078	455453.2396644921
0.7352737691851374	455867.7230577386
0.735396314813335	456282.27553155104
0.7355188808658037	456696.8970974418
0.7356414673459482	457111.58776692767
0.7357640742571725	457526.3475515248
0.7358867016028818	458014.2653468122
0.7360093493864824	458574.4463259241
0.7361320176113801	459134.7206685317
0.736254706280982	459695.08839019644
0.7363774153986956	460255.54950648214
0.7365001449679286	460816.10403295275
0.7366228949920899	461376.75198517827
0.7367456654745885	461937.4933787291
0.7368684564188344	462516.30825079733
0.7369912678282374	463105.3815213095
0.7371140997062088	463694.5529707003
0.7372369520561599	464283.8226153333
0.7373598248815024	464873.1904715724
0.7374827181856494	465462.6565557885
0.7376056319720137	466052.220884352
0.7377285662440091	466641.88347363705
0.7378515210050496	467222.1457723291
0.7379744962585505	467799.6469513479
0.738097492007927	468377.244380563
0.7382205082565949	468954.93807601597
0.738343545007971	469532.7280537514
0.7384666022654723	470110.614329817
0.7385896800325165	470688.5969202611
0.7387127783125219	471266.67584113765
0.7388358971089073	471846.89278300037
0.7389590364250921	472427.41121270676
0.7390821962644963	473008.02639548515
0.7392053766305403	473588.7383474598
0.7393285775266454	474169.54708476027
0.7394517989562333	474750.4526235175
0.7395750409227259	475331.45497986354
0.7396983034295463	475909.8182832709
0.739821586480118	476427.41614561825
0.7399448900778645	476945.10027427494
0.7400682142262109	477462.87068362127
0.740191558928582	477980.72738803533
0.7403149241884034	478498.67040189967
0.7404383100091014	479016.69973959983
0.7405617163941028	479534.8154155226
0.7406851433468352	480034.5910058194
0.7408085908707264	480450.15336849436
0.7409320589692048	480865.7849915629
0.7410555476456997	481281.4858865689
0.7411790569036406	481697.2560650572
0.7413025867464579	482113.09553857526
0.7414261371775823	482529.0043186724
0.7415497082004452	482944.98241689923
0.7416732998184786	483371.3273716511
0.741796912035115	483819.83360640076
0.7419205448537874	484268.4145921894
0.7420441982779297	484717.0703414757
0.742167872310976	485165.8008667207
0.7422915669563612	485614.60618038644
0.7424152822175206	486063.4862949377
0.7425390180978901	486512.44122284115
0.7426627746009065	487013.44160099584
0.7427865517300065	487577.88139191864
0.7429103494886282	488142.41525614046
0.7430341678802096	488707.0432093392
0.7431580069081896	489271.7652671968
0.7432818665760077	489836.5814453982
0.7434057468871037	490401.4917596288
0.7435296478449182	490966.4962255781
0.7436535694528923	491482.5611113282
0.7437775117144678	491965.1469036364
0.7439014746330868	492447.8131269093
0.7440254582121922	492930.55979455315
0.7441494624552276	493413.3869199751
0.7442734873656368	493896.2945165846
0.7443975329468645	494379.28259779385
0.7445215992023557	494862.3511770166
0.7446456861355559	495298.35038474004
0.7447697937499119	495717.05349405017
0.7448939220488703	496135.82638721174
0.7450180710358784	496554.6690758551
0.7451422407143843	496973.5815716134
0.7452664310878367	497392.56388612126
0.7453906421596846	497811.6160310145
0.7455148739333779	498230.738017932
0.7456391264123667	498622.5400028207
0.7457633996001021	499010.0278015711
0.7458876935000356	499397.580181622
0.7460120081156189	499785.19715373544
0.7461363434503048	500172.8787286778
0.7462606995075466	500560.6249172163
0.7463850762907978	500948.435730119
0.7465094738035127	501336.2764021997
0.7466338920491467	501715.08451743016
0.746758331031155	502093.95576734695
0.7468827907529935	502472.89016247157
0.7470072712181189	502851.8877133287
0.7471317724299886	503230.9484304444
0.7472562943920602	503610.072324346
0.7473808371077922	503989.2594055636
0.7475054005806435	504360.77086194203
0.7476299848140736	504684.6761241248
0.7477545898115426	505008.635370518
0.7478792155765113	505332.648610119
0.7480038621124406	505656.71585192636
0.7481285294227926	505980.83710494055
0.7482532175110298	506305.012378164
0.7483779263806148	506629.24168059917
0.7485026560350116	506936.37491402245
0.7486274064776842	507197.14321338275
0.748752177712097	507457.95497412584
0.7488769697417158	507718.81020349625
0.749001782570006	507979.7089087379
0.7491266162004343	508240.6510970971
0.7492514706364677	508501.63677582104
0.7493763458815739	508762.6659521584
0.7495012419392209	508990.90493015095
0.7496261588128773	509171.9795868324
0.7497510965060128	509353.08442262345
0.7498760550220971	509534.2194425537
0.7500010343646007	509715.384651654
0.7501260345369949	509896.58005495585
0.750251055542751	510077.8056574914
0.7503760973853414	510259.06146429415
0.7505011600682389	510386.2470420916
0.750626243594917	510468.2811885633
0.7507513479688495	510550.3290073926
0.7508764731935109	510632.39050085837
0.7510016192723765	510714.4656712397
0.7511267862089218	510796.5545208161
0.7512519740066232	510878.6570518674
0.7513771826689577	510960.77326667396
0.7515024121994025	510965.72173603403
0.7516276626014359	510934.6847094231
0.751752933878536	510903.6425099745
0.7518782260341824	510872.59513682587
0.7520035390718548	510841.5425891151
0.7521288729950334	510810.48486597976
0.7522542278071992	510779.42196655716
0.7523796035118337	510748.3538899847
0.7525050001124189	510595.24991717143
0.7526304176124378	510415.58147495956
0.7527558560153731	510235.8830880076
0.752881315324709	510056.15475132427
0.7530067955439299	509876.3964599181
0.7531322966765205	509696.60820879694
0.7532578187259665	509516.7899929672
0.7533833616957542	509336.9418074349
0.75350892558937	508990.48944949766
0.7536345104103016	508636.14655465
0.7537601161620366	508281.7446026533
0.7538857428480638	507927.28358366434
0.7540113904718717	507572.7634878393
0.7541370590369503	507218.18430533167
0.7542627485467898	506863.5460262934
0.7543884590048808	506489.0679451603
0.7545141904147151	505917.2721119431
0.7546399427797842	505345.38097942126
0.7547657161035808	504773.3945317106
0.754891510389598	504201.3127529253
0.7550173256413296	503629.13562717667
0.7551431618622698	503056.8631385739
0.7552690190559135	502484.49527122313
0.7553948972257561	501837.7512425683
0.7555207963752938	500941.56685494096
0.755646716508023	500045.23310324945
0.755772657627441	499148.7499625991
0.7558986197370455	498252.1174080918
0.756024602840335	497355.33541482565
0.7561506069408084	496458.40395789396
0.7562766320419653	495561.3230123853
0.7564026781473054	494500.11610008054
0.75652874526033	493150.17750973796
0.7566548333845401	491800.0139296296
0.7567809425234375	490449.62532225833
0.7569070726805247	489099.01165011997
0.7570332238593047	487748.17287570314
0.7571593960632813	486397.1089614892
0.7572855892959586	485045.81986995623
0.7574118035608413	483487.06455222546
0.7575380388614347	481725.2987971474
0.7576642952012449	479963.2394144428
0.7577905725837782	478200.886355177
0.7579168710125422	476438.2395703981
0.7580431904910444	474675.29901115445
0.7581695310227928	472912.06462848646
0.7582958926112967	471148.5363734192
0.7584222752600652	468931.9234078238
0.7585486789726085	466454.82997875573
0.7586751037524372	463977.32370078185
0.7588015496030628	461499.4045050902
0.7589280165279966	459021.0723228708
0.7590545045307512	456542.3270852877
0.7591810136148396	454063.1687234984
0.7593075437837755	451583.5971686451
0.7594340950410726	448408.1734394508
0.7595606673902461	445030.44821101945
0.7596872608348112	441652.16002838005
0.7598138753782836	438273.3087977139
0.75994051102418	434893.8944251728
0.7600671677760173	431513.91681690566
0.7601938456373134	428133.3758790345
0.7603205446115863	424752.2715176756
0.7604472647023548	420182.35246257053
0.7605740059131385	415493.55972930044
0.7607007682474575	410803.98553057027
0.7608275517088319	406113.6297361507
0.7609543563007835	401422.49221575493
0.7610811820268336	396730.57283910864
0.7612080288905045	392037.87147590856
0.7613348968953197	387246.7354889181
0.7614617860448022	380451.18715919426
0.7615886963424764	373654.5062380729
0.7617156277918667	366856.6925368046
0.7618425803964988	360057.74586658046
0.7619695541598982	353257.6660385798
0.7620965490855914	346456.4528639461
0.7622235651771058	339654.1061537755
0.7623506024379685	332467.19311779266
0.7624776608717082	323598.4553160783
0.7626047404818536	314728.2393913966
0.7627318412719337	305856.54509740934
0.762858963245479	296983.3721877008
0.7629861064060198	288108.7204158399
0.7631132707570876	279232.5895353412
0.7632404563022137	270354.9792997036
0.7633676630449308	260608.46326584744
0.7634948909887717	249013.8604426446
0.7636221401372697	237417.325185653
0.7637494104939593	225818.8571727743
0.7638767020623748	214218.45608191018
0.7640040148460518	202616.12159085105
0.7641313488485262	191011.85337737718
0.7642587040733344	179405.65111918788
0.7643860805240132	166902.24366786543
0.7645134782041005	153328.42584379896
0.7646408971171346	139752.34571675616
0.764768337266654	126174.00290969717
0.7648957986561985	112593.39704549927
0.7650232812893079	99010.52774699249
0.7651507851695227	85425.39463693582
0.7652783103003843	71837.99733802913
