#wavelength	surface flux
0.8	865394.1807712629
0.8002000000000001	875949.589292452
0.8004000500000003	888326.6643986244
0.8006001500125003	900725.207744683
0.8008003000500035	913126.8507265791
0.8010005001250161	925531.5941192264
0.8012007502500472	937939.4386977039
0.8014010504376099	948256.6290664354
0.8016014007002193	957875.0543820957
0.8018018010503944	967495.8843040848
0.8020022515006572	977119.1194335589
0.8022027520635323	986744.7603718069
0.8024033027515483	996813.4758433424
0.8026039035772362	1007316.5460802033
0.8028045545531306	1017822.2420846239
0.8030052556917691	1028330.5645130507
0.803206007005692	1038841.5140220753
0.8034068085074435	1049964.8561627134
0.8036076602095705	1062800.2395805174
0.8038085621246229	1075638.8318441657
0.8040095142651542	1088480.633755888
0.8042105166437206	1101325.6461180837
0.8044115692728815	1114118.258465195
0.8046126721651998	1124522.130341309
0.8048138253332411	1134928.6031853831
0.8050150287895745	1145337.6776476782
0.805216282546772	1155749.354378586
0.8054175866174087	1166163.6340286708
0.8056189410140631	1176845.4496289156
0.8058203457493168	1187604.9287297965
0.8060218008357541	1198367.0977004392
0.8062233062859632	1209131.9572133296
0.8064248621125346	1219899.507941091
0.806626468328063	1232696.736409547
0.8068281249451449	1247238.0998198402
0.8070298319763813	1261783.0985710036
0.8072315894343755	1276331.733571844
0.8074333973317341	1290884.0057314401
0.8076352556810671	1301933.4002505948
0.8078371644949874	1304544.788284719
0.8080391237861113	1307156.8291658524
0.8082411335670578	1309769.5230572044
0.8084431938504498	1312382.870122032
0.8086453046489125	1314899.3771198778
0.8088474659750746	1315601.3607345296
0.8090496778415686	1316303.519845086
0.809251940261029	1317005.8544954194
0.8094542532460944	1317708.364729416
0.8096566168094059	1318411.0505909703
0.8098590309636085	1321956.250604652
0.8100614957213493	1326167.60944823
0.8102640110952797	1330380.021131519
0.8104665770980536	1334593.4859177307
0.8106691937423283	1338808.0040701407
0.8108718610407639	1345041.2619916878
0.8110745790060241	1352818.8969176959
0.8112773476507757	1360598.4762524422
0.8114801669876885	1368380.0004820202
0.8116830370294355	1376163.4700926512
0.8118859577886929	1382562.9940282523
0.8120889292781401	1386085.560509146
0.8122919515104597	1389609.0076316597
0.8124950244983374	1393133.3356159544
0.8126981482544621	1396658.5446822445
0.8129013227915257	1400515.332032233
0.8131045481222237	1408159.6145749546
0.8133078242592543	1415805.8081883127
0.8135111512153191	1423453.913350072
0.813714529003123	1431103.9305381228
0.8139179576353739	1438755.8602304717
0.8141214371247829	1482867.072199558
0.8143249674840641	1534059.0090841716
0.814528548725935	1585263.7439529754
0.8147321808631167	1636481.2800055658
0.8149358639083326	1687711.6204421537
0.8151395978743097	1720071.1948824818
0.8153433827737784	1739680.3246184813
0.8155472186194719	1759294.356636908
0.8157511054241268	1778913.2921633355
0.815955043200483	1798537.132423658
0.8161590319612831	1814527.314978621
0.8163630717192736	1823854.270684992
0.8165671624872033	1833183.5581302792
0.8167713042778252	1842515.1778974368
0.8169754971038948	1851849.130569541
0.8171797409781707	1859295.524224531
0.8173840359134155	1851656.1822910572
0.8175883819223938	1844014.930522109
0.8177927790178745	1836371.7684402142
0.8179972272126291	1828726.695567797
0.8182017265194322	1821079.7114271692
0.8184062769510622	1839104.0953516832
0.8186108785203001	1861083.7231515183
0.8188155312399301	1883068.8458582736
0.8190202351227402	1905059.4648457302
0.819224990181521	1927055.5814879197
0.8194297964290664	1957140.9702090193
0.8196346538781738	1992106.3601439775
0.8198395625416434	2027080.4914264055
0.8200445224322789	2062063.3662416688
0.820249533562887	2097054.986775626
0.8204545959462778	2126690.6062185243
0.8206597095952644	2147699.2158860937
0.8208648745226633	2168713.0777060958
0.8210700907412941	2189732.19299155
0.8212753582639793	2210756.563055804
0.8214806771035456	2223315.9010160845
0.8216860472728215	2183691.0837846794
0.8218914687846397	2144056.3603489646
0.822096941651836	2104411.7282323707
0.822302465887249	2064757.18495777
0.8225080415037209	2025092.7280473297
0.8227136685140968	2052137.2978374644
0.8229193469312254	2086762.623198649
0.8231250767679583	2121396.6048911856
0.8233308580371503	2156039.245079126
0.8235366907516598	2190690.545927139
0.8237425749243477	2229475.6513413433
0.8239485105680789	2270456.8506722576
0.824154497695721	2311448.2953029787
0.824360536320145	2352449.9877948654
0.8245666264542252	2393461.930709873
0.8247727681108388	2430721.2014547223
0.8249789613028664	2462600.569963501
0.8251852060431922	2494487.9083144334
0.825391502344703	2526383.21849994
0.8255978502202894	2558286.5025130217
0.8258042496828445	2587267.9006033265
0.8260107007452654	2602027.464152281
0.8262172034204517	2616790.7175921076
0.8264237577213068	2631557.661845298
0.8266303636607373	2646328.2978345584
0.8268370212516525	2661102.626482809
0.8270437305069654	2649875.7087192447
0.8272504914395923	2636613.8671756303
0.8274573040624523	2623348.710171627
0.8276641683884679	2610080.236878384
0.8278710844305652	2596808.446466802
0.8280780522016729	2607961.8366583157
0.8282850717147234	2630284.2366473163
0.8284921429826521	2652612.217236291
0.8286992660183978	2674945.7798204306
0.8289064408349024	2697284.9257952007
0.8291136674451112	2709104.7529806625
0.8293209458619727	2707656.1591099133
0.8295282760984382	2706207.2030906985
0.829735658167463	2704757.884832477
0.8299430920820048	2703308.204244693
0.8301505778550254	2703538.989502805
0.8303581154994891	2710478.5102770785
0.8305657050283641	2717419.7659315527
0.8307733464546212	2724362.756899935
0.8309810397912352	2731307.4836160713
0.8311887850511829	2738253.9465138726
0.8313965822474458	2797287.2999439193
0.8316044313930077	2858752.959222949
0.8318123325008561	2920233.9849168565
0.8320202855839813	2981730.380867157
0.8322282906553774	3043242.1509164507
0.8324363477280413	3064136.380763593
0.8326444568149735	3068677.1646705754
0.8328526179291771	3073219.083773529
0.8330608310836596	3077762.1383562656
0.8332690962914304	3082306.3287026417
0.8334774135655034	3083385.2835956924
0.833685782918895	3080592.457427843
0.8338942043646247	3077798.9330534535
0.834102677915716	3075004.7102979687
0.834311203585195	3072209.788986797
0.8345197813860912	3083981.471684014
0.8347284113314379	3144791.00059692
0.8349370934342709	3205615.7318920195
0.8351458277076294	3266455.6693698694
0.8353546141645565	3327310.8168321904
0.8355634528180977	3388181.1780813504
0.8357723436813022	3317350.0737984516
0.8359812867672226	3244874.896318616
0.8361902820889144	3172381.600044447
0.8363993296594368	3099870.1804461884
0.8366084294918518	3027340.632993005
0.8368175815992247	3050646.995425728
0.8370267859946247	3106972.3011392946
0.8372360426911234	3163311.688179272
0.8374453517017962	3219665.160066004
0.8376547130397217	3276032.7203207
0.8378641267179816	3308574.733185654
0.8380735927496613	3317469.762253576
0.8382831111478488	3326367.0150787593
0.8384926819256358	3335266.4922171445
0.8387023050961173	3344168.194224822
0.8389119806723914	3353361.2323857998
0.8391217086675596	3363370.2208642643
0.8393314890947265	3373381.711589841
0.8395413219670003	3383395.7051881
0.8397512072974922	3393412.202284766
0.8399611450993165	3404806.5435913987
0.8401711353855914	3484502.6306198617
0.8403811781694378	3564218.6416700603
0.8405912734639802	3643954.581723041
0.8408014212823464	3723710.4557610727
0.8410116216376671	3803486.2687676037
0.8412218745430766	3875845.5345109566
0.8414321800117124	3946059.158091014
0.8416425380567154	4016290.3350769994
0.8418529486912297	4086539.069857249
0.8420634119284025	4156805.366821134
0.8422739277813847	4192263.5913291737
0.8424844962633302	4197047.941043107
0.842695117387396	4201833.486844462
0.8429057911667428	4206620.229032269
0.8431165176145345	4211408.167905624
0.8433272967439382	4216401.163223655
0.8435381285681244	4221892.67654361
0.8437490131002665	4227385.562741894
0.8439599503535415	4232879.822161725
0.84417094034113	4238375.455146413
0.8443819830762154	4245700.342335952
0.8445930785719846	4289849.865583021
0.8448042268416277	4334010.4262108775
0.8450154278983382	4378182.026978885
0.8452266817553128	4422364.67064708
0.8454379884257517	4466558.3599761985
0.8456493479228583	4508455.188987479
0.845860760259839	4549806.720043867
0.846072225449904	4591168.588983019
0.8462837435062666	4632540.798389415
0.8464953144421433	4673923.350848186
0.8467069382707537	4698677.494566185
0.8469186150053215	4710468.4287876515
0.847130344659073	4722262.310742675
0.8473421272452377	4734059.141168177
0.8475539627770492	4745858.920801297
0.8477658512677435	4762269.515215382
0.8479777927305605	4788468.40648417
0.8481897871787432	4814673.847475768
0.848401834625538	4840885.839827629
0.8486139350841944	4867104.385177561
0.8488260885679657	4890018.47240637
0.8490382950901076	4872578.218058075
0.8492505546638802	4855133.603646184
0.8494628673025462	4837684.628080697
0.8496752330193721	4820231.2902712915
0.8498876518276269	4802773.589127459
0.8501001237405839	4620446.21431168
0.8503126487715191	4405163.246423697
0.850525226933712	4189826.457793862
0.8507378582404455	3974435.834966872
0.8509505427050057	3758991.3644840494
0.8511632803406821	3627266.1626776904
0.8513760711607672	3552877.2832143256
0.8515889151785576	3478469.806530979
0.8518018124073523	3404043.727978524
0.8520147628604541	3329599.042906475
0.8522277665511693	3341379.395066965
0.8524408234928071	3512659.895164689
0.8526539336986805	3683983.215387483
0.8528670971821053	3855349.366440344
0.8530803139564007	4026758.3590307664
0.8532935840348901	4205831.242267622
0.8535069074308987	4449312.4573538
0.8537202841577566	4692854.542743953
0.8539337142287962	4936457.513655481
0.8541471976573534	5180121.385309585
0.8543607344567677	5423846.172931647
0.8545743246403821	5532691.253213305
0.8547879682215422	5620133.429070828
0.8550016652135977	5707597.465472304
0.8552154156299011	5795083.367882885
0.8554292194838088	5882591.141769133
0.8556430767886797	5942890.125271865
0.855856987557877	5986670.441524132
0.8560709518047664	6030461.702855433
0.8562849695427177	6074263.912002085
0.8564990407851035	6118077.071701035
0.8567131655452999	6159650.118833999
0.8569273438366862	6197545.11269936
0.8571415756726455	6235449.580313193
0.8573558610665638	6273363.524043944
0.8575702000318304	6311286.946260586
0.8577845925818384	6351188.422153577
0.857999038729984	6403396.3044825075
0.8582135384896665	6455617.238782007
0.858428091874289	6507851.228315085
0.8586426988972576	6560098.276345532
0.8588573595719821	6612358.386138005
0.8590720739118751	6636036.42279883
0.8592868419303532	6656348.926737894
0.8595016636408359	6676666.508802943
0.8597165390567462	6696989.170263501
0.8599314681915105	6717316.912389429
0.8601464510585584	6708834.317685264
0.860361487671323	6685054.579202261
0.8605765780432408	6661268.895784644
0.8607917221877518	6637477.265946154
0.8610069201182988	6613679.68820021
0.8612221718483286	6506381.727777394
0.8614374773912907	6278688.417977331
0.8616528367606385	6050938.18484988
0.8618682499698288	5823131.014164003
0.8620837170323213	5595266.891685491
0.8622992379615795	5406152.740559895
0.8625148127710699	5409031.976348919
0.8627304414742627	5411911.93194689
0.8629461240846313	5414792.607533762
0.8631618606156526	5417674.00328953
0.8633776510808066	5420556.119394237
0.8635934954935769	5614696.397611834
0.8638093938674504	5824562.9293006705
0.8640253462159173	6034481.927622423
0.8642413525524714	6244453.40569375
0.8644574128906095	6454477.376634551
0.8646735272438323	6449756.975452892
0.8648896956256433	6345148.894108427
0.8651059180495498	6240514.66074362
0.8653221945290621	6135854.268820572
0.8655385250776946	6031167.711799397
0.8657549097089641	6028655.096308263
0.8659713484363913	6156980.463697618
0.8661878412735006	6285337.912428879
0.866404388233819	6413727.450522305
0.8666209893308775	6542149.086000197
0.8668376445782103	6647066.385036005
0.8670543539893549	6655945.746152385
0.8672711175778525	6664827.32710905
0.8674879353572469	6673711.128460944
0.8677048073410862	6682597.15076318
0.8679217335429217	6691485.394570996
0.8681387139763074	6740658.061674335
0.8683557486548015	6791844.139073836
0.8685728375919655	6843043.012992748
0.8687899808013633	6894254.686630028
0.8690071782965637	6945479.163185785
0.869224430091138	6969973.649421534
0.8694417361986609	6983592.64921449
0.8696590966327107	6997215.053757393
0.869876511406869	7010840.863901432
0.8700939805347206	7024470.080498
0.8703115040298544	7049934.504424736
0.870529081905862	7088932.4646994835
0.8707467141763385	7127940.174464287
0.8709644008548827	7166957.63615653
0.8711821419550964	7205984.852214172
0.8713999374905854	7245918.407989038
0.871617787474958	7288956.365865425
0.8718356919218269	7332005.083231321
0.8720536508448075	7375064.56277656
0.8722716642575187	7418134.807191661
0.8724897321735832	7461215.819167884
0.8727078546066265	7498239.721855594
0.8729260315702784	7535180.568166202
0.873144263078171	7572130.649688348
0.8733625491439405	7609089.968730878
0.8735808897812266	7646058.527603183
0.8737992850036719	7624567.360387778
0.874017734824923	7582362.073226269
0.8742362392586293	7540146.234742987
0.874454798318444	7497919.842300085
0.8746734120180236	7455682.893259078
0.8748920803710283	7438883.497806082
0.875110803391121	7447652.831026241
0.8753295810919689	7456424.356579711
0.875548413487242	7465198.075014569
0.8757673005906139	7473973.986879037
0.8759862424157616	7519342.338573794
0.8762052389763657	7670597.63552319
0.8764242902861098	7821890.74629672
0.8766433963586814	7973221.680347983
0.8768625572077712	8124590.447132805
0.8770817728470732	8274072.332815621
0.8773010432902849	8273314.0507288
0.8775203685511077	8272555.579071455
0.8777397486432454	8271796.917796196
0.8779591835804065	8271038.066855619
0.8781786733763015	8270279.026202307
0.8783982180446457	8156176.086716967
0.878617817599157	8008326.986604089
0.8788374720535569	7860440.924216253
0.8790571814215703	7712517.890312856
0.8792769457169257	7564557.87565098
0.879496764953355	7443221.343756914
0.8797166391445934	7345823.993842834
0.8799365683043796	7248402.294591267
0.8801565524464557	7150956.239914889
0.8803765915845676	7053485.823724751
0.8805966857324639	7044809.403345788
0.880816834903897	7259215.916105815
0.881037039112623	7473676.030494118
0.8812572983724012	7688189.759910998
0.8814776126969944	7902757.117760326
0.8816979821001687	8112476.130200352
0.8819184065956938	8206853.967462331
0.8821388861973429	8301255.399183724
0.8823594209188923	8395680.431262955
0.882580010774122	8490129.069600163
0.8828006557768155	8584601.320097009
0.8830213559407598	8719416.016569953
0.8832421112797452	8864405.011202315
0.8834629218075651	9009430.253083246
0.8836837875380171	9154491.751274692
0.8839047084849018	9299589.514840709
0.884125684662023	9224611.601204135
0.8843467160831886	8973223.325378165
0.8845678027622095	8721772.202483239
0.8847889447129001	8470258.216807542
0.8850101419490785	8218681.352635473
0.8852313944845657	8169583.43573301
0.885452702333187	8563812.493471052
0.8856740655087704	8958140.108473472
0.8858954840251476	9352566.305379538
0.8861169578961539	9747091.108834647
0.886338487135628	10088732.55999029
0.886560071757412	9725406.612616608
0.8867817117753515	9361989.833756093
0.8870034072032955	8998482.200700698
0.8872251580550963	8634883.690737465
0.8874469643446101	8271194.281146517
0.8876688260856963	8333373.8657652605
0.8878907432922178	8483726.85900778
0.8881127159780409	8634117.440498512
0.8883347441570356	8784545.6196348
0.8885568278430749	8935011.405815713
0.8887789670500358	8963589.372052863
0.8890011617917983	8905683.791597467
0.8892234120822464	8847763.73474693
0.8894457179352669	8789829.197882226
0.8896680793647509	8731880.17738326
0.8898904963845921	8637852.760447329
0.8901129690086883	8474990.948631557
0.8903354972509405	8312088.421362872
0.8905580811252535	8149145.168462243
0.8907807206455347	7986161.17974861
0.8910034158256963	7812259.811165465
0.8912261666796527	7541110.883327308
0.8914489732213227	7269894.168257115
0.8916718354646282	6998609.6490078885
0.8918947534234944	6727257.308629112
0.8921177271118502	6455837.130165409
0.8923407565436284	6170048.53245519
0.8925638417327644	5881855.676723904
0.8927869826931977	5593590.772778589
0.8930101794388711	5305253.802607306
0.8932334319837308	5016844.748193527
0.8934567403417267	4857770.538114116
0.8936801045268123	4779067.743648632
0.8939035245529441	4700345.273484586
0.8941270004340824	4621603.122702967
0.894350532184191	4542841.286383674
0.8945741198172371	4709108.588497481
0.8947977633471915	5281801.709818519
0.8950214627880284	5854638.004419863
0.8952452181537254	6427617.508094517
0.8954690294582639	7000740.256645434
0.8956928967156286	7515770.414820049
0.8959168199398075	7652999.272601083
0.8961407991447926	7790262.437596597
0.8963648343445789	7927559.918383356
0.896588925553165	8064891.723540235
0.8968130727845534	8202257.86164842
0.8970372760527496	8154841.855937535
0.8972615353717629	8084289.7320449175
0.8974858507556059	8013719.9701213185
0.8977102222182949	7943132.565757257
0.8979346497738496	7872527.5145420665
0.8981591334362931	8144393.885184024
0.8983836732196523	8603627.443375584
0.8986082691379572	9062975.80995639
0.8988329212052417	9522439.013628842
0.8990576294355432	9982017.083102608
0.8992823938429022	10235172.258268507
0.8995072144413631	10181295.277177708
0.8997320912449734	10127404.826841654
0.8999570242677847	10073500.90389303
0.9001820135238516	10019583.504963662
0.9004070590272328	9991953.352351684
0.9006321607919896	10102193.668988444
0.9008573188321878	10212461.545704477
0.9010825331618959	10322756.989389634
0.9013078037951865	10433080.00693573
0.9015331307461353	10543430.605236156
0.9017585140288219	10821420.238318231
0.9019839536573292	11113916.177198434
0.9022094496457435	11406485.240063148
0.9024350020081551	11699127.445193907
0.9026606107586572	11991842.810875857
0.902886275911347	12260262.49210949
0.9031119974803249	12517001.789928036
0.9033377754796951	12773805.272571038
0.903563609923565	13030672.956084587
0.903789500826046	13287604.856519187
0.9040154482012526	13321163.987165025
0.904241452063303	13065288.379848255
0.9044675124263188	12809348.803629713
0.9046936293044254	12553345.242517158
0.9049198027117517	12297277.680514198
0.9051460326624297	12144455.162083039
0.9053723191705955	12431508.450873481
0.9055986622503881	12718633.50298585
0.9058250619159507	13005830.336361261
0.9060515181814298	13293098.968945194
0.9062780310609752	13580439.418687074
0.9065046005687405	13407934.489077294
0.906731226718883	13209729.011593394
0.9069579095255627	13011473.98274038
0.907184649002944	12813169.39013014
0.907411445165195	12614815.221371545
0.9076382980264862	12841516.270859491
0.907865207600993	13244819.23453806
0.9080921739028933	13648223.02395743
0.9083191969463691	14051727.664324088
0.9085462767456058	14455333.180851035
0.9087734133147922	14644465.746900443
0.9090006066681211	14585810.137503905
0.909227856819788	14527139.864205094
0.9094551637839932	14468454.923337879
0.9096825275749393	14409755.311235465
0.9099099482068329	14392568.39106418
0.9101374256938848	14522966.155960063
0.9103649600503083	14653396.520297108
0.9105925512903209	14783859.492225211
0.9108201994281437	14914355.079896435
0.9110479044780008	15044883.291464426
0.9112756664541204	15232002.546420133
0.911503485370734	15420463.193254005
0.9117313612420768	15608970.955249587
0.9119592940823873	15797525.84418561
0.912187283905908	15986127.871843925
0.9124153307268845	15615933.884721622
0.9126434345595664	15042819.945362974
0.9128715954182063	14469562.727520026
0.9130998133170609	13896162.195372334
0.9133280882703902	13322618.313091636
0.913556420292458	13036671.34448613
0.9137848093975312	13047403.708763223
0.9140132555998806	13058138.756131385
0.9142417589137806	13068876.487261388
0.9144703193535092	13079616.902824182
0.9146989369333476	13053333.626997406
0.9149276116675811	12915371.07411627
