#wavelength	surface flux
0.7	18045634.302308854
0.7001166666666666	18066717.003838763
0.7002333527777778	18084605.0160657
0.700350058336574	18102496.00962801
0.7004667833462966	18120389.98502255
0.7005835278101878	18138286.94274637
0.7007002917314895	18156186.883296456
0.7008170751134447	18174089.80716996
0.7009338779592968	18191995.7148641
0.7010507002722901	18208122.64908065
0.7011675420556689	18222083.746952098
0.701284403312678	18236047.171673167
0.7014012840465635	18250012.923631713
0.7015181842605713	18263981.00321558
0.701635103957948	18277951.410812706
0.701752043141941	18291924.14681109
0.701869001815798	18305899.21159883
0.7019859799827672	18318367.44370695
0.7021029776460976	18329787.46217872
0.7022199948090387	18341209.38398692
0.7023370314748403	18352633.20944875
0.7024540876467528	18364058.938881487
0.702571163328027	18375486.572602447
0.7026882585219152	18386916.110929053
0.7028053732316688	18398347.5541787
0.7029225074605406	18418311.766585656
0.7030396612117841	18441573.464155048
0.7031568344886527	18464839.03867404
0.7032740272944008	18488108.490788773
0.7033912396322832	18511381.821145535
0.7035084715055552	18534659.030390665
0.7036257229174727	18557940.119170677
0.7037429938712924	18581225.088132177
0.7038602843702709	18605052.163205456
0.7039775944176659	18628974.496404648
0.7040949240167356	18652900.816659383
0.7042122731707383	18676831.12463415
0.7043296418829335	18700765.42099359
0.7044470301565806	18724703.70640242
0.70456443799494	18748645.981525466
0.7046818654012724	18772592.247027718
0.7047993123788394	18792110.07797684
0.7049167789309024	18811626.075492684
0.7050342650607243	18831145.325674806
0.7051517707715678	18850667.829065282
0.7052692960666963	18870193.586206313
0.705386840949374	18889722.597640194
0.7055044054228656	18909254.86390935
0.7056219894904361	18928142.719916258
0.7057395931553511	18942917.877704483
0.705857216420877	18957695.49801902
0.7059748592902804	18972475.581270266
0.7060925217668288	18987258.127868738
0.70621020385379	19002043.138224974
0.7063279055544321	19016830.61274958
0.7064456268720246	19031620.5518533
0.7065633678098366	19047254.98672288
0.7066811283711383	19065210.995529477
0.7067989085592001	19083169.997004207
0.7069167083772933	19101131.99164584
0.7070345278286895	19119096.97995326
0.707152366916661	19137064.962425396
0.7072702256444803	19155035.93956126
0.7073881040154211	19173009.911860004
0.7075060020327569	19191845.422524616
0.7076239196997625	19211934.40884531
0.7077418570197124	19232026.743330367
0.7078598139958823	19252122.426537838
0.7079777906315483	19272221.45902586
0.7080957869299869	19292323.84135262
0.7082138028944751	19312429.574076418
0.7083318385282908	19332538.657755688
0.7084498938347124	19349489.40282899
0.708567968817018	19363762.427539494
0.7086860634784875	19378037.831087466
0.7088041778224007	19392315.613869373
0.7089223118520377	19406595.776281726
0.7090404655706796	19420878.318721138
0.709158638981608	19435163.24158431
0.709276832088105	19449450.54526796
0.7093950448934531	19468574.04008975
0.7095132774009353	19490006.01825916
0.7096315296138355	19511441.568424944
0.7097498015354378	19532880.691182412
0.7098680931690269	19554323.38712699
0.7099864045178884	19575769.65685425
0.7101047355853081	19597219.500959795
0.7102230863745722	19618672.92003934
0.7103414568889679	19638540.66966944
0.7104598471317828	19658050.616680153
0.7105782571063047	19677563.815348692
0.7106966868158224	19697080.266217005
0.710815136263625	19716599.969827127
0.7109336054530023	19736122.926721197
0.7110520943872445	19755649.137441408
0.7111706030696424	19775178.60253008
0.7112891315034873	19793421.272638384
0.7114076796920712	19811605.43119611
0.7115262476386865	19829792.620446928
0.7116448353466263	19847982.840895943
0.711763442819184	19866176.09304838
0.711882070059654	19884372.377409518
0.7120007170713306	19902571.69448471
0.7121193838575091	19920916.143365603
0.7122380704214853	19940745.701535325
0.7123567767665555	19960578.56463139
0.7124755028960166	19980414.73320465
0.7125942488131658	20000254.20780599
0.7127130145213015	20020096.988986485
0.7128318000237216	20039943.077297114
0.7129506053237256	20059792.473289154
0.7130694304246129	20079134.125046976
0.7131882753296837	20096692.180955008
0.7133071400422386	20114253.163205694
0.7134260245655789	20131817.072286744
0.7135449289030065	20149383.90868598
0.7136638530578235	20166953.67289127
0.7137827970333332	20184526.36539062
0.7139017608328388	20202101.986672055
0.7140207444596443	20220056.13031769
0.7141397479170543	20238683.28712336
0.7142587712083737	20257313.54845513
0.7143778143369084	20275946.914830476
0.7144968773059646	20294583.38676689
0.7146159601188489	20313222.964781947
0.7147350627788687	20331865.649393346
0.7148541852893318	20350511.441118836
0.7149733276535467	20366804.441714
0.7150924898748222	20380724.522154726
0.715211671956468	20394646.92260886
0.7153308739017941	20408571.64346308
0.715450095714111	20422498.685104102
0.71556933739673	20436428.047918737
0.7156885989529628	20450359.732293833
0.7158078803861218	20464293.73861635
0.7159271816995193	20467060.615712125
0.7160465028964692	20463272.182732604
0.7161658439802853	20459483.118347593
0.7162852049542819	20455693.422451846
0.7164045858217744	20451903.09494012
0.716523986586078	20448112.135707136
0.7166434072505089	20444320.544647623
0.716762847818384	20440528.32165626
0.7168823082930204	20451767.43470532
0.7170017886777359	20467430.76197832
0.7171212889758488	20483096.699805856
0.7172408091906781	20498765.248623036
0.7173603493255433	20514436.408865023
0.7174799093837642	20530110.18096704
0.7175994893686615	20545786.565364417
0.7177190892835562	20561465.56249252
0.7178387091317702	20603917.819171872
0.7179583489166254	20649064.465605777
0.7180780086414448	20694218.636480786
0.7181976883095517	20739380.33305094
0.7183173879242699	20784549.556570526
0.718437107488924	20829726.308294043
0.7185568470068389	20874910.589476198
0.7186766064813399	20919005.754338372
0.7187963859157535	20935689.675752178
0.7189161853134061	20952376.37781955
0.719036004677625	20969065.861003935
0.7191558440117378	20985758.12576884
0.7192757033190732	21002453.1725779
0.7193955826029597	21019151.001894735
0.7195154818667269	21035851.614183143
0.7196354011137046	21051119.799333487
0.7197553403472235	21059782.563156273
0.7198752995706147	21068446.77077303
0.7199952787872098	21077112.422424395
0.720115278000341	21085779.518351033
0.7202352972133411	21094448.05879366
0.7203553364295432	21103118.043993015
0.7204753956522815	21111789.474189915
0.7205954748848902	21126281.17570183
0.7207155741307044	21153603.62923578
0.7208356933930594	21180930.636511944
0.7209558326752915	21208262.198289324
0.7210759919807375	21235598.315327037
0.7211961713127342	21262938.98838422
0.7213163706746197	21290284.21822029
0.7214365900697322	21317634.005594637
0.7215568295014103	21336974.09418184
0.721677088972994	21346755.047309224
0.7217973684878227	21356537.630595446
0.7219176680492374	21366321.84431223
0.7220379876605789	21376107.68873129
0.722158327325189	21385895.16412443
0.7222786870464099	21395684.270763457
0.7223990668275843	21405475.008920263
0.7225194666720555	21421402.97513762
0.7226398865831676	21441682.04669718
0.7227603265642646	21461964.49810195
0.722880786618692	21482250.329915334
0.7230012667497951	21502539.54270067
0.7231217669609201	21522832.137021475
0.7232422872554135	21543128.113441315
0.7233628276366229	21563427.472523928
0.7234833881078956	21590398.986673854
0.7236039686725803	21619906.87138427
0.7237245693340255	21649419.67407543
0.7238451900955812	21678937.395567086
0.7239658309605971	21708460.03667896
0.7240864919324239	21737987.59823106
0.7242071730144127	21767520.081043415
0.724327874209915	21797057.48593618
0.7244485955222832	21795655.019699574
0.7245693369548704	21789135.859462593
0.7246900985110294	21782615.612698916
0.7248108801941148	21776094.27922743
0.7249316820074803	21769571.85886705
0.7250525039544815	21763048.3514366
0.7251733460384739	21756523.75675491
0.7252942082628137	21750070.15488193
0.7254150906308574	21785381.05212214
0.7255359931459625	21820697.834511887
0.7256569158114868	21856020.503032047
0.7257778586307888	21891349.058663644
0.7258988216072273	21926683.502387837
0.7260198047441617	21962023.83518594
0.7261408080449525	21997370.058039576
0.72626183151296	22031055.954275966
0.7263828751515454	22053674.492513407
0.7265039389640706	22076296.800507218
0.726625022953898	22098922.87888571
0.7267461271243904	22121552.72827727
0.7268672514789111	22144186.349310383
0.7269883960208241	22166823.74261365
0.7271095607534942	22189464.908815816
0.7272307456802866	22210815.691558246
0.7273519508045666	22228674.202366635
0.7274731761297006	22246535.689593483
0.7275944216590555	22264400.153734867
0.7277156873959987	22282267.59528695
0.7278369733438982	22300138.014745984
0.727958279506122	22318011.412608217
0.7280796058860397	22335887.789370112
0.7282009524870207	22349705.009993006
0.7283223193124353	22357516.182670698
0.7284437063656539	22365328.657210484
0.7285651136500483	22373142.433829375
0.7286865411689898	22380957.51274435
0.7288079889258514	22388773.894172497
0.7289294569240056	22396591.578330867
0.7290509451668262	22404410.5654366
0.7291724536576875	22415635.01794867
0.7292939823999636	22429682.056070454
0.7294155313970303	22443731.43536529
0.7295371006522632	22457783.156223338
0.7296586901690385	22471837.21903485
0.7297802999507332	22485893.62419016
0.7299019300007252	22499952.3720797
0.7300235803223919	22514013.463093847
0.7301452509191123	22535354.403722327
0.7302669417942654	22560057.97565663
0.7303886529512311	22584765.66485293
0.7305103843933897	22609477.471997436
0.7306321361241218	22634193.397776447
0.7307539081468093	22658913.442876462
0.7308757004648336	22683637.607983943
0.7309975130815778	22708365.89378564
0.7311193460004248	22740564.5436028
0.7312411992247582	22774458.821879704
0.7313630727579622	22808358.749202978
0.7314849666034219	22842264.32651417
0.7316068807645224	22876175.554754894
0.7317288152446498	22910092.43486701
0.7318507700471907	22944014.967792496
0.7319727451755319	22977943.154473454
0.732094740633061	22992439.418668315
0.7322167564231665	23006063.013026528
0.7323387925492371	23019688.877983797
0.7324608490146619	23033317.013918556
0.732582925822831	23046947.42120931
0.7327050229771347	23060580.100234594
0.7328271404809642	23074215.051373065
0.7329492783377112	23087523.194709867
0.7330714365507675	23097598.348517712
0.7331936151235259	23107675.181517858
0.7333158140593796	23117753.69399016
0.7334380333617229	23127833.886214554
0.7335602730339499	23137915.75847099
0.7336825330794556	23147999.31103947
0.7338048135016354	23158084.54420003
0.7339271143038857	23173181.021545846
0.734049435489603	23205065.487148706
0.7341717770621846	23236955.266829174
0.7342941390250283	23268850.361472905
0.7344165213815324	23300750.77196573
0.734538924135096	23332656.499193687
0.7346613472891185	23364567.544042803
0.734783790847	23396483.90739941
0.7349062548121412	23418223.641557105
0.7350287391879431	23421969.98902767
0.7351512439778078	23425716.96088949
0.7352737691851374	23429464.55724661
0.735396314813335	23433212.77820313
0.7355188808658037	23436961.623863135
0.7356414673459482	23440711.094330758
0.7357640742571725	23444461.18971012
0.7358867016028818	23456521.3347197
0.7360093493864824	23476789.79590695
0.7361320176113801	23497061.63517104
0.736254706280982	23517336.85307501
0.7363774153986956	23537615.450181987
0.7365001449679286	23557897.427055106
0.7366228949920899	23578182.78425772
0.7367456654745885	23598471.522353206
0.7368684564188344	23619781.811487895
0.7369912678282374	23641671.100328267
0.7371140997062088	23663564.037383456
0.7372369520561599	23685460.623261508
0.7373598248815024	23707360.858570486
0.7374827181856494	23729264.743918724
0.7376056319720137	23751172.27991452
0.7377285662440091	23773083.46716632
0.7378515210050496	23793466.987248212
0.7379744962585505	23813393.177271027
0.738097492007927	23833322.68832551
0.7382205082565949	23853255.520965155
0.738343545007971	23873191.67574357
0.7384666022654723	23893131.15321447
0.7385896800325165	23913073.95393158
0.7387127783125219	23933020.07844884
0.7388358971089073	23956759.829973057
0.7389590364250921	23980883.714886393
0.7390821962644963	24005011.620447237
0.7392053766305403	24029143.54732564
0.7393285775266454	24053279.496191874
0.7394517989562333	24077419.467716273
0.7395750409227259	24101563.46256922
0.7396983034295463	24125359.88426509
0.739821586480118	24141338.73162861
0.7399448900778645	24157320.242133327
0.7400682142262109	24173304.416223176
0.740191558928582	24189291.25434202
0.7403149241884034	24205280.75693387
0.7404383100091014	24221272.924442828
0.7405617163941028	24237267.757313024
0.7406851433468352	24251300.59320661
0.7408085908707264	24256347.90816155
0.7409320589692048	24261396.064335648
0.7410555476456997	24266445.061869115
0.7411790569036406	24271494.900902163
0.7413025867464579	24276545.58157505
0.7414261371775823	24281597.104028054
0.7415497082004452	24286649.46840146
0.7416732998184786	24293640.622016314
0.741796912035115	24304790.21907911
0.7419205448537874	24315941.674408082
0.7420441982779297	24327094.98831294
0.742167872310976	24338250.16110346
0.7422915669563612	24349407.193089448
0.7424152822175206	24360566.08458076
0.7425390180978901	24371726.835887317
0.7426627746009065	24387715.95731453
0.7427865517300065	24409591.604897697
0.7429103494886282	24431470.89842215
0.7430341678802096	24453353.83849551
0.7431580069081896	24475240.425725546
0.7432818665760077	24497130.66072015
0.7434057468871037	24519024.54408724
0.7435296478449182	24540922.076434873
0.7436535694528923	24557549.01646257
0.7437775117144678	24570568.34728312
0.7439014746330868	24583589.847992122
0.7440254582121922	24596613.518951256
0.7441494624552276	24609639.360522218
0.7442734873656368	24622667.373066776
0.7443975329468645	24635697.556946766
0.7445215992023557	24648729.912524067
0.7446456861355559	24657628.212660085
0.7447697937499119	24665004.319459908
0.7448939220488703	24672381.655610863
0.7450180710358784	24679760.221317835
0.7451422407143843	24687140.01678576
0.7452664310878367	24694521.042219605
0.7453906421596846	24701903.297824346
0.7455148739333779	24709286.783805024
0.7456391264123667	24719059.43484999
0.7457633996001021	24729215.532189578
0.7458876935000356	24739373.322212078
0.7460120081156189	24749532.80519956
0.7461363434503048	24759693.98143421
0.7462606995075466	24769856.851198245
0.7463850762907978	24780021.41477389
0.7465094738035127	24790191.66901095
0.7466338920491467	24801409.098112576
0.746758331031155	24812628.396785732
0.7468827907529935	24823849.56534199
0.7470072712181189	24835072.604093004
0.7471317724299886	24846297.513350483
0.7472562943920602	24857524.29342616
0.7473808371077922	24868752.94463186
0.7475054005806435	24879262.715071548
0.7476299848140736	24885334.68620016
0.7477545898115426	24891407.669323962
0.7478792155765113	24897481.664611623
0.7480038621124406	24903556.672231823
0.7481285294227926	24909632.692353297
0.7482532175110298	24915709.725144792
0.7483779263806148	24921787.77077508
0.7485026560350116	24926585.92133404
0.7486274064776842	24927918.14183983
0.748752177712097	24929250.584382363
0.7488769697417158	24930583.24899866
0.749001782570006	24931916.13572572
0.7491266162004343	24933249.244600575
0.7492514706364677	24934582.575660236
0.7493763458815739	24935916.128941745
0.7495012419392209	24935809.309547942
0.7496261588128773	24933631.445457857
0.7497510965060128	24931453.21839042
0.7498760550220971	24929274.62828514
0.7500010343646007	24927095.67508151
0.7501260345369949	24924916.35871901
0.750251055542751	24922736.679137122
0.7503760973853414	24920556.6362753
0.7505011600682389	24915016.954272334
0.750626243594917	24906671.43050884
0.7507513479688495	24898324.515824735
0.7508764731935109	24889976.209988177
0.7510016192723765	24881626.51276731
0.7511267862089218	24873275.423930254
0.7512519740066232	24864922.94324505
0.7513771826689577	24856569.070479725
0.7515024121994025	24843406.680918083
0.7516276626014359	24828000.746044695
0.751752933878536	24812592.243515525
0.7518782260341824	24797181.17290259
0.7520035390718548	24781767.53377788
0.7521288729950334	24766351.32571333
0.7522542278071992	24750932.54828076
0.7523796035118337	24735511.201051947
0.7525050001124189	24713669.29007488
0.7526304176124378	24690427.968722515
0.7527558560153731	24667182.773816623
0.752881315324709	24643933.704711553
0.7530067955439299	24620680.760761626
0.7531322966765205	24597423.941321068
0.7532578187259665	24574163.245743934
0.7533833616957542	24550898.6733842
0.75350892558937	24518574.43142974
0.7536345104103016	24485818.972872198
0.7537601161620366	24453058.05507158
0.7538857428480638	24420291.677117962
0.7540113904718717	24387519.8381014
0.7541370590369503	24354742.53711167
0.7542627485467898	24321959.77323842
0.7543884590048808	24288259.287312143
0.7545141904147151	24245456.04190854
0.7546399427797842	24202645.66263077
0.7547657161035808	24159828.14828978
0.754891510389598	24117003.497696407
0.7550173256413296	24074171.70966125
0.7551431618622698	24031332.782994762
0.7552690190559135	23988486.716507174
0.7553948972257561	23940046.279034737
0.7555207963752938	23872843.540625878
0.755646716508023	23805629.601760656
0.755772657627441	23738404.46057227
0.7558986197370455	23671168.11519367
0.756024602840335	23603920.563757528
0.7561506069408084	23536661.804396145
0.7562766320419653	23469391.835241474
0.7564026781473054	23392492.318794813
0.75652874526033	23298654.281146914
0.7566548333845401	23204800.603826024
0.7567809425234375	23110931.284225613
0.7569070726805247	23017046.319738653
0.7570332238593047	22923145.70775763
0.7571593960632813	22829229.445674516
0.7572855892959586	22735297.53088105
0.7574118035608413	22631931.25190903
0.7575380388614347	22519333.114963435
0.7576642952012449	22406716.211661637
0.7577905725837782	22294080.53887612
0.7579168710125422	22181426.093478274
0.7580431904910444	22068752.872339483
0.7581695310227928	21956060.872330643
0.7582958926112967	21843350.090321664
0.7584222752600652	21696960.413045473
0.7585486789726085	21531209.888826635
0.7586751037524372	21365431.739520364
0.7588015496030628	21199625.960522216
0.7589280165279966	21033792.5472279
0.7590545045307512	20867931.495031364
0.7591810136148396	20702042.799326137
0.7593075437837755	20536126.45550471
0.7594340950410726	20322709.520400215
0.7595606673902461	20095483.380159438
0.7596872608348112	19868219.368895065
0.7598138753782836	19640917.48029573
0.75994051102418	19413577.70804808
0.7600671677760173	19186200.04583857
0.7601938456373134	18958784.487351846
0.7603205446115863	18731331.026272174
0.7604472647023548	18417885.40621597
0.7605740059131385	18095843.703034
0.7607007682474575	17773748.326234516
0.7608275517088319	17451599.26687295
0.7609543563007835	17129396.516000777
0.7610811820268336	16807140.064670317
0.7612080288905045	16484829.903931921
0.7613348968953197	16155755.918360215
0.7614617860448022	15688950.518533392
0.7615886963424764	15222067.31780596
0.7617156277918667	14755106.303212194
0.7618425803964988	14288067.461782277
0.7619695541598982	13820950.78054558
0.7620965490855914	13353756.24652902
0.7622235651771058	12886483.846756252
0.7623506024379685	12396968.415444547
0.7624776608717082	11810219.113953397
0.7626047404818536	11223372.02091197
0.7627318412719337	10636427.120022709
0.762858963245479	10049384.394982934
0.7629861064060198	9462243.82948893
0.7631132707570876	8875005.407233402
0.7632404563022137	8287669.111908026
0.7633676630449308	7692960.468452157
0.7634948909887717	7082667.799476624
0.7636221401372697	6472273.415057055
0.7637494104939593	5861777.298239507
0.7638767020623748	5251179.432070037
0.7640040148460518	4640479.799588844
0.7641313488485262	4029678.383835594
0.7642587040733344	3418775.1678456916
0.7643860805240132	2936447.483018322
0.7645134782041005	2607590.0605399553
0.7646408971171346	2278677.828491038
0.764768337266654	1949710.7777369004
0.7648957986561985	1620688.899140864
0.7650232812893079	1291612.1835651048
