#wavelength	surface flux
0.676892	286648.8029298124
0.678297	292657.0651246016
0.679702	298550.19585815584
0.681109	304502.596577312
0.682517	310813.8627383197
0.683926	317152.6012492043
0.685337	323437.0101119462
0.686749	329806.16826875304
0.688164	336223.3933910604
0.689581	342568.10285932856
0.691	348079.39519417885
0.692422	353009.3701759373
0.693847	360951.6157232143
0.695274	369323.21020330046
0.696705	376733.72995789954
0.698139	383669.7179573474
0.699576	390812.7547985082
0.701017	397903.96003873245
0.702461	404654.6598830056
0.70391	412785.78791786986
0.705362	421015.7674085721
0.706819	428442.8560663227
0.70828	436013.19532183715
0.709745	443638.60275147535
0.711216	452028.59205279534
0.71269	460085.5678037756
0.71417	468013.16268089996
0.715655	474538.2587952941
0.717145	479898.63760009623
0.71864	490184.8280090935
0.72014	498967.18126050953
0.721647	506811.1564441934
0.723158	514712.2532798548
0.724676	522145.0048826188
0.726199	529913.1229452201
0.727728	539121.7638394684
0.729264	545391.0819455034
0.730805	554200.9946743624
0.732353	564947.9616976622
0.733907	573078.8332891365
0.735468	581428.8079655675
0.737035	589074.8963415268
0.738609	597968.408540663
0.74019	605432.3621051403
0.741777	610063.1777830778
0.743372	615241.201496361
0.744973	619832.7870443582
0.746582	621577.0754451354
0.748197	621022.953489884
0.74982	617058.8927797914
0.751451	608228.2189332263
0.753088	592153.8346116807
0.754734	566837.8241597585
0.756386	528712.555762177
0.758047	470682.4720202399
0.759715	389607.2919769063
0.76139	280475.29894448636
0.763074	150936.44406925113
0.764765	48202.663967538945
0.766464	6974.262111551033
0.768172	9849.451011968955
0.769887	12238.410848666012
0.77161	86415.05783961256
0.773341	244090.5166693104
0.775081	404991.4011107839
0.776829	536227.5085454965
0.778585	606365.2885598359
0.780349	648310.6715751191
0.782121	769475.183227279
0.783902	845269.6802222744
0.785691	895014.0765978222
0.787489	937002.378432349
0.789295	973146.9918835515
0.79111	1001435.3832172691
0.792933	910713.6708369867
0.794764	566995.8373334124
0.796604	970860.7864900992
0.798453	1121869.77732716
0.80031	1151446.507826306
0.802176	1178382.6107582701
0.804051	1204369.3500168906
0.805934	1229948.0029932158
0.807826	1253841.0396471955
0.809727	1270615.0437406355
0.811636	1288498.4759327997
0.813554	1311782.4157275208
0.81548	1350612.384439093
0.817416	1378460.1765338702
0.81936	1405066.6579677833
0.821313	1430552.6995403843
0.823274	1449928.3387034226
0.825244	1486236.2821739933
0.827223	1513437.5716735611
0.829211	1535072.153985481
0.831208	1560150.7724304919
0.833213	1593220.5515012052
0.835227	1619758.3932179147
0.837249	1640797.4518177223
0.83928	1671477.3894691002
0.841321	1712611.7078162604
0.843369	1748645.0341401822
0.845427	1780252.0158943268
0.847493	1813650.8773532007
0.849567	1843418.6435245215
0.851651	1867079.0773796279
0.853742	1906879.1454151873
0.855843	1947823.3767883056
0.857952	1982664.7095595798
0.86007	2015073.671694631
0.862196	2020133.3034955065
0.864331	2060388.8057772545
0.866474	2103815.657731698
0.868626	2142814.2052338114
0.870786	2180723.446417765
0.872955	2219033.812539812
0.875132	2252000.7426624005
0.877317	2291119.19571158
0.879511	2313953.4084230256
0.881713	2354092.968991385
0.883923	2397510.324403547
0.886142	2430262.486870246
0.888369	2464082.950213106
0.890604	2489943.99624077
0.892847	2484931.6293390593
0.895099	2529038.829494246
0.897358	2597351.415607062
0.899626	2665846.8526610453
0.901901	2720141.2924562744
0.904185	2778994.0327761928
0.906476	2818873.453266457
0.908776	2863026.991251096
0.911083	2919885.549677313
0.913398	2947432.5235378174
0.915721	2974282.5732459635
0.918051	2992782.155265911
0.92039	3088287.6906532226
0.922736	3128597.9719946813
0.925089	3080715.627574471
0.927451	2906877.3484595744
0.929819	2670162.7452210565
0.932195	2896378.56899242
0.934579	2925228.9335399806
0.93697	3051990.170922272
0.939369	3236080.6279193284
0.941774	3290237.496181646
0.944187	3137628.4340017145
0.946607	3108991.5560644288
0.949035	3326147.3138794545
0.951469	3314995.3276610635
0.953911	3400241.720757425
0.956359	3644034.8939144635
0.958814	3441282.7367953826
0.961277	3371680.6218799283
0.963746	3452056.6061258875
0.966222	3531342.164483507
0.968705	3550105.2414907254
0.971194	3899195.1751979943
0.97369	4079640.6520143175
0.976193	4064017.0895352126
0.978702	4194763.5848326245
0.981217	4261330.727077624
0.983739	4346048.956435066
0.986268	4417367.646421555
0.988802	4529083.872813278
0.991343	4637868.485518993
0.99389	4702293.188157725
0.996444	4800089.709957111
0.999003	4870738.897224894
1.00157	4927477.61652321
1.00414	5001459.794762116
1.00672	5097026.978995688
1.0093	5179913.866970054
1.01189	5267393.458317911
1.01448	5366337.803906033
1.01708	5443746.817939959
1.01969	5520085.9928795025
1.0223	5581774.516518687
1.02492	5604294.994834891
1.02754	5695015.403482373
1.03017	5693332.998458704
1.0328	5880223.748183247
1.03544	5974370.807313802
1.03808	6054115.083766932
1.04073	6135426.456172144
1.04339	6215355.812785299
1.04604	6293124.667863219
1.04871	6353804.940709646
1.05138	6425535.231494605
1.05405	6523226.9540875675
1.05673	6613377.882740122
1.05941	6693388.395850555
1.0621	6770039.596948325
1.06479	6849826.718398859
1.06749	6929383.874734556
1.07019	6990503.332409945
1.07289	7080713.002117961
1.0756	7175769.54720747
1.07832	7250929.268590709
1.08104	7341939.405790216
1.08376	7429317.393337767
1.08649	7495968.1852472415
1.08922	7525494.914801919
1.09195	7540555.064870737
1.09469	7571320.496423666
1.09743	7646144.496413648
1.10018	7097985.919326575
1.10293	6552404.913746055
1.10568	6136039.0141466865
1.10844	7018994.165063906
1.1112	6767073.5383142885
1.11396	6292674.465890949
1.11673	6256008.878729003
1.1195	6435751.5356570855
1.12228	5987674.41921295
1.12505	6906512.213874619
1.12783	6985894.219422108
1.13062	7019604.912319484
1.13341	5457460.974808856
1.1362	6494463.032458221
1.13899	7741661.297838206
1.14178	7588654.666744155
1.14458	7985512.519419796
1.14738	8384491.652555226
1.15019	7278244.442684049
1.153	5633388.094079999
1.1558	6260038.255046595
1.15862	6433057.430534344
1.16143	6605410.864070147
1.16425	7518058.966299501
1.16707	8417088.6892384
1.16989	7984545.073855024
1.17271	8296191.115232451
1.17554	9055136.7806283
1.17837	9551886.688650744
1.1812	9749711.466326766
1.18403	10177079.91712682
1.18686	10206268.774399696
1.1897	10259561.221019598
1.19253	10644789.042610126
1.19537	10856326.684537956
1.19822	10989119.67825738
1.20106	11159374.024372874
1.2039	11145625.20272817
1.20675	11326515.417876603
1.2096	11450420.07182678
1.21245	11521868.235719284
1.2153	11726951.027488418
1.21815	11867868.5110207
1.221	11986066.349218152
1.22385	12117707.744859358
1.22671	12254989.436630413
1.22957	12361227.579697968
1.23242	12439759.351997433
1.23528	12560090.281409616
1.23814	12688478.830850542
1.241	12798240.502939906
1.24387	12909001.92306314
1.24673	13013251.070332035
1.24959	13092052.304306345
1.25245	13115346.033499608
1.25532	13319904.376060927
1.25818	13455599.828375207
1.26105	13511622.15074798
1.26392	13587895.660591846
1.26678	13689183.744928587
1.26965	13764581.720965944
1.27252	13821584.771826254
1.27538	13975268.887227949
1.27825	14055761.912191035
1.28112	14067718.905587807
1.28399	14213426.111440616
1.28686	14233334.073446361
1.28973	14157520.962978631
1.2926	14158361.754707914
1.29546	14358717.554307202
1.29833	14508941.918042295
1.3012	14356439.68204238
1.30407	14392034.610782554
1.30694	14413791.924588948
1.30981	14651423.93636446
1.31267	14574491.32285585
1.31554	14901654.517333668
1.31841	15188702.243926203
1.32128	14868065.321477817
1.32414	14323435.060462251
1.32701	14153803.582416203
1.32987	13063562.582871905
1.33274	10284666.530434672
1.3356	8221484.559614416
1.33847	4419266.392936772
1.34133	2386882.8081958485
1.34419	4318520.547265183
1.34705	5545327.607558832
1.34991	4053478.4794339747
1.35277	2275657.001522673
1.35563	2361053.573823352
1.35849	3020891.1039927336
1.36135	1947150.34966754
1.3642	3198400.796583126
1.36706	3447679.241017772
1.36991	3169090.9043445927
1.37277	5686462.353611196
1.37562	8098565.871516052
1.37847	8624349.310603078
1.38132	4393763.804621773
1.38417	1312694.2110485942
1.38701	2355299.412883821
1.38986	2007081.214217204
1.39271	2055021.4550091322
1.39555	2796632.47193739
1.39839	2135552.046554331
1.40123	3366112.255536817
1.40407	5514091.905560056
1.40691	6911478.87134348
1.40974	4488135.830211122
1.41258	1883899.3308806666
1.41541	3523783.672877384
1.41824	4574132.087532441
1.42107	3345222.26715941
1.4239	2364707.568377369
1.42673	4096172.2332821377
1.42955	5701021.68040645
1.43237	3718998.5052543962
1.43519	5009691.485992622
1.43801	4205849.725776861
1.44083	5010963.923079098
1.44365	7083371.807408647
1.44646	7390886.164933309
1.44927	10182552.833381386
1.45208	11549488.753664447
1.45489	10146078.936732458
1.45769	11389933.413135998
1.4605	12149777.071472876
1.4633	12301797.102817336
1.4661	12814963.562993623
1.4689	11058948.368821433
1.47169	11424504.560581325
1.47449	11404718.188334892
1.47728	11707686.595812574
1.48007	11691504.333954174
1.48286	13496503.381754145
1.48564	14966527.629203402
1.48842	14907706.522106625
1.4912	15093285.281556599
1.49398	14840693.580013169
1.49676	14107924.318538025
1.49953	15499592.778288778
1.5023	16775231.609304216
1.50507	16712777.484180786
1.50784	16259587.866650663
1.51061	16560876.004225908
1.51337	17037730.91311533
1.51613	17701641.42856222
1.51888	18459408.87544137
1.52164	19483087.4944036
1.52439	20019486.128855303
1.52714	19631924.57582302
1.52989	19516642.074599188
1.53263	20025470.048885282
1.53538	20608043.26782839
1.53812	20695201.26878248
1.54086	20630993.28741373
1.54359	20725526.993908815
1.54632	21180839.08387952
1.54905	21294873.20943679
1.55178	21705139.982567266
1.5545	21664791.48180921
1.55723	21372149.146601394
1.55995	21457140.37274174
1.56266	21795040.70360794
1.56538	22374136.561391477
1.56809	22679762.645466622
1.5708	22671830.725732557
1.57351	22397381.764516078
1.57621	22127981.80937045
1.57891	21501625.617549013
1.58161	22098804.049625546
1.5843	23215080.935268372
1.587	23453536.872138493
1.58969	23452931.233531646
1.59238	23441091.236620087
1.59506	23308963.159682393
1.59774	23137228.858437613
1.60042	23061012.212470807
1.6031	23213166.07005872
1.60577	23425976.82344923
1.60844	23505641.029143184
1.61111	23389076.16910671
1.61378	23216543.065536343
1.61644	23222685.639710713
1.6191	23026447.947281376
1.62176	22769066.539690368
1.62441	22781783.092145
1.62707	22624094.953103803
1.62971	22099254.054673
1.63236	21910605.405971155
1.635	22867543.16855343
1.63764	24135706.915440295
1.64028	24556727.298416134
1.64292	24530361.662506137
1.64555	24105699.150094185
1.64818	23195385.09004046
1.65081	23148633.878008816
1.65343	23982714.29884281
1.65605	24321115.0356372
1.65867	24416136.65525808
1.66128	24192225.36619312
1.6639	22812288.87897332
1.66651	20029678.870960966
1.66911	19991155.488572825
1.67172	22528020.013736248
1.67432	24105372.15472041
1.67692	24126647.91236164
1.67951	23633573.41610809
1.68211	23757861.860341176
1.6847	23889946.509686697
1.68728	23511612.691364296
1.68987	23242537.99980023
1.69245	22625564.89177578
1.69503	21195547.0678214
1.6976	20419603.91717333
1.70018	21429870.766552743
1.70275	21466547.38883887
1.70531	21583305.91606496
1.70788	22447367.95811423
1.71044	22373982.70223674
1.713	22755951.162106685
1.71556	23243190.342389386
1.71811	23625977.48863463
1.72066	24106344.11388247
1.72321	23971475.70494627
1.72575	23758227.111981645
1.7283	23505910.787179247
1.73084	22981644.58514613
1.73337	22351373.70119522
1.73591	21861387.991046175
1.73844	21687866.0554153
1.74097	21716136.80640588
1.74349	21047664.01649656
1.74602	20127242.781024314
1.74854	19670522.1094582
1.75105	18585964.008703366
1.75357	16951544.00395227
1.75608	18157362.300748467
1.75859	21043114.325008158
1.7611	22189532.55331864
1.7636	21676581.551444795
1.7661	19405520.867699
1.7686	17240406.34707824
1.7711	15051447.71421344
1.77359	12362866.130742976
1.77608	9044125.419571375
1.77857	7380508.924246162
1.78105	8440278.646782149
1.78354	9484108.01618997
1.78602	7852108.5582771925
1.78849	6596236.651036691
1.79097	7876177.822637131
1.79344	9508236.297022264
1.79591	10275605.182697749
1.79837	11150529.569756875
1.80084	7950377.070395092
1.8033	5355732.44370091
1.80576	3093537.3011290594
1.80821	2126299.763675588
1.81067	4665045.737424411
1.81312	7041564.395789583
1.81557	4441035.288997073
1.81801	2726941.01503112
1.82046	5178586.728283164
1.8229	7740234.441038005
1.82533	5774891.7357945815
1.82777	2581515.2702462673
1.8302	2165339.0406667776
1.83263	3613952.3075584727
1.83506	5091154.175412812
1.83749	6743342.1621963335
1.83991	7866358.156909725
1.84233	7054147.411948746
1.84475	6754836.622163827
1.84716	7136225.204184572
1.84957	7665155.439086499
1.85198	6816960.112758241
1.85439	3887359.6799665205
1.8568	3323538.0847083614
1.8592	4300326.835372018
1.8616	3501106.423262474
1.864	2252199.533713141
1.86639	2449726.228365782
1.86878	3638082.6661569164
1.87118	5349785.170462088
1.87356	7213054.232892381
1.87595	7998098.71146449
1.87833	9605165.208304036
1.88071	12750799.502501395
1.88309	12497425.31786977
1.88547	10454251.842200581
1.88784	9923788.144351924
1.89021	9341067.428178897
1.89258	12448645.346394744
1.89494	14528226.318748452
1.89731	10593808.670384753
1.89967	5767055.2421559375
1.90203	3077115.51181965
1.90439	2900486.596343163
1.90674	4407156.339763881
1.90909	4892851.803587372
1.91144	3421326.881961109
1.91379	1840173.5775201987
1.91613	1649913.7549240647
1.91848	2614939.212532768
1.92082	3741485.1256276146
1.92315	3631401.519709546
1.92549	2750300.7825160427
1.92782	3108276.3983708466
1.93015	4271804.373231337
1.93248	5130213.612455092
1.93481	5205297.250124408
1.93713	4553257.589590654
1.93945	4333811.481199124
1.94177	5087375.002514672
1.94409	5725783.760544112
1.94641	5654468.452087858
1.94872	6188676.185530596
1.95103	7111211.620756949
1.95334	5147037.788212085
1.95564	4104694.0483419113
1.95795	4878817.935202973
1.96025	5172086.63900547
1.96255	5246173.65288574
1.96484	5879198.830409884
1.96714	7535286.866483947
1.96943	9670639.62176951
1.97172	10782487.145327808
1.97401	10036291.752678838
1.97629	10499737.891321799
1.97858	12350604.3002049
1.98086	13429859.672231605
1.98314	14514473.34700279
1.98541	15144187.705735274
1.98769	14238777.454441043
1.98996	12062776.891230198
1.99223	11623043.953674713
1.9945	13005043.369708708
1.99677	12568043.871258259
1.99903	12378836.805548249
2.00129	14117017.572723467
2.00355	16555299.785944128
2.00581	17797864.38969413
2.00806	17973907.449807398
2.01031	19840333.83538781
2.01256	20862758.023487072
2.01481	19801538.974924505
2.01706	18401407.314757973
2.0193	18389644.77529241
2.02154	20148421.373588666
2.02378	22099147.766257115
2.02602	22608907.405531384
2.02825	22997207.54618023
2.03049	23548081.305451162
2.03272	24256284.130828407
2.03494	24952644.11858651
2.03717	25409189.201620243
2.03939	25605187.76207619
2.04162	26240703.726980314
2.04384	26847415.155634463
2.04605	27490222.86298328
2.04827	28061555.1025238
2.05048	28094155.100162055
2.05269	27353317.771156948
2.0549	27219177.964902338
2.05711	27578695.135545734
2.05931	28109977.601118524
2.06151	28527198.393790808
2.06371	28866397.484139904
2.06591	29097420.90217871
2.06811	29278925.63324974
2.0703	29376328.994681288
2.07249	29349936.304949556
2.07468	29159090.212037124
2.07686	29135071.439938206
2.07905	29269191.807462
2.08123	29427666.679873485
2.08341	29546088.31519155
2.08559	29638197.16060121
2.08776	29720735.677021854
2.08994	29683716.15449652
2.09211	29561601.06107305
2.09428	29441969.0279843
2.09645	29512625.160167105
2.09861	29537948.961911153
2.10077	29498507.921400465
2.10293	29389227.12292506
2.10509	29220334.89421149
2.10725	29063014.882142987
2.1094	29272069.862036344
2.11155	29503231.368114647
2.1137	29589125.753215387
2.11585	29376910.752930723
2.11799	29214137.574475173
2.12013	29189319.269291006
2.12227	29265567.264693107
2.12441	29395292.03866
2.12655	29458127.708413772
2.12868	29461703.41306435
2.13081	29479515.441938937
2.13294	29503872.757612146
2.13507	29366770.24729155
2.13719	29072263.007906444
2.13931	28817916.754938774
2.14143	28607363.517911445
2.14355	28310026.79031342
2.14567	28159736.946849693
2.14778	28036308.54719147
2.14989	27874434.14445245
2.152	27555977.467047427
2.1541	27640575.562954433
2.15621	27765988.788095005
2.15831	27782680.28597775
2.16041	27400718.3097507
2.16251	27233904.064012226
2.1646	27128979.138685666
2.1667	27067569.19214194
2.16879	27143868.176405314
2.17087	27183498.947710857
2.17296	27159493.673932627
2.17504	27058203.640877247
2.17713	26930705.850576274
2.1792	26753247.344175313
2.18128	26513252.963624235
2.18336	26187946.57708818
2.18543	25783056.528433084
2.1875	25334965.994998083
2.18957	24760937.20695782
2.19163	23692911.393492933
2.1937	21917116.137402028
2.19576	19930029.788413614
2.19782	17928211.69020262
2.19987	16753443.535042142
2.20193	16025597.936192673
2.20398	15679286.729941977
2.20603	15611321.051835908
2.20808	16032510.16114442
2.21012	16701591.81427895
2.21217	17560648.938097164
2.21421	18008908.630662758
2.21625	18025858.293825362
2.21828	17668996.078662887
2.22032	17520593.204580065
2.22235	17351665.27273922
2.22438	16997626.285082866
2.22641	16015971.748311674
2.22843	14912160.830337858
2.23046	13951184.141561078
2.23248	13360170.1676428
2.2345	13210234.265073668
2.23651	13085605.471803823
2.23853	12922832.318368807
2.24054	12151689.23580622
2.24255	11254807.853916043
2.24456	10317855.35138295
2.24657	10427503.139191482
2.24857	11058999.690063598
2.25057	11975213.669882318
2.25257	12371773.95759839
2.25457	12678273.632545525
2.25656	12929178.839642137
2.25856	13157373.503929723
2.26055	12732611.837717427
2.26254	11935650.495148094
2.26453	10850460.239084896
2.26651	10159744.850940092
2.2685	9827339.283456426
2.27048	10247512.208481513
2.27246	10907185.473096514
2.27443	11531352.339435458
2.27641	11615830.128082013
2.27838	11286404.304369517
2.28036	10784375.61234387
2.28233	10377213.773700073
2.28429	10031862.056426201
2.28626	9702884.047400797
2.28823	9291726.28856846
2.29019	8971270.353881903
2.29215	8717034.742168352
2.29411	8576397.820322903
2.29607	8416933.618349798
2.29802	8243135.758563526
2.29998	8152864.803468315
2.30193	8207046.220100572
2.30388	8425789.70030994
2.30583	8957679.80759698
2.30778	9549726.887903268
2.30972	10193406.64528773
2.31167	10225007.32148512
2.31361	9747791.542608567
2.31555	8189640.783478806
2.31749	6760610.72630725
2.31943	5533755.370765459
2.32137	5329446.204016103
2.32331	5228790.920609502
2.32524	5210768.222461152
2.32718	5149349.280196363
2.32911	5159066.280408736
2.33104	5271954.714617275
2.33297	5364143.838857265
2.3349	5442495.924525483
2.33683	5491614.551245351
2.33876	5517406.117762188
2.34068	5522036.178252053
2.34261	5391470.349711438
2.34453	5270514.0196257485
2.34646	5159104.495232404
2.34838	5310752.0754099
2.3503	5623202.124159046
2.35223	6270984.491637148
2.35415	6876282.174751958
2.35607	7450666.974269685
2.35799	7847996.0593089955
2.35991	8297564.686262899
2.36183	8810181.036217013
2.36375	8671561.674029553
2.36566	8130929.194644067
2.36758	6609136.451450851
2.3695	5344027.114367286
2.37142	4243458.422226021
2.37334	4455523.124041812
2.37526	4634608.727863174
2.37718	4747275.124783013
2.3791	4803468.341527243
2.38101	4906256.863872367
2.38293	5491362.688528235
2.38485	6200838.801037053
2.38677	7037303.523248179
2.3887	7360142.348592999
2.39062	7519077.9315394405
2.39254	7414085.262332134
2.39446	7267751.454024394
2.39639	7094016.735636097
2.39831	7007069.466518989
2.40024	6883068.010310397
2.40216	6687796.746716539
2.40409	6733995.130122063
2.40602	6924788.651710661
2.40795	7655236.56032798
2.40989	8286604.0066090245
2.41182	8788856.775691925
2.41376	9070695.222527834
2.4157	9362489.055474667
2.41764	9920992.640108706
2.41958	10267000.855078733
2.42152	10440232.461069647
2.42347	9794484.654197842
2.42542	9211517.145876497
