#wavelength	surface flux
0.676892	235041.1549981451
0.678297	242492.80856086613
0.679702	249645.35371414112
0.681109	256679.46723672145
0.682517	263737.6311293681
0.683926	270744.1764656881
0.685337	277616.7456555798
0.686749	284494.0136617553
0.688164	291294.9081464539
0.689581	297609.9182383268
0.691	301560.829043673
0.692422	303078.51103448006
0.693847	312487.2593596412
0.695274	323447.81796216115
0.696705	331515.3756975297
0.698139	337683.92440914
0.699576	344100.00711366645
0.701017	349947.2982391372
0.702461	354387.69744231424
0.70391	362605.7539892002
0.705362	370603.59844774246
0.706819	375846.9966152231
0.70828	381169.62683965213
0.709745	386121.3304732272
0.711216	392832.8624096343
0.71269	397748.02572791424
0.71417	401483.06409893924
0.715655	400741.4949799973
0.717145	396208.125492388
0.71864	404828.42861311336
0.72014	408899.3040344867
0.721647	410437.3952719533
0.723158	410045.01113039727
0.724676	406785.4583234663
0.726199	404598.19480444223
0.727728	405721.10712070187
0.729264	398593.2425780087
0.730805	396381.57754139946
0.732353	397364.12000618747
0.733907	390803.258257146
0.735468	384461.0090336532
0.737035	375029.371747133
0.738609	365852.69968615944
0.74019	353362.9932618063
0.741777	334945.1782846167
0.743372	316555.6587194681
0.744973	296977.894197166
0.746582	273143.15420454234
0.748197	246965.6737801506
0.74982	218529.503445172
0.751451	188003.18079113823
0.753088	156351.67243006048
0.754734	124556.94201311163
0.756386	93804.56014419245
0.758047	65600.00150381381
0.759715	41735.40054098659
0.76139	22776.443398598924
0.763074	10041.289672877067
0.764765	3180.617505602597
0.766464	757.464222313228
0.768172	972.8279628982211
0.769887	973.41124569605
0.77161	5767.190775976079
0.773341	18411.254854526454
0.775081	40440.505740888926
0.776829	70210.78731461441
0.778585	92853.99049874982
0.780349	115382.30953434372
0.782121	192996.21316129842
0.783902	262156.6214133968
0.785691	323557.14795929973
0.787489	384919.8418824596
0.789295	444312.6695195785
0.79111	493171.287982131
0.792933	401326.92401935055
0.794764	206401.6540821084
0.796604	562601.9973628307
0.798453	731146.1457064787
0.80031	798886.2211135578
0.802176	856053.5547875074
0.804051	910400.4958297402
0.805934	962697.11173037
0.807826	1009194.6850698073
0.809727	1035943.5193372073
0.811636	1062685.3917552498
0.813554	1102143.1034129148
0.81548	1186800.1145840322
0.817416	1233437.5799441047
0.81936	1274997.7409845397
0.821313	1328204.490876
0.823274	1351175.4536252685
0.825244	1425528.8663649492
0.827223	1468293.7051133502
0.829211	1492042.8063880713
0.831208	1526124.2778086585
0.833213	1584232.854138337
0.835227	1620234.2827555519
0.837249	1638804.4721397124
0.83928	1687237.4502472535
0.841321	1771619.396575915
0.843369	1841043.7476896583
0.845427	1886672.859036046
0.847493	1939423.9856665723
0.849567	1952841.1789332924
0.851651	1889385.0631040179
0.853742	2006286.8817542368
0.855843	2135817.7665761537
0.857952	2193627.536581758
0.86007	2237011.8394212215
0.862196	2221061.9736933475
0.864331	2274037.729071606
0.866474	2340720.719427978
0.868626	2401191.312841595
0.870786	2456804.819723673
0.872955	2510099.757621052
0.875132	2550225.1774649173
0.877317	2604607.5006795707
0.879511	2618157.58052824
0.881713	2648487.4271224355
0.883923	2691805.665478925
0.886142	2725376.871395446
0.888369	2739651.42497394
0.890604	2739974.6260907655
0.892847	2590520.961066628
0.895099	2614868.192358527
0.897358	2800851.904888846
0.899626	2989494.5457856073
0.901901	3095800.2775828675
0.904185	3206917.088666541
0.906476	3240066.710472706
0.908776	3298506.4071790073
0.911083	3401924.399757266
0.913398	3379515.65565445
0.915721	3373316.0519679263
0.918051	3320825.922793295
0.92039	3556483.058438199
0.922736	3584107.917459244
0.925089	3283612.30869908
0.927451	2631426.262652769
0.929819	1988083.2634251195
0.932195	2470347.6319196294
0.934579	2393097.6224448746
0.93697	2647122.8960599406
0.939369	3115157.80865732
0.941774	3176903.313102708
0.944187	2632054.527835168
0.946607	2453075.27769439
0.949035	2974069.7854182124
0.951469	2865345.6220820914
0.953911	3021126.2147439937
0.956359	3663167.040277183
0.958814	2948944.941335992
0.961277	2647723.2117154514
0.963746	2755647.0847690646
0.966222	2866176.452451854
0.968705	2837654.756175755
0.971194	3756796.3618868915
0.97369	4203180.681321042
0.976193	4017126.939523614
0.978702	4330582.234110281
0.981217	4411662.015322863
0.983739	4564742.117260189
0.986268	4651800.729889771
0.988802	4914630.586199389
0.991343	5181299.265849971
0.99389	5232743.747137353
0.996444	5420752.144331131
0.999003	5523618.117614388
1.00157	5570274.314918973
1.00414	5684050.873451711
1.00672	5859440.383374574
1.0093	5995320.214951797
1.01189	6136688.623162767
1.01448	6330164.562410201
1.01708	6432401.411641332
1.01969	6532867.823748369
1.0223	6593199.235284564
1.02492	6563329.46108129
1.02754	6675572.561274504
1.03017	6653968.473667091
1.0328	6987510.522224622
1.03544	7118255.74449828
1.03808	7218469.850023504
1.04073	7319953.503730701
1.04339	7411454.182033711
1.04604	7499088.491998116
1.04871	7541777.142512065
1.05138	7617140.272095727
1.05405	7756875.800144371
1.05673	7875740.404501607
1.05941	7973239.928380822
1.0621	8055669.043721483
1.06479	8139173.3271101015
1.06749	8225705.752168438
1.07019	8235753.391998536
1.07289	8354804.980590529
1.0756	8489076.49975163
1.07832	8548760.034137033
1.08104	8660192.406181272
1.08376	8769396.056835366
1.08649	8793385.84591731
1.08922	8641695.04114547
1.09195	8451092.108241072
1.09469	8325031.320883774
1.09743	8388774.188559173
1.10018	6492208.849916006
1.10293	4862605.697066413
1.10568	3957521.0454312996
1.10844	5941186.213762181
1.1112	5162602.520546843
1.11396	4101013.0795096178
1.11673	4083325.099941165
1.1195	4086293.9752113917
1.12228	3144653.696238408
1.12505	4626888.386109861
1.12783	4612317.919732179
1.13062	4697751.943744935
1.13341	2517998.3724634955
1.1362	4214150.074116578
1.13899	6043307.155283734
1.14178	5409941.6516296035
1.14458	6273140.124766733
1.14738	7176235.783037727
1.15019	4736026.432951832
1.153	2053347.282984856
1.1558	2674192.1301698545
1.15862	2884451.10916522
1.16143	3041759.2625194252
1.16425	4469625.142678675
1.16707	6047103.298788566
1.16989	5057778.31718316
1.17271	5690383.710098699
1.17554	7288018.518065648
1.17837	8480768.51714957
1.1812	8985866.993224401
1.18403	10169097.13980824
1.18686	10051569.632835336
1.1897	10027146.271639444
1.19253	11143637.509200832
1.19537	11668926.268978031
1.19822	11913275.204875598
1.20106	12291586.944899576
1.2039	12148446.783369476
1.20675	12468040.241055967
1.2096	12587577.474951122
1.21245	12582424.188232549
1.2153	13096532.274209898
1.21815	13360779.033776036
1.221	13552481.9132954
1.22385	13799904.733824302
1.22671	14057550.428311031
1.22957	14210657.229098862
1.23242	14233584.043315548
1.23528	14426725.556639228
1.23814	14650268.923229715
1.241	14775385.34564472
1.24387	14904958.856145283
1.24673	15052932.845340375
1.24959	15085288.114880485
1.25245	14953072.61872475
1.25532	15390751.625102483
1.25818	15608222.373219483
1.26105	15566990.514283724
1.26392	15590431.459689764
1.26678	15708001.099042308
1.26965	15741635.869882101
1.27252	15663698.886790028
1.27538	15970177.517302006
1.27825	15977283.51846228
1.28112	15703525.866914103
1.28399	15990121.456806699
1.28686	15821746.061653912
1.28973	15248537.24913005
1.2926	14948223.334485998
1.29546	15436954.866204387
1.29833	15748418.447975717
1.3012	14902762.073941944
1.30407	14792845.774084395
1.30694	14581727.317632437
1.30981	15116544.643834189
1.31267	14509232.664660666
1.31554	15457090.404406292
1.31841	16383371.98919829
1.32128	14941981.306267394
1.32414	12875956.92144976
1.32701	12255633.03460801
1.32987	9918556.699457178
1.33274	5214971.998711718
1.3356	3152255.864423113
1.33847	1055549.8793745157
1.34133	339628.3786705979
1.34419	848810.7838109538
1.34705	1168720.9756080536
1.34991	579377.9017887139
1.35277	247429.8396553446
1.35563	365363.35950363945
1.35849	399715.20437228814
1.36135	172761.2312405757
1.3642	413104.38141594065
1.36706	436281.98820450867
1.36991	339249.9033768361
1.37277	1058412.9227741014
1.37562	2175200.3710234044
1.37847	2547491.274602815
1.38132	943194.8896232225
1.38417	106804.03416861786
1.38701	236060.58086329076
1.38986	184885.4254012925
1.39271	236270.8815656603
1.39555	377370.49419178435
1.39839	278642.78376104933
1.40123	586976.7433494669
1.40407	1131481.7996191247
1.40691	1571175.6100018183
1.40974	767821.5739558138
1.41258	216151.93552451406
1.41541	571598.4911623473
1.41824	732396.5678604234
1.42107	392493.3857487801
1.4239	264468.8703907991
1.42673	624285.2150876911
1.42955	1048101.3617032532
1.43237	700269.5730554386
1.43519	1272803.535811582
1.43801	855640.5255580175
1.44083	1077583.298663634
1.44365	1747811.0797107986
1.44646	1931852.1961573577
1.44927	3782897.489661363
1.45208	4863299.884898353
1.45489	3693847.273285419
1.45769	4694699.443601923
1.4605	5371266.98071032
1.4633	5628547.546662829
1.4661	6080382.292056939
1.4689	4213074.412801792
1.47169	4471111.228028061
1.47449	4264511.957038452
1.47728	4236379.4887299575
1.48007	4308510.977983769
1.48286	6377262.6779453475
1.48564	8052517.54745247
1.48842	7963196.287696393
1.4912	8133644.031106
1.49398	7748051.012027528
1.49676	6712472.407714877
1.49953	8388749.387589477
1.5023	10327165.286072344
1.50507	10284365.442483846
1.50784	9475386.017772418
1.51061	9885603.850913933
1.51337	10748097.068600256
1.51613	11956168.82717203
1.51888	13338889.164013147
1.52164	15534449.012689779
1.52439	16816672.1568107
1.52714	15845924.163853621
1.52989	15477288.824894251
1.53263	16501098.90721194
1.53538	17646720.90562751
1.53812	17963967.47416436
1.54086	18083581.59413188
1.54359	18427280.83770655
1.54632	19569714.453303
1.54905	19636803.856021218
1.55178	20466076.928444173
1.5545	20471648.22066056
1.55723	19941941.891598772
1.55995	20518088.49163809
1.56266	21323760.59970686
1.56538	22329055.285760917
1.56809	22819812.707926217
1.5708	22693084.401459474
1.57351	22031026.972182713
1.57621	21656683.317039564
1.57891	20678582.52472274
1.58161	21729006.117341723
1.5843	23618112.134514604
1.587	24041012.748182584
1.58969	23870412.427591443
1.59238	23545594.09366623
1.59506	22964770.550377782
1.59774	22391299.16411321
1.60042	22216291.973192908
1.6031	22055081.140892327
1.60577	21982442.220253423
1.60844	21981200.631757718
1.61111	21768453.77980063
1.61378	21035543.224625178
1.61644	20333772.26621584
1.6191	19532805.30359914
1.62176	18419362.688099124
1.62441	17319520.733238958
1.62707	16415005.460172283
1.62971	14750935.058077242
1.63236	14115007.134974519
1.635	17123596.05053153
1.63764	21312194.88960832
1.64028	22673474.72940219
1.64292	22315787.571996063
1.64555	20336146.872760516
1.64818	16880369.38670195
1.65081	16580938.422944915
1.65343	19218611.61005973
1.65605	20140346.805163648
1.65867	20428208.146803714
1.66128	19760929.97089321
1.6639	16536060.094295617
1.66651	10339050.679828072
1.66911	9001173.062002892
1.67172	14038661.946932515
1.67432	17902256.927619558
1.67692	17720101.57167839
1.67951	15972322.874894693
1.68211	16096985.96796943
1.6847	16287400.030904453
1.68728	14951900.46756619
1.68987	14242029.419904118
1.69245	13033569.074692797
1.69503	10162184.653790157
1.6976	8618861.209242443
1.70018	10190639.291375507
1.70275	10153062.825248463
1.70531	10767868.841138827
1.70788	12651971.04458705
1.71044	12438916.090254435
1.713	13452896.388334114
1.71556	14458379.084629973
1.71811	15100136.313133722
1.72066	16352800.922249038
1.72321	16026992.049231285
1.72575	15344435.582588889
1.7283	14821752.123996722
1.73084	13890079.99276245
1.73337	12759324.683513852
1.73591	12011072.748923773
1.73844	11899997.026641756
1.74097	12094501.54828652
1.74349	11313542.027881933
1.74602	10186127.46690403
1.74854	9654741.408470912
1.75105	8648910.31714613
1.75357	7196064.869581661
1.75608	8516108.770525634
1.75859	11500584.05257855
1.7611	12589498.812760167
1.7636	11980369.066613646
1.7661	9256568.915001824
1.7686	7147165.3161530895
1.7711	5400462.142334288
1.77359	3762147.3062842363
1.77608	2275427.8148258934
1.77857	1619170.9442998248
1.78105	1972971.156962493
1.78354	2367633.798605551
1.78602	1857410.629687448
1.78849	1374930.3310350552
1.79097	1804865.3023348404
1.79344	2577213.7005506926
1.79591	3610922.897039236
1.79837	4805437.368952812
1.80084	3018284.9636955205
1.8033	1227609.7012654932
1.80576	560610.1342158184
1.80821	382002.39068273583
1.81067	1141773.2844815617
1.81312	1776729.105586619
1.81557	962410.6050604791
1.81801	499725.2634823217
1.82046	1198443.7737972974
1.8229	1815789.955761576
1.82533	1213610.906643901
1.82777	408617.82267744525
1.8302	263587.84804839024
1.83263	517825.01726350945
1.83506	901363.1125974148
1.83749	1474769.4150293425
1.83991	1753602.8377236165
1.84233	1381861.2150000995
1.84475	1267799.796737401
1.84716	1498044.8922575589
1.84957	1966036.7514665953
1.85198	1958781.0701341124
1.85439	1009066.8390996639
1.8568	685628.7291374553
1.8592	892474.3084319553
1.8616	682777.7707479843
1.864	347766.4793864504
1.86639	293635.0940887095
1.86878	461803.4862361655
1.87118	845120.6728467625
1.87356	1339524.9392104386
1.87595	1691120.1423671504
1.87833	2745909.677740778
1.88071	4435506.590227178
1.88309	4295661.986450164
1.88547	3232094.916422919
1.88784	2887627.017001707
1.89021	2652091.041308044
1.89258	4389315.241815076
1.89494	5784829.295233818
1.89731	3699084.7319160467
1.89967	1337085.47632176
1.90203	392437.6886431016
1.90439	342908.59952149936
1.90674	590662.4135551288
1.90909	648140.2413126574
1.91144	415870.21423473186
1.91379	193126.83515219056
1.91613	178987.37921316308
1.91848	330185.9344302687
1.92082	510541.51795874245
1.92315	503020.3542425309
1.92549	365891.79161504976
1.92782	420746.6691987787
1.93015	628163.5058247187
1.93248	808466.510165436
1.93481	845237.0267479806
1.93713	743584.1561178713
1.93945	768418.5301456307
1.94177	1009884.1339077567
1.94409	1199395.1798410348
1.94641	1269436.6409082545
1.94872	1595641.0752892105
1.95103	1970089.7547832802
1.95334	1313031.013693478
1.95564	898912.9667836064
1.95795	1055048.9316785708
1.96025	1109277.2848506805
1.96255	1144712.6908140937
1.96484	1392155.360193966
1.96714	2030547.5297164023
1.96943	2897895.942429312
1.97172	3402555.1303073885
1.97401	3080157.678133509
1.97629	3238673.3262902927
1.97858	4069648.468698437
1.98086	4641636.961494265
1.98314	5320344.636446285
1.98541	5759421.942392967
1.98769	5321653.719476135
1.98996	4167246.8003142527
1.99223	3993675.21247513
1.9945	4833800.924421089
1.99677	4589329.7482127715
1.99903	4493270.432284693
2.00129	5518305.287021168
2.00355	7004031.175434606
2.00581	7894992.855747467
2.00806	8265495.230076516
2.01031	9888974.699428005
2.01256	10617981.289398702
2.01481	9531966.732588679
2.01706	8239991.376925503
2.0193	8143574.801073336
2.02154	9445491.988764724
2.02378	10815073.378347952
2.02602	11219250.618851237
2.02825	11992702.684635138
2.03049	12860312.683498152
2.03272	13595369.093630053
2.03494	14139977.755558541
2.03717	14636251.791663632
2.03939	15424213.421594173
2.04162	16682173.545461906
2.04384	17767758.225221038
2.04605	18912928.22506978
2.04827	19950157.17130132
2.05048	19965722.175557844
2.05269	18414905.796975795
2.0549	17897672.543612774
2.05711	18450617.438398726
2.05931	19463537.67149942
2.06151	20301840.171758063
2.06371	20947024.165506665
2.06591	21396668.419629175
2.06811	21674836.6199087
2.0703	21736249.971394654
2.07249	21546896.62931013
2.07468	21085106.254660822
2.07686	20982593.304008693
2.07905	21197344.7777171
2.08123	21435085.91113481
2.08341	21557882.323752034
2.08559	21603725.64806514
2.08776	21695250.6306457
2.08994	21579850.375945356
2.09211	21277641.466529123
2.09428	20934300.72457853
2.09645	20920169.393404655
2.09861	20838816.049789164
2.10077	20662320.474372674
2.10293	20388187.16748753
2.10509	20030186.164964516
2.10725	19658387.93067101
2.1094	19855634.21387692
2.11155	20068001.62171198
2.1137	20015224.48099897
2.11585	19431802.661556438
2.11799	18991970.051753167
2.12013	18786950.884178516
2.12227	18780552.280312896
2.12441	18916149.469627395
2.12655	19007281.403789874
2.12868	18959489.084686678
2.13081	18921282.68325594
2.13294	18875785.566534616
2.13507	18477247.893009916
2.13719	17790906.39087426
2.13931	17220036.193298373
2.14143	16738348.336708125
2.14355	15976572.825908858
2.14567	15536295.618567917
2.14778	15220746.533552978
2.14989	14885837.5765401
2.152	14245626.240068516
2.1541	14419212.077034205
2.15621	14662389.410583414
2.15831	14661497.47807445
2.16041	13798219.938943619
2.16251	13350281.230274241
2.1646	13063415.611071924
2.1667	12908875.485638505
2.16879	13059675.655669155
2.17087	13227868.65325272
2.17296	13316723.173576342
2.17504	13271583.425722672
2.17713	12984856.552821485
2.1792	12510338.260324115
2.18128	11918442.682342846
2.18336	11272552.534794003
2.18543	10634202.821361778
2.1875	9985620.989582503
2.18957	9256251.590627419
2.19163	8153576.01471972
2.1937	6635379.68460241
2.19576	5116740.5951555045
2.19782	3791516.170975303
2.19987	3135041.699567387
2.20193	2784703.055478655
2.20398	2687443.070231165
2.20603	2756070.456055992
2.20808	2977658.873178455
2.21012	3275097.369891985
2.21217	3630010.9891109
2.21421	3807011.484130693
2.21625	3774409.835935516
2.21828	3557884.3849364985
2.22032	3431595.319685005
2.22235	3344145.1113021937
2.22438	3214975.947999355
2.22641	2860761.90400729
2.22843	2464796.28524097
2.23046	2121456.3119861796
2.23248	1912393.7831899845
2.2345	1846681.578634434
2.23651	1796742.155258434
2.23853	1743990.8863598097
2.24054	1554732.09563671
2.24255	1333105.2639105616
2.24456	1099753.2615902917
2.24657	1117989.176481609
2.24857	1276909.8598461752
2.25057	1512688.283551024
2.25257	1609395.6516756692
2.25457	1688622.0001232557
2.25656	1759039.74469591
2.25856	1835679.6512574477
2.26055	1744753.7288759942
2.26254	1568212.9234384857
2.26453	1358154.21625787
2.26651	1235340.2381679264
2.2685	1187340.826990111
2.27048	1287840.1188514242
2.27246	1436073.1094257215
2.27443	1575036.3380602421
2.27641	1597925.0117523754
2.27838	1533342.5427617868
2.28036	1433844.0341651167
2.28233	1361418.534653597
2.28429	1299584.1591037696
2.28626	1239720.2708326175
2.28823	1160646.4279077859
2.29019	1124091.666850487
2.29215	1120136.772944699
2.29411	1182841.830404775
2.29607	1240965.165088949
2.29802	1295016.0002609973
2.29998	1352380.1058928887
2.30193	1499845.5158294444
2.30388	1750618.3295522262
2.30583	2260052.7815154255
2.30778	2769627.3598748227
2.30972	3237531.762137967
2.31167	3206232.9733433854
2.31361	2886008.1141092293
2.31555	2056146.2775931535
2.31749	1417129.5854226933
2.31943	928172.9774494919
2.32137	896849.5304494902
2.32331	896353.2250654409
2.32524	920280.4829461284
2.32718	903037.8327849417
2.32911	894129.652731642
2.33104	898051.2956329011
2.33297	888910.0152325343
2.3349	874179.624634832
2.33683	850764.4685009911
2.33876	825959.6055983839
2.34068	798612.9998309158
2.34261	741694.5145289822
2.34453	689585.2301421172
2.34646	642347.3814102261
2.34838	677292.3005148042
2.3503	756644.6668198425
2.35223	924912.7802734578
2.35415	1089743.0936406767
2.35607	1250123.0030273527
2.35799	1362543.888555855
2.35991	1470734.6108950363
2.36183	1573819.963867775
2.36375	1515084.805311628
2.36566	1374254.671827893
2.36758	1050731.3816834495
2.3695	784922.5150377724
2.37142	556110.0737118628
2.37334	581891.6590489849
2.37526	628193.2215026668
2.37718	706473.1574519754
2.3791	783564.662050824
2.38101	865794.8164319448
2.38293	992028.2522667162
2.38485	1111284.029713658
2.38677	1223415.2507014205
2.3887	1208637.9464374161
2.39062	1175065.770951034
2.39254	1141500.894342942
2.39446	1157825.129649095
2.39639	1206381.1505005374
2.39831	1266982.0422563124
2.40024	1295395.7265751867
2.40216	1262362.1453735973
2.40409	1287595.5988200412
2.40602	1351778.978417906
2.40795	1594703.0413899855
2.40989	1809777.1587212558
2.41182	1988126.927766438
2.41376	2072929.0357535665
2.4157	2159451.913410246
2.41764	2347998.8110754834
2.41958	2472205.0999407396
2.42152	2544097.062024719
2.42347	2312250.893471755
2.42542	2128714.7963856356
