#wavelength	surface flux
0.7	95577.772363051
0.7001166666666666	95870.67367151611
0.7002333527777778	95938.84349542782
0.700350058336574	96007.02468097681
0.7004667833462966	96075.21723005665
0.7005835278101878	96143.42114456152
0.7007002917314895	96211.63642638536
0.7008170751134447	96279.86307742282
0.7009338779592968	96348.10109956877
0.7010507002722901	96209.69234293618
0.7011675420556689	95819.77128669221
0.701284403312678	95429.78524360617
0.7014012840465635	95039.73420284572
0.7015181842605713	94649.61815357856
0.701635103957948	94259.43708497012
0.701752043141941	93869.19098618365
0.701869001815798	93478.87984638015
0.7019859799827672	93338.16622270508
0.7021029776460976	93371.18023614268
0.7022199948090387	93404.1997519159
0.7023370314748403	93437.22477094173
0.7024540876467528	93470.25529413739
0.702571163328027	93503.2913224202
0.7026882585219152	93536.33285670781
0.7028053732316688	93569.37989791775
0.7029225074605406	94102.88052089019
0.7030396612117841	94829.71601311018
0.7031568344886527	95556.67264457901
0.7032740272944008	96283.75043548594
0.7033912396322832	97010.94940602509
0.7035084715055552	97738.26957639192
0.7036257229174727	98465.71096678742
0.7037429938712924	99193.27359741533
0.7038602843702709	99716.53588868146
0.7039775944176659	100205.21399107948
0.7040949240167356	100693.97353982809
0.7042122731707383	101182.81454850124
0.7043296418829335	101671.7370306761
0.7044470301565806	102160.74099993125
0.70456443799494	102649.82646984757
0.7046818654012724	103138.99345400916
0.7047993123788394	103395.15596338913
0.7049167789309024	103651.09368998841
0.7050342650607243	103907.07407287585
0.7051517707715678	104163.09711916033
0.7052692960666963	104419.16283595239
0.705386840949374	104675.2712303638
0.7055044054228656	104931.42230950804
0.7056219894904361	105127.40505881632
0.7057395931553511	104940.7858388771
0.705857216420877	104754.1355157344
0.7059748592902804	104567.4540842046
0.7060925217668288	104380.7415391027
0.70621020385379	104193.99787524331
0.7063279055544321	104007.22308744019
0.7064456268720246	103820.41717050548
0.7065633678098366	103700.55427666218
0.7066811283711383	103765.11946331705
0.7067989085592001	103829.69541083637
0.7069167083772933	103894.28212101356
0.7070345278286895	103958.8795956425
0.707152366916661	104023.48783651722
0.7072702256444803	104088.106845432
0.7073881040154211	104152.7366241817
0.7075060020327569	104347.05724723173
0.7076239196997625	104730.26948915128
0.7077418570197124	105113.54559977743
0.7078598139958823	105496.88558975531
0.7079777906315483	105880.28946973191
0.7080957869299869	106263.75725035487
0.7082138028944751	106647.2889422744
0.7083318385282908	107030.88455614288
0.7084498938347124	106931.90872071958
0.708567968817018	106423.72825079663
0.7086860634784875	105915.46308412809
0.7088041778224007	105407.11320659803
0.7089223118520377	104898.67860408907
0.7090404655706796	104390.15926247997
0.709158638981608	103881.55516764667
0.709276832088105	103372.86630546415
0.7093950448934531	103506.60038871548
0.7095132774009353	103946.77562733064
0.7096315296138355	104387.02422848575
0.7097498015354378	104827.3462044076
0.7098680931690269	105267.741567325
0.7099864045178884	105708.21032947012
0.7101047355853081	106148.7525030755
0.7102230863745722	106589.36810037619
0.7103414568889679	106957.92210508884
0.7104598471317828	107310.14675748756
0.7105782571063047	107662.43011399472
0.7106966868158224	108014.77218439463
0.710815136263625	108367.17297847287
0.7109336054530023	108719.632506017
0.7110520943872445	109072.15077681562
0.7111706030696424	109424.72780065956
0.7112891315034873	109433.01999209417
0.7114076796920712	109424.8839409344
0.7115262476386865	109416.7465337661
0.7116448353466263	109408.60777036328
0.711763442819184	109400.4676504999
0.711882070059654	109392.32617394986
0.7120007170713306	109384.18334048706
0.7121193838575091	109379.12018217496
0.7122380704214853	109406.19055812016
0.7123567767665555	109433.26544579466
0.7124755028960166	109460.34484595046
0.7125942488131658	109487.42875933959
0.7127130145213015	109514.51718671435
0.7128318000237216	109541.61012882694
0.7129506053237256	109568.70758642991
0.7130694304246129	109581.99828575818
0.7131882753296837	109547.00211903766
0.7133071400422386	109512.00011962267
0.7134260245655789	109476.99228654114
0.7135449289030065	109441.97861882074
0.7136638530578235	109406.95911548908
0.7137827970333332	109371.93377557347
0.7139017608328388	109336.90259810124
0.7140207444596443	109288.7015227698
0.7141397479170543	109217.00903859259
0.7142587712083737	109145.30460566809
0.7143778143369084	109073.58822200474
0.7144968773059646	109001.85988561074
0.7146159601188489	108930.11959449404
0.7147350627788687	108858.36734666215
0.7148541852893318	108786.60314012232
0.7149733276535467	108506.23831833212
0.7150924898748222	108015.49063205077
0.715211671956468	107524.66115448826
0.7153308739017941	107033.74987201246
0.715450095714111	106542.7567709898
0.71556933739673	106051.68183778357
0.7156885989529628	105560.5250587552
0.7158078803861218	105069.28642026294
0.7159271816995193	103792.79637560622
0.7160465028964692	102055.24805221993
0.7161658439802853	100317.41013744647
0.7162852049542819	98579.28258302087
0.7164045858217744	96840.86534066848
0.716523986586078	95102.15836210975
0.7166434072505089	93363.16159905547
0.716762847818384	91623.87500320672
0.7168823082930204	90813.96543294698
0.7170017886777359	90277.42492541893
0.7171212889758488	89740.79499447333
0.7172408091906781	89204.07562520573
0.7173603493255433	88667.26680270975
0.7174799093837642	88130.368512077
0.7175994893686615	87593.38073839557
0.7177190892835562	87056.30346675211
0.7178387091317702	89066.86621664486
0.7179583489166254	91333.51246893262
0.7180780086414448	93600.53649559751
0.7181976883095517	95867.93835960011
0.7183173879242699	98135.7181239136
0.718437107488924	100403.87585152166
0.7185568470068389	102672.41160541851
0.7186766064813399	104841.43737830913
0.7187963859157535	104513.40276337057
0.7189161853134061	104185.31347599623
0.719036004677625	103857.16950707394
0.7191558440117378	103528.97084749037
0.7192757033190732	103200.71748812975
0.7193955826029597	102872.40941987629
0.7195154818667269	102544.04663361117
0.7196354011137046	102158.37213717536
0.7197553403472235	101509.01197701019
0.7198752995706147	100859.54359015194
0.7199952787872098	100209.96695856209
0.720115278000341	99560.28206420034
0.7202352972133411	98910.48888902277
0.7203553364295432	98260.58741498366
0.7204753956522815	97610.57762403128
0.7205954748848902	97328.35794232681
0.7207155741307044	97857.16979307802
0.7208356933930594	98386.06977913674
0.7209558326752915	98915.05791519329
0.7210759919807375	99444.13421593986
0.7211961713127342	99973.29869606922
0.7213163706746197	100502.55137027944
0.7214365900697322	101031.89225326815
0.7215568295014103	101002.16471158864
0.721677088972994	100305.26413689026
0.7217973684878227	99608.24741209725
0.7219176680492374	98911.11451784927
0.7220379876605789	98213.86543478603
0.722158327325189	97516.500143542
0.7222786870464099	96819.0186247498
0.7223990668275843	96121.42085903752
0.7225194666720555	95560.08416464797
0.7226398865831676	95095.30794750279
0.7227603265642646	94630.45426765586
0.722880786618692	94165.52311219463
0.7230012667497951	93700.5144682078
0.7231217669609201	93235.42832278025
0.7232422872554135	92770.26466299554
0.7233628276366229	92305.02347593338
0.7234833881078956	92648.82296322723
0.7236039686725803	93299.87071118144
0.7237245693340255	93951.0269670926
0.7238451900955812	94602.29174904764
0.7239658309605971	95253.66507513224
0.7240864919324239	95905.1469634387
0.7242071730144127	96556.73743205993
0.724327874209915	97208.43649909123
0.7244485955222832	95436.8370547125
0.7245693369548704	93264.25244929608
0.7246900985110294	91091.30574644862
0.7248108801941148	88917.99688581159
0.7249316820074803	86744.32580703839
0.7250525039544815	84570.29244974851
0.7251733460384739	82395.89675356541
0.7252942082628137	80226.49526377904
0.7254150906308574	81160.5191963446
0.7255359931459625	82094.69879956567
0.7256569158114868	83029.03409938757
0.7257778586307888	83963.5251217599
0.7258988216072273	84898.17189263568
0.7260198047441617	85832.97443797225
0.7261408080449525	86767.93278373465
0.72626183151296	87582.19665296462
0.7263828751515454	87593.47663137173
0.7265039389640706	87604.75848977524
0.726625022953898	87616.04222848848
0.7267461271243904	87627.32784782487
0.7268672514789111	87638.6153480978
0.7269883960208241	87649.90472962076
0.7271095607534942	87661.1959927073
0.7272307456802866	87653.1242949365
0.7273519508045666	87592.74213750464
0.7274731761297006	87532.34991637991
0.7275944216590555	87471.94762988499
0.7277156873959987	87411.53527634231
0.7278369733438982	87351.11285407393
0.727958279506122	87290.68036140202
0.7280796058860397	87230.23779664791
0.7282009524870207	86772.54894321325
0.7283223193124353	85727.2272102629
0.7284437063656539	84681.73125702588
0.7285651136500483	83636.0610544616
0.7286865411689898	82590.2165735324
0.7288079889258514	81544.19778518716
0.7289294569240056	80498.0046603796
0.7290509451668262	79451.63717005005
0.7291724536576875	78688.36684062859
0.7292939823999636	78159.6902767503
0.7294155313970303	77630.9256001103
0.7295371006522632	77102.07279602435
0.7296586901690385	76573.13184980479
0.7297802999507332	76044.1027467611
0.7299019300007252	75514.98547219887
0.7300235803223919	74985.78001142564
0.7301452509191123	75101.23369356012
0.7302669417942654	75514.3022943932
0.7303886529512311	75927.43973999322
0.7305103843933897	76340.64604183428
0.7306321361241218	76753.92121139198
0.7307539081468093	77167.26526014536
0.7308757004648336	77580.67819957263
0.7309975130815778	77994.16004115698
0.7311193460004248	78851.48865081233
0.7312411992247582	79809.42578952857
0.7313630727579622	80767.52258443438
0.7314849666034219	81725.77906214031
0.7316068807645224	82684.1952492586
0.7317288152446498	83642.77117240852
0.7318507700471907	84601.5068582128
0.7319727451755319	85560.40233329768
0.732094740633061	85111.55032746425
0.7322167564231665	84599.23908057473
0.7323387925492371	84086.84244847736
0.7324608490146619	83574.36041694146
0.732582925822831	83061.7929717335
0.7327050229771347	82549.1400986186
0.7328271404809642	82036.40178335767
0.7329492783377112	81505.23884853291
0.7330714365507675	80793.6940040925
0.7331936151235259	80082.03056884484
0.7333158140593796	79370.24852302547
0.7334380333617229	78658.34784686402
0.7335602730339499	77946.32852058957
0.7336825330794556	77234.19052442725
0.7338048135016354	76521.93383860028
0.7339271143038857	76120.55280576396
0.734049435489603	76761.14924041036
0.7341717770621846	77401.85244112933
0.7342941390250283	78042.66242571475
0.7344165213815324	78683.57921196402
0.734538924135096	79324.6028176786
0.7346613472891185	79965.73326065998
0.734783790847	80606.9705587154
0.7349062548121412	80714.40035394792
0.7350287391879431	79878.13258962819
0.7351512439778078	79041.72544734602
0.7352737691851374	78205.17890387449
0.735396314813335	77368.4929359783
0.7355188808658037	76531.66752042218
0.7356414673459482	75694.70263396177
0.7357640742571725	74857.59825335418
0.7358867016028818	74353.9453782351
0.7360093493864824	74179.65977942229
0.7361320176113801	74005.34513300993
0.736254706280982	73831.00143415648
0.7363774153986956	73656.62867801968
0.7365001449679286	73482.22685975721
0.7366228949920899	73307.79597452488
0.7367456654745885	73133.33601747834
0.7368684564188344	73047.65351646439
0.7369912678282374	73012.14831576205
0.7371140997062088	72976.63719752624
0.7372369520561599	72941.1201607707
0.7373598248815024	72905.59720450912
0.7374827181856494	72870.06832775477
0.7376056319720137	72834.53352952094
0.7377285662440091	72798.99280882074
0.7378515210050496	72603.15796132389
0.7379744962585505	72359.06463050423
0.738097492007927	72114.93061746283
0.7382205082565949	71870.75591541942
0.738343545007971	71626.54051759237
0.7384666022654723	71382.28441719877
0.7385896800325165	71137.98760745548
0.7387127783125219	70893.65008157691
0.7388358971089073	70846.12992694092
0.7389590364250921	70818.3472077385
0.7390821962644963	70790.55985808284
0.7392053766305403	70762.76787720228
0.7393285775266454	70734.9712643249
0.7394517989562333	70707.17001867866
0.7395750409227259	70679.36413949153
0.7396983034295463	70637.19190656224
0.739821586480118	70275.52550810171
0.7399448900778645	69913.79883190882
0.7400682142262109	69552.01186793546
0.740191558928582	69190.16460613515
0.7403149241884034	68828.25703645818
0.7404383100091014	68466.28914885283
0.7405617163941028	68104.26093326643
0.7406851433468352	67688.02016242362
0.7408085908707264	67023.97664745206
0.7409320589692048	66359.82245856164
0.7410555476456997	65695.55757730587
0.7411790569036406	65031.18198523704
0.7413025867464579	64366.69566390268
0.7414261371775823	63702.098594847914
0.7415497082004452	63037.39075961548
0.7416732998184786	62407.41716290869
0.741796912035115	61852.08800576074
0.7419205448537874	61296.66629375339
0.7420441982779297	60741.152011460734
0.742167872310976	60185.54514345383
0.7422915669563612	59629.8456743023
0.7424152822175206	59074.05358857271
0.7425390180978901	58518.16887082918
0.7426627746009065	58204.24157632678
0.7427865517300065	58185.338329568825
0.7429103494886282	58166.431932269734
0.7430341678802096	58147.522383904434
0.7431580069081896	58128.60968394775
0.7432818665760077	58109.69383187436
0.7434057468871037	58090.774827158995
0.7435296478449182	58071.85266927618
0.7436535694528923	57908.81022819934
0.7437775117144678	57647.08801772008
0.7439014746330868	57385.3221868728
0.7440254582121922	57123.51272838682
0.7441494624552276	56861.65963499099
0.7442734873656368	56599.762899412985
0.7443975329468645	56337.82251437884
0.7445215992023557	56075.838472613876
0.7446456861355559	55695.68412598219
0.7447697937499119	55271.951702293176
0.7448939220488703	54848.148656533645
0.7450180710358784	54424.27497693353
0.7451422407143843	54000.3306517201
0.7452664310878367	53576.315669118725
0.7453906421596846	53152.23001735405
0.7455148739333779	52728.07368464727
0.7456391264123667	52316.71850819637
0.7457633996001021	51907.35291002423
0.7458876935000356	51497.919084251655
0.7460120081156189	51088.4170195089
0.7461363434503048	50678.846704421834
0.7462606995075466	50269.20812761522
0.7463850762907978	49859.501277713076
0.7465094738035127	49449.82089910014
0.7466338920491467	49064.85982115115
0.746758331031155	48679.83458302212
0.7468827907529935	48294.74517402053
0.7470072712181189	47909.591583450754
0.7471317724299886	47524.37380061582
0.7472562943920602	47139.091814817344
0.7473808371077922	46753.74561535422
0.7475054005806435	46370.54231878794
0.7476299848140736	46000.8701933671
0.7477545898115426	45631.13645592526
0.7478792155765113	45261.34109619376
0.7480038621124406	44891.48410390261
0.7481285294227926	44521.56546877948
0.7482532175110298	44151.58518055011
0.7483779263806148	43781.54322893989
0.7485026560350116	43408.32883670744
0.7486274064776842	43026.63306779039
0.748752177712097	42644.87368291254
0.7488769697417158	42263.05067146973
0.749001782570006	41881.16402285882
0.7491266162004343	41499.213726473245
0.7492514706364677	41117.19977170477
0.7493763458815739	40735.122147943446
0.7495012419392209	40341.953080803556
0.7496261588128773	39932.86476088563
0.7497510965060128	39523.70825958077
0.7498760550220971	39114.48356552584
0.7500010343646007	38705.19066735517
0.7501260345369949	38295.829553701275
0.750251055542751	37886.400213195564
0.7503760973853414	37476.90263446618
0.7505011600682389	37064.03103937865
0.750626243594917	36648.33039270153
0.7507513479688495	36232.56046258392
0.7508764731935109	35816.72123747782
0.7510016192723765	35400.8127058341
0.7511267862089218	34984.83485610215
0.7512519740066232	34568.78767672843
0.7513771826689577	34152.67115615792
0.7515024121994025	33741.632848948546
0.7516276626014359	33332.926119954034
0.751752933878536	32924.15127317208
0.7518782260341824	32515.308297248852
0.7520035390718548	32106.397180829455
0.7521288729950334	31697.417912557536
0.7522542278071992	31288.370481074206
0.7523796035118337	30879.254875018763
0.7525050001124189	30477.933679592406
0.7526304176124378	30078.255536209632
0.7527558560153731	29678.51077980347
0.752881315324709	29278.699399270852
0.7530067955439299	28878.821383508002
0.7531322966765205	28478.876721409728
0.7532578187259665	28078.865401867646
0.7533833616957542	27678.787413772323
0.75350892558937	27296.690104686313
0.7536345104103016	26915.37775109969
0.7537601161620366	26534.00184545434
0.7538857428480638	26152.562377157676
0.7540113904718717	25771.05933561679
0.7541370590369503	25389.492710235725
0.7542627485467898	25007.862490416865
0.7543884590048808	24627.0279672068
0.7545141904147151	24254.699024951457
0.7546399427797842	23882.30802787301
0.7547657161035808	23509.85496562832
0.754891510389598	23137.339827873282
0.7550173256413296	22764.7626042618
0.7551431618622698	22392.12328444647
0.7552690190559135	22019.42185807792
0.7553948972257561	21649.16216152769
0.7555207963752938	21287.24522582347
0.755646716508023	20925.26797063017
0.755772657627441	20563.230385894218
0.7558986197370455	20201.132461560752
0.756024602840335	19838.974187573327
0.7561506069408084	19476.755553873572
0.7562766320419653	19114.476550401207
0.7564026781473054	18755.16172941274
0.75652874526033	18401.109445369497
0.7566548333845401	18046.998152612065
0.7567809425234375	17692.827841305963
0.7569070726805247	17338.598501614848
0.7570332238593047	16984.3101237005
0.7571593960632813	16629.962697722825
0.7572855892959586	16275.556213840806
0.7574118035608413	15941.031383214065
0.7575380388614347	15625.959456579198
0.7576642952012449	15310.835017956439
0.7577905725837782	14995.658058594365
0.7579168710125422	14680.428569738502
0.7580431904910444	14365.146542634378
0.7581695310227928	14049.811968526135
0.7582958926112967	13734.424838655144
0.7584222752600652	13428.71446150016
0.7585486789726085	13128.54225405728
0.7586751037524372	12828.320017913047
0.7588015496030628	12528.04774472887
0.7589280165279966	12227.725426166424
0.7590545045307512	11927.353053884217
0.7591810136148396	11626.93061953997
0.7593075437837755	11326.458114789557
0.7594340950410726	11046.455650177211
0.7595606673902461	10772.36015543421
0.7596872608348112	10498.218978108474
0.7598138753782836	10224.032110586822
0.75994051102418	9949.79954525366
0.7600671677760173	9675.521274493154
0.7601938456373134	9401.197290687312
0.7603205446115863	9126.82758621766
0.7604472647023548	8870.126185331093
0.7605740059131385	8615.142773529167
0.7607007682474575	8360.116864491692
0.7608275517088319	8105.04845113661
0.7609543563007835	7849.937526378736
0.7610811820268336	7594.784083133556
0.7612080288905045	7339.588114314992
0.7613348968953197	7085.073970644318
0.7614617860448022	6845.379630796984
0.7615886963424764	6605.645341892681
0.7617156277918667	6365.871097273794
0.7618425803964988	6126.056890280605
0.7619695541598982	5886.202714252981
0.7620965490855914	5646.308562529531
0.7622235651771058	5406.374428447181
0.7623506024379685	5173.171055216992
0.7624776608717082	4969.605750543305
0.7626047404818536	4766.006518318829
0.7627318412719337	4562.373352889333
0.762858963245479	4358.7062485988035
0.7629861064060198	4155.005199790874
0.7631132707570876	3951.2702008079323
0.7632404563022137	3747.501245992009
0.7633676630449308	3552.09433207902
0.7634948909887717	3374.5271518108534
0.7636221401372697	3196.9303770128727
0.7637494104939593	3019.3040027522584
0.7638767020623748	2841.6480240961905
0.7640040148460518	2663.962436110144
0.7641313488485262	2486.2472338594403
0.7642587040733344	2308.502412408159
0.7643860805240132	2140.2089048448292
0.7645134782041005	1983.2009495342731
0.7646408971171346	1826.1668262311
0.764768337266654	1669.1065305741006
0.7648957986561985	1512.0200582011075
0.7650232812893079	1354.9074047494064
0.7651507851695227	1197.7685658554617
0.7652783103003843	1040.6035371550543
0.7654058566854343	923.0370967363214
0.7655334243282153	832.4563872307324
