#wavelength	surface flux
0.428837	8624.932259606225
0.43312537	16535.83277849691
0.43745662370000005	18932.390922727725
0.4418311899370001	21598.110953818523
0.44624950183637	24543.135321358255
0.4507119968547338	27328.220533927084
0.45521911682328114	29711.068984142414
0.4597713079915139	34287.006378153616
0.4643690210714291	38163.795236408325
0.4690127112821433	41833.6624983936
0.47370283839496474	45660.070213933075
0.47843986677891437	48990.613618221156
0.48322426544670355	52329.392186807905
0.48805650810117057	55370.6633519589
0.4929370731821824	57519.814931912886
0.49786644391400414	58188.81710366793
0.5028451083531442	58307.235005444374
0.5078735594366757	56470.000374757255
0.5129522950310424	52174.22667402352
0.5180818179813528	46592.93472091439
0.5232626361611664	43566.75262134766
0.5284952625227781	37029.49934190959
0.5337802151480058	29740.753826916312
0.5391180172994858	22890.30777312612
0.5445091974724807	16771.139113669815
0.5499542894472055	11795.986615627822
0.5554538323416777	7945.456912553428
0.5610083706650945	5060.915306826702
0.5666184543717453	2955.479585312044
0.5722846389154628	1500.2830422332524
0.5780074853046174	594.4572821999119
0.5837875601576636	146.65595046832948
0.5896254357592402	12.73450946437589
0.5955216901168326	267.50810729004985
0.6014769070180009	1205.2934337426311
0.607491676088181	3463.276177617854
0.6135665928490629	7814.959846011144
0.6197022587775535	15201.089559054173
0.625899281365329	26792.204643549547
0.6321582741789823	43939.19829497638
0.6384798569207721	68263.97012482336
0.6448646554899798	100629.72889222318
0.6513133020448797	143932.6901982076
0.6578264350653285	196170.03641867402
0.6644046994159818	258808.5440994443
0.6710487464101416	200699.4305169401
0.677759233874243	416416.4927582927
0.6845368262129854	508936.0266701793
0.6913821944751153	565482.0982335703
0.6982960164198664	660301.0334888854
0.7052789765840651	712897.9807809863
0.7123317663499058	730450.6632550614
0.7194550840134049	663011.3050664099
0.7266496348535388	578503.411379927
0.7339161312020743	477400.23262902297
0.741255292514095	352951.97748353495
0.748667845439236	214009.43553751835
0.7561545238936284	89978.9311172913
0.7637160691325647	12347.4910468657
0.7713532298238903	9930.309077391245
0.7790667621221293	97584.00598732127
0.7868574297433505	335888.9016356997
0.7947260040407841	355321.13574654603
0.8026732640811919	1149089.3271102072
0.8106999967220039	1577202.97654601
0.8188069966892239	2300663.056249979
0.8269950666561161	3133387.527140187
0.8352650173226772	3822622.3424439114
0.8436176674959041	5026205.882876487
0.852053844170863	4974662.949292945
0.8605743826125718	7192234.964587322
0.8691801264386976	7969023.015688136
0.8778719277030844	8816469.57046353
0.8866506469801153	9657875.74647857
0.8955171534499164	7443964.359297821
0.9044723249844157	12283188.610903487
0.9135170482342599	12936050.274084529
0.9226522187166025	12489978.311528618
0.9318787409037684	3697528.661679419
0.941197528312806	6027229.2398869665
0.9506095035959342	4648682.125686711
0.9601155986318936	4029274.8971091453
0.9697167546182125	4846494.729830321
0.9794139221643946	9708177.91969363
0.9892080613860387	13734760.142957188
0.9991001419998989	17067160.814826623
1.0090911434198981	20521327.84950755
1.019182054854097	26380279.933649685
1.0293738754026378	24148179.382795423
1.0396676141566643	31657244.9620317
1.050064290298231	31765827.99125386
1.0605649332012133	35494372.57859094
1.0711705825332256	35087108.5963045
1.0818822883585577	37333805.83066445
1.0927011112421434	25717827.538392056
1.1036281223545648	4594264.495417151
1.1146644035781104	3622309.481242258
1.1258110476138916	3397748.3657276863
1.1370691580900303	4603506.5650282325
1.1484398496709307	6577228.9080411885
1.1599242481676402	1620828.4548363425
1.1715234906493166	4318546.651518361
1.1832387255558097	16169386.878074111
1.1950711128113678	27211676.42082215
1.2070218239394814	31291329.020760503
1.2190920421788762	41308157.174386725
1.2312829626006652	48679761.36153682
1.2435957922266716	52895135.484076716
1.2560317501489384	53826427.599595584
1.2685920676504279	51562075.387505986
1.281277988326932	48012349.744035445
1.2940907682102014	37120743.153448
1.3070316758923035	30196910.390530813
1.3201019926512265	31977019.467693012
1.3333030125777388	4458232.1250662515
1.3466360427035162	463514.6202720511
1.3601024031305513	130278.72473927
1.373703427161857	673395.9751536318
1.3874404614334754	89454.2785215069
1.4013148660478103	333557.2036616606
1.4153280147082883	252726.65786594787
1.4294812948553712	391036.2360184462
1.443776107803925	859174.7667930668
1.4582138688819641	2686888.7005648944
1.4727960075707838	2412020.2318187775
1.4875239676464918	4937044.218691849
1.5023992073229566	6563867.627882385
1.5174231993961862	9885815.243061872
1.532597431390148	15269500.30063988
1.5479234057040496	20486600.313559458
1.5634026397610903	24152784.798571862
1.579036666158701	24220408.096850302
1.594827032820288	33332286.6768948
1.610775303148491	31579458.672042266
1.6268830561799759	27260105.380201004
1.6431518867417756	42949376.959951565
1.6595834056091934	34878311.72048041
1.6761792396652853	32472956.108853195
1.6929410320619382	17469671.453840706
1.7098704423825577	14759705.587084016
1.7269691468063835	16008096.143841153
1.744238838274447	8034908.550563965
1.7616812266571917	9632724.406279149
1.7792980389237634	1306493.2347820697
1.7970910193130012	2318088.497201533
1.815061929506131	617701.600902854
1.8332125488011928	408469.57281180687
1.8515446742892046	920841.2263414378
1.8700601210320964	429382.2974996456
1.8887607222424174	2286956.838111424
1.9076483294648416	254022.77339882072
1.92672481275949	287669.70759765315
1.9459920608870853	927633.3785776413
1.9654519814959561	1231534.260838753
1.9851065013109155	3874982.446097677
2.0049575663240247	5671666.601437621
2.025007141987265	9436788.885970484
2.0452572134071376	18235960.34283421
2.065709785541209	23849922.935781024
2.086366883396621	26813081.10492085
2.107230552230587	25260966.709659796
2.1283028577528933	26497108.495440427
2.1495858863304225	19229949.205172505
2.1710817451937263	16109869.476435782
2.1927925626456637	7575011.971140385
2.2147204882721203	3032858.1570124323
2.2368676931548412	1201338.1273752607
2.25923637008639	1145915.489311766
2.281828733787254	908348.6501571247
2.3046470211251266	1314209.8742176443
2.327693491336378	559567.2627029603
2.3509704262497415	542092.76186815
2.374480130512239	427667.76613368606
2.3982249318173614	791432.3751469856
2.4222071811355352	1620590.482943148
2.4464292529468903	1695170.6857067463
2.4708935454763594	1221456.2091067983
2.4956024809311232	571688.5847259365
2.5205585057404343	216674.54985547668
2.5457640907978387	443034.19236301415
2.5712217317058172	132184.7562431291
2.5969339490228753	89455.214894652
2.622903288513104	343156.34696557524
2.6491323213982354	572192.2763233455
2.6756236446122177	40561.97282026425
2.7023798810583397	254950.90873529948
2.729403679868923	820652.8953182708
2.7566977166676123	254980.72073027602
2.7842646938342885	200519.6965667151
2.812107340772631	264185.08252992295
2.8402284141803578	654031.1796851178
2.8686306983221614	410925.7519090245
2.897317005305383	583405.8452758362
2.926290175358437	1471780.1430387534
2.9555530771120213	1750159.872326723
2.9851086078831415	1854430.4679546356
3.014959693961973	2233644.788484124
3.0451092909015927	1952770.4101008265
3.0755603838106085	2088882.6349027122
3.1063159876487147	1290137.1462322003
3.137379147525202	865825.5037843921
3.168752939000454	561729.6422904895
3.200440468390459	424129.29320778756
3.232444873074363	271618.1091811605
3.264769321805107	828983.2882039086
3.297417015023158	840738.3742134275
3.330391185173389	145217.974614884
3.3636950970251234	633711.1195984795
3.397332047995375	504149.19350087194
3.4313053684753285	371453.68516401097
3.465618422160081	445062.7458057704
3.5002746063816828	693233.868927409
3.5352773524454997	906987.6362775707
3.570630125969955	1296181.590927918
3.606336427229654	1766066.5599848665
3.6423997915019504	2542916.4146182905
3.67882378941697	3513247.8146589766
3.7156120273111397	3930464.379694551
3.7527681475842516	5154904.411419333
3.7902958290600934	5225048.113403847
3.8281987873506953	7443780.882125945
3.8664807752242023	7690269.812844802
3.905145582976444	8267013.79778114
3.9441970388062084	9715067.048807062
3.983639009194271	9948395.21596725
4.023475399286213	10666473.52411624
4.063710153279075	11174243.933551634
4.1043472548118665	10176827.446962995
4.145390727359985	9151846.21972915
4.186844634633585	8643327.862816567
4.2287130809799205	7452538.31791749
4.27100021178972	6804518.196626257
4.313710213907617	6732044.73163584
4.356847316046694	5371572.392260362
4.40041578920716	4246484.929115918
4.444419947099232	3489970.0115965307
4.488864146570225	3042951.7675534002
4.533752788035927	2674328.88340006
4.579090315916286	2816907.8400402656
4.624881219075449	2780930.9848587355
4.671130031266204	2999204.277509016
4.717841331578866	2609119.032701185
4.765019744894654	2585246.9333170243
4.812669942343601	2649949.422428905
4.8607966417670365	2941427.533966167
4.9094046081847065	2607945.3709570374
4.958498654266554	1672107.9277662758
5.008083640809219	2109717.7018336216
5.058164477217312	2827576.167811059
5.108746121989485	2175585.777465167
5.15983358320938	1515076.300675132
5.211431919041474	1072175.3511346872
5.263546238231889	1485051.549263141
5.316181700614208	1886196.249954091
5.36934351762035	877161.2855197786
5.423036952796553	612878.6680599232
5.4772673223245185	664332.6421094178
5.532039995547764	762947.9777575898
5.587360395503242	518809.5439513731
5.643233999458275	396622.64328570786
5.6996663394528575	379718.80198705045
5.756663002847385	357108.6829498281
5.814229632875859	443518.516153638
5.872371929204618	296566.10373351845
5.931095648496664	381027.08750407706
5.990406604981631	515756.4656368689
6.050310671031448	422265.73156195704
6.110813777741763	623798.8536748528
6.17192191551918	454303.6047918705
6.233641134674372	1266157.499152459
6.295977546021115	1402432.7877744075
6.358937321481327	812592.8747957713
6.42252669469614	241386.02011693674
6.486751961643101	213653.5588165108
6.551619481259532	267311.1702949874
6.617135676072128	231257.9795895207
6.683307032832849	412033.2442800816
6.750140103161177	513356.37576592935
6.81764150419279	509950.6022539777
6.885817919234718	347299.9237812825
6.954676098427065	520927.21196083946
7.024222859411336	296596.5402331484
7.094465088005449	484329.7960262633
7.165409738885503	316697.5807889275
7.237063836274358	351894.5246233648
7.309434474637103	282973.4682663387
7.382528819383473	238695.33651766725
7.456354107577308	230838.00929374364
7.530917648653081	323108.2795826414
7.606226825139612	356115.8763786978
7.682289093391009	177177.48151523236
7.759111984324918	281150.93274452933
7.836703104168168	301163.124264057
7.91507013520985	283384.6342423542
7.994220836561947	337449.33142542094
8.074163044927568	343240.24155354407
8.154904675376844	377274.69985083316
8.23645372213061	441475.452581217
8.318818259351918	490340.9749186387
8.402006441945437	513454.61132517474
8.486026506364892	640342.3837069968
8.57088677142854	683423.7411898788
8.656595639142825	759449.307121488
8.743161595534254	825698.1594334524
8.830593211489598	907513.2504530335
8.918899143604493	883655.023109019
9.00808813504054	912372.858320882
9.098169016390944	1007629.3961892657
9.189150706554853	1049695.4559636752
9.281042213620402	1050522.6565151329
9.373852635756606	940886.262229535
9.467591162114172	1034957.4860531854
9.562267073735315	1165104.335733066
9.657889744472667	994847.8834058911
9.754468641917395	1151798.429168146
9.852013328336568	828859.2548716256
9.950533461619933	1081684.135060763
10.050038796236134	974598.9408977845
10.150539184198495	1066299.0758544197
10.252044576040479	883669.6949648407
10.354565021800884	681776.4186686105
10.458110672018893	714367.2524533538
10.562691778739081	794612.0605521626
10.668318696526473	794344.9612429219
10.775001883491738	780512.635391457
10.882751902326655	651306.596054684
10.991579421349924	475828.70617771905
11.101495215563421	703165.8939536589
11.212510167719055	586257.116754867
11.324635269396246	594544.8571614067
11.43788162209021	650093.8973050576
11.552260438311112	421126.88581696496
11.667783042694223	456479.52369986835
11.784460873121166	443531.83014723926
11.902305481852377	499605.3530563535
12.0213285366709	521597.4249127759
12.14154182203761	550801.0572259434
12.262957240257986	384113.90085218096
12.385586812660566	308197.0543379884
12.509442680787172	305468.48529230064
12.634537107595044	384308.59495669085
12.760882478670995	353385.1868575252
12.888491303457704	331815.0359691632
13.01737621649228	274423.2706173074
13.147549978657205	297857.703084551
13.279025478443776	214110.82410144756
13.411815733228213	208098.82065281388
13.545933890560496	271993.5523528658
13.681393229466101	225184.40126589802
13.818207161760762	258095.8205335426
13.956389233378369	226852.17725065147
14.095953125712155	239876.28989772854
14.236912656969274	207802.43208516683
14.379281783538968	149835.16915682793
14.523074601374358	142327.40357127486
14.6683053473881	192438.2123167867
14.814988400861985	173131.02597662146
14.963138284870602	153215.1413463609
15.11276966771931	170404.87656239764
15.263897364396504	191912.4981698626
15.41653633804047	146007.4052079647
15.570701701420873	108692.21662329091
15.726408718435081	94396.1986157778
15.883672805619431	177485.87114337983
16.042509533675627	120476.05554741071
16.202934629012383	109241.7857778671
16.36496397530251	106651.04187956404
16.528613615055534	99809.82039487813
16.69389975120609	84021.04145474706
16.86083874871815	78227.18505637583
17.02944713620533	100238.7016922954
17.199741607567383	70182.37633800217
17.37173902364306	63968.580185404426
17.54545641387949	69421.1340833788
17.720910978018285	68892.74259350596
17.898120087798468	64877.47754987132
18.077101288676452	68846.43964008239
18.257872301563214	58955.04423062195
18.44045102457885	62482.63274233435
18.62485553482464	53384.45013621555
18.811104090172883	84957.40688439365
18.999215131074614	45969.298685228096
19.189207282385357	47971.91939403523
19.381099355209216	38236.1216785102
19.574910348761303	40713.99474585695
19.77065945224892	42807.27777707044
19.968366046771408	54742.58156852937
20.16804970723912	47024.00143675744
20.369730204311512	37371.87098048415
20.573427506354626	32345.184332785437
20.779161781418175	38994.802318701615
20.98695339923236	29736.111386565124
21.19682293322468	28677.16329077674
21.408791162556927	39003.48140327382
21.622879074182496	27198.829515386726
21.839107864924323	23630.169823505534
22.057498943573567	25045.397426000047
22.278073933009303	28716.169129761376
22.500854672339393	20996.77178550196
22.72586321906279	39290.981233263556
22.953121851253417	19861.705018983703
23.18265306976595	33569.44016065963
23.41447960046361	27353.3033367728
23.648624396468247	16881.301781078044
23.88511064043293	15234.510396258342
24.12396174683726	30803.11422844411
24.365201364305634	28183.07195051515
24.608853377948687	26465.920999560098
24.854941911728176	21252.289957693163
25.103491330845458	12221.929114758206
25.354526244153913	12497.992415890187
25.608071506595454	21415.208409287545
25.864152221661406	16798.61537446517
26.122793743878024	16399.91907861593
26.384021681316803	18100.02932389911
26.64786189812997	9579.865058502368
26.91434051711127	14173.886166933466
27.18348392228238	16576.468132384816
27.455318761505207	20570.129107443347
27.72987194912026	15811.22417377628
28.007170668611465	9105.505969962085
28.28724237529758	7896.688182717111
28.57011479905055	7895.730636851912
28.855815947041062	12587.176720251213
29.144374106511474	8677.27880557262
29.435817847576587	10103.412660577013
29.730176026052348	8463.536463915147
30.027477786312875	10656.241810867425
30.327752564176006	7025.797239258822
30.631030089817763	7755.4209238769445
30.93734039071594	6865.293038121684
31.246713794623105	8562.551771260196
31.559180932569333	9905.028369000798
31.874772741895026	7175.725548855686
32.19352046931398	9276.95071196202
32.51545567400712	9107.115527868329
32.84061023074719	4652.5582846510815
33.169016333054664	5180.299954839777
33.500706496385206	5473.798492842647
33.83571356134906	8966.164061041216
34.17407069696255	5690.452656897209
34.51581140393218	4255.626749123495
34.8609695179715	4994.707111408986
35.209579213151216	4294.113114677043
35.56167500528272	3531.5204694581266
35.917291755335555	3287.142062506926
36.27646467288891	4559.9479592135185
36.639229319617804	4367.470257330122
37.005621612813975	6062.980280069721
37.37567782894212	3387.1638197860416
37.74943460723154	3962.842294316219
38.12692895330385	5485.714133337124
38.5081982428369	4957.959761776842
38.893280225265265	3019.0982481566343
39.28221302751791	2340.3634964193625
39.6750351577931	3803.7182933729373
40.071785509371026	2366.631497442628
40.47250336446474	2358.000798751287
40.87722839810939	2399.9932574714417
41.28600068209048	3791.7979364886255
41.69886068891139	3855.1917428924676
42.1158492958005	3156.306803987459
42.53700778875851	2821.1795068801157
42.962377866646094	2039.5000867538479
43.392001645312554	1922.1419221900853
43.825921661765676	1654.3446797018846
44.264180878383335	1717.1766762586021
44.70682268716717	1701.5425810357988
45.15389091403884	1806.715856101968
45.60542982317923	2366.765299385308
46.06148412141103	1904.661525149888
46.52209896262513	1476.8562441171566
46.98731995225138	1447.8021968778119
47.4571931517739	2079.186729454662
47.93176508329164	1257.8563985168596
48.411082734124555	1824.7683252761456
48.8951935614658	1202.5447908562057
49.38414549708046	1053.4207033305618
49.877986952051266	1120.6384546040792
50.37676682157178	1081.289776882612
50.88053448978749	1043.282417128552
51.38933983468537	1006.5619634134109
51.903233233032225	971.0957041278956
52.422265565362544	936.8369189027331
52.946488221016175	903.7461461890374
53.47595310322633	871.7942076035071
54.010712634258596	840.9326764628921
54.550819760601186	811.131637832861
55.0963279582072	782.3551194862662
55.647291237789275	754.5678517567039
56.20376415016716	727.7417639407028
56.765801791668835	701.838978340795
57.33345980958552	676.8339964232345
57.906794407681375	652.6954265926252
58.48586235175819	629.3921051032016
59.070720975275776	606.9008068670212
59.661428185028534	585.1885614466033
60.25804246687882	564.2354243495099
60.860622891547614	544.0111006447282
61.46922912046309	524.4932100175663
62.083921411667724	505.65929885280457
62.7047606257844	487.4818590442267
63.331808232042235	469.9453145814517
63.965126314362664	453.02257068629143
64.60477757750628	436.69434707556405
65.25082535328136	420.94143418480337
65.90333360681416	405.7415370239524
66.56236694288232	391.0803279705352
67.22799061231113	376.93546038466326
67.90027051843424	363.2908684429574
68.57927322361859	350.1296182406739
69.26506595585477	337.4335196146923
69.95771661541333	325.18958623050617
70.65729378156746	313.3795614927416
71.36386671938313	301.9893663769034
72.07750538657696	291.00478797650436
72.79828044044274	280.41072872840306
73.52626324484716	270.1957458658842
74.26152587729563	260.34437163818944
75.00414113606858	250.84597144376735
75.75418254742928	241.68713824380777
76.51172437290357	232.85564762726375
77.27684161663261	224.34174872207717
78.04961003279894	216.13197602404736
78.83010613312693	208.2184419498222
79.6184071944582	200.58874980065895
80.41459126640278	193.23321872071196
81.2187371790668	186.1433173801138
82.03092455085748	179.30825947640346
82.85123379636605	172.72052488835473
83.6797461343297	166.37023364966817
84.51654359567301	160.24933118384934
85.36170903162974	154.35029219752255
86.21532612194603	148.66414307473246
87.0774793831655	143.18479424777672
87.94825417699715	137.90368914937505
88.82773671876713	132.81439933111963
89.71601408595481	127.91007414908633
90.61317422681435	123.18363938689389
91.5193059690825	118.62980081183349
92.43449902877332	114.24109640800755
93.35884401906105	110.01273046320229
