#wavelength	surface flux
0.6450077295303345	88232.84439041154
0.6472567915916443	92131.3546603528
0.6494921445846558	96484.35490087034
0.6517150402069092	100891.55582929564
0.6539263725280762	105067.27337861742
0.6561272740364075	109317.23776382148
0.6583186388015747	113511.60836763047
0.6605015397071838	118144.47769624209
0.6626768708229065	122708.42395963738
0.6648455858230591	127332.47767601242
0.6670085787773132	131662.93736469166
0.6691668033599854	126655.10177316387
0.6713210344314575	119862.58196384259
0.6734722256660461	145091.6271230769
0.6756211519241333	151823.46148114957
0.6777685880661011	157383.71304949766
0.6799154281616211	162647.80524716765
0.6820623278617859	168121.4188412267
0.6842101216316223	173834.60976419362
0.6863595843315125	179449.57991593872
0.688511312007904	185115.03161977514
0.6906660795211792	189927.1581841681
0.6928245425224304	192833.37201166904
0.6949873566627502	202066.6006700752
0.6971551775932312	209035.7981447801
0.6993286609649658	215033.91223141536
0.7015084028244019	220812.90515768222
0.7036949396133423	227592.72470207606
0.7058889269828796	235255.98691150002
0.7080909013748169	241612.77609270433
0.710301399230957	248399.5928329322
0.712520956993103	255854.42131791922
0.7147500514984131	262069.45942537067
0.7169892191886902	263384.768091639
0.7192389369010925	273554.4081873639
0.7214996814727783	280023.21706853766
0.723771870136261	285825.2489202917
0.7260559797286987	290683.817898353
0.7283523678779602	297713.7657603767
0.7306615710258484	302687.63212534157
0.7329838871955872	312870.1325702717
0.7353196740150452	319226.37608487613
0.7376693487167358	325346.8141269499
0.7400332689285278	332103.5506105996
0.7424117922782898	332931.2376506041
0.7448052167892456	335783.00824174675
0.7472138404846191	333229.6394475215
0.7496379613876343	326217.32124196
0.7520779371261597	310622.62440001225
0.7545340061187744	283483.5625353612
0.7570064663887024	239029.94706967293
0.7594954967498779	174060.3868682192
0.7620013952255249	90779.41259934338
0.7645244002342224	20887.352799559623
0.7670646905899048	2740.53491802816
0.7696225643157959	3433.028228315031
0.7721980810165405	50576.29189172102
0.7747915983200073	158799.59850430055
0.7774031162261963	263249.45444448036
0.7800329327583313	303722.4208668103
0.7826811671257019	415808.21321988234
0.7853479981422424	477040.2383191355
0.7880334854125977	523186.73816621886
0.7907378077507019	559124.232893498
0.7934610247612	413869.6710109253
0.7962033748626709	497953.3142640951
0.7989648580551147	654139.4066936806
0.801745593547821	683492.3329310662
0.8045456409454346	709553.924700997
0.8073651194572449	733986.2361461369
0.8102040886878967	743151.5094780363
0.8130625486373901	755847.3799560957
0.8159406185150146	804570.5318440633
0.8188382983207703	830517.1465092449
0.8217556476593018	851590.09860648
0.8246926665306091	880752.5125174422
0.8276493549346924	908057.2222805497
0.8306257724761963	924353.1711017641
0.8336219191551208	958753.418821637
0.8366377949714661	974020.8416164974
0.8396733403205872	1004682.7059523572
0.8427285552024841	1056850.376611802
0.8458034992218018	1089857.909242258
0.8488980531692505	1123815.9016250188
0.8520121574401855	1146240.7767270133
0.8551458716392517	1193029.615566921
0.8582990765571594	1229416.133187755
0.8614717125892639	1249863.437987412
0.8646637797355652	1279855.6716678806
0.8678751587867737	1320702.5244005718
0.8711057901382446	1361569.951431019
0.8743556141853333	1394016.8510682427
0.87762451171875	1426880.441672522
0.8809124231338501	1443690.53023192
0.8842192888259888	1488238.3149300052
0.8875449895858765	1511225.829546808
0.8908893465995789	1528884.629928111
0.894252359867096	1493499.2004815412
0.8976338505744934	1585429.1523400934
0.9010337591171265	1678299.2523274946
0.9044519662857056	1749382.3362277078
0.9078882932662964	1776735.5183967352
0.9113426208496094	1847247.5815372192
0.914814829826355	1856041.1125448903
0.9183048605918884	1846643.8581289938
0.9218124747276306	1972933.6302732076
0.925337553024292	1847026.172613699
0.9288799166679382	1369927.534435294
0.9324395060539246	1538303.2039942343
0.9360161423683167	1604814.1353278793
0.9396095871925354	1879968.3871376778
0.943219780921936	1785505.2573132745
0.9468464851379395	1620769.921963768
0.9504896402359009	1880539.6876973081
0.9541489481925964	1915904.905253243
0.9578243494033813	2021490.4735782177
0.9615156054496765	1754350.2091100542
0.9652225375175476	1889604.1063513528
0.9689450263977051	1895100.6906302546
0.9726828336715698	2457779.26842986
0.9764357805252075	2408374.92127506
0.9802037477493286	2570101.239566087
0.983986496925354	2675371.981294396
0.9877838492393494	2782084.673745905
0.9915955662727356	2953912.4000769416
0.9954215884208679	3051164.943316785
0.9992615580558777	3153840.5284861084
1.0031154155731201	3206083.494157887
1.0069829225540161	3329400.6546450006
1.0108637809753418	3433463.7934954236
1.0147579908370972	3558711.2550152573
1.018665075302124	3643992.533146559
1.022585153579712	3704941.6492387108
1.0265177488327026	3731965.292669896
1.0304628610610962	3690814.0616489667
1.0344202518463135	3986484.712229148
1.0383895635604858	4070330.677553023
1.0423706769943237	4161851.455181531
1.0463634729385376	4244105.30248377
1.0503677129745483	4284173.567827678
1.0543830394744873	4405402.98534973
1.058409333229065	4506567.981981613
1.0624464750289917	4591592.377437386
1.0664942264556885	4679932.955881868
1.0705522298812866	4731267.3605194185
1.0746204853057861	4857011.05558861
1.0786986351013184	4928702.360725347
1.0827864408493042	5033900.504972156
1.086883783340454	5094412.230683313
1.0909905433654785	5039572.243136499
1.0951062440872192	5031753.671760883
1.0992310047149658	4649380.436448288
1.10336434841156	3465759.2406705646
1.1075061559677124	3723492.603019833
1.1116561889648438	3568914.5837079054
1.115814208984375	2968254.0011532116
1.1199802160263062	2927692.1839689817
1.124153733253479	3294702.136313822
1.1283347606658936	3595907.2243137285
1.1325229406356812	2728387.8182086423
1.1367181539535522	3728510.9258548985
1.1409201622009277	4070161.6251452295
1.145128846168518	4684091.022169064
1.1493438482284546	4205093.571461586
1.1535650491714478	1933487.3269550812
1.1577922105789185	2780764.2081945627
1.1620250940322876	3014864.329419369
1.1662636995315552	4486370.272663843
1.170507550239563	4092615.8861581874
1.174756646156311	5134147.139353173
1.1790107488632202	6009255.36398385
1.1832695007324219	6522399.63522714
1.1875330209732056	6641874.143618978
1.191800832748413	7032660.064406354
1.1960728168487549	7410419.292660334
1.2003488540649414	7680974.564939721
1.2046287059783936	7631914.567068569
1.2089121341705322	7913316.220133615
1.2131990194320679	8004836.738820839
1.2174891233444214	8289309.253571525
1.2217823266983032	8445336.491546536
1.2260783910751343	8646328.099113017
1.230377197265625	8777156.067445908
1.2346785068511963	8894997.32106576
1.238982081413269	9075020.260489043
1.2432878017425537	9202976.115911208
1.2475954294204712	9312862.128445316
1.2519049644470215	9362079.59907589
1.256216049194336	9596127.764690617
1.2605286836624146	9662528.489182726
1.2648425102233887	9729507.214843223
1.2691574096679688	9823973.70301976
1.2734732627868652	9886352.656915426
1.2777899503707886	10051603.02261817
1.2821072340011597	10015615.556851663
1.2864248752593994	10107667.802745752
1.2907428741455078	9842817.631253578
1.2950609922409058	9960612.501389118
1.2993791103363037	10067758.701523952
1.303696870803833	9822333.58147475
1.3080145120620728	9897892.488100162
1.3123314380645752	9834675.18870232
1.3166478872299194	10486644.117807176
1.3209635019302368	10234394.47517012
1.3252781629562378	9145505.167133996
1.3295916318893433	7953088.869882872
1.3339040279388428	4453211.933244221
1.3382149934768677	1517163.2139235574
1.3425244092941284	644180.728118312
1.3468321561813354	1640463.1991599808
1.3511382341384888	672107.736128195
1.3554422855377197	499863.08581529144
1.3597444295883179	425316.88961333723
1.3640443086624146	612437.8314263744
1.3683418035507202	512388.8023021606
1.3726370334625244	1424966.1558845001
1.3769296407699585	3064394.145196405
1.381219506263733	1297351.6301322458
1.3855066299438477	242876.65406655555
1.3897908926010132	312842.12678415177
1.3940720558166504	541373.8909323385
1.3983501195907593	435705.3475472616
1.4026249647140503	1181676.0575882872
1.4068963527679443	2094379.9817239945
1.4111642837524414	551432.9577636363
1.4154287576675415	841682.8806197506
1.419689416885376	849173.6741309199
1.4239463806152344	425505.080951182
1.4281994104385376	1399632.837896057
1.4324485063552856	979308.220601111
1.436693549156189	1497030.803106341
1.440934419631958	1499552.7820641906
1.4451709985733032	2170320.2363953474
1.449403166770935	4402904.527613204
1.453631043434143	4736130.61135683
1.4578542709350586	5233990.066466674
1.4620729684829712	5411760.038836833
1.4662868976593018	6113182.873402352
1.4704961776733398	4682858.85098235
1.4747005701065063	4841354.66827305
1.4788999557495117	4751389.713505104
1.4830944538116455	6793144.807036116
1.4872838258743286	8045219.472115817
1.491468071937561	8205483.46506521
1.4956470727920532	7271036.776310756
1.4998208284378052	8535374.260933934
1.5039892196655273	9753662.41210691
1.5081522464752197	9076917.220287515
1.5123097896575928	9689483.884692166
1.5164618492126465	10790865.33530809
1.5206083059310913	12354178.760480514
1.5247491598129272	13549301.871727753
1.5288842916488647	12729475.119396718
1.5330137014389038	13572890.653602893
1.5371372699737549	14253164.512382627
1.541254997253418	14097143.119866313
1.545366883277893	14578283.66456947
1.5494728088378906	14955641.300567575
1.5535727739334106	15455397.265333502
1.5576666593551636	14756507.682078999
1.561754584312439	15023828.203471728
1.5658363103866577	16155564.660533682
1.5699119567871094	16521360.249242267
1.5739814043045044	15865206.97607036
1.5780447721481323	14661612.14106986
1.582101821899414	15525503.632343205
1.5861525535583496	17315879.879063074
1.5901970863342285	17218973.179199666
1.5942351818084717	16986105.119775098
1.5982669591903687	16442496.543642001
1.6022924184799194	16316703.194696842
1.606311559677124	16786334.13865154
1.6103241443634033	16617153.805977875
1.6143304109573364	16139153.003033053
1.6183301210403442	15876549.53353185
1.6223233938217163	15169787.787239442
1.6263102293014526	14878829.722418329
1.6302905082702637	13618537.358318556
1.634264349937439	14392249.436299406
1.638231635093689	17472265.820772354
1.6421923637390137	17745344.28564894
1.646146535873413	16401453.674582794
1.6500942707061768	14704374.826526172
1.6540353298187256	16736300.3612109
1.6579699516296387	17138380.031855892
1.661897897720337	16537776.813623931
1.6658192873001099	12037289.559376303
1.6697341203689575	11428561.474163529
1.6736423969268799	16087982.891753709
1.677544116973877	15881957.570320955
1.6814392805099487	15250030.747819632
1.6853278875350952	15373928.818999754
1.6892099380493164	14556143.445516756
1.6930854320526123	13338698.175213465
1.696954369544983	10789659.34825888
1.7008168697357178	11866512.294838345
1.7046726942062378	11631360.62702752
1.708522081375122	13411946.194634248
1.712364912033081	13545927.133375535
1.7162011861801147	14646172.855060626
1.7200311422348022	15784179.961828675
1.723854422569275	15464472.63449508
1.7276713848114014	14951341.707123544
1.731481909751892	14015819.553455854
1.7352858781814575	13008120.512892768
1.7390835285186768	12792887.083746279
1.7428747415542603	12455066.059287768
1.7466596364974976	11044068.578578927
1.7504380941390991	10204586.308209805
1.7542102336883545	8171211.346399577
1.7579760551452637	11658427.681165656
1.7617355585098267	13225201.312094128
1.7654887437820435	11007174.344930653
1.7692357301712036	8115657.883160454
1.7729763984680176	5465052.770036916
1.776710867881775	2762480.18383721
1.7804391384124756	2532142.806219327
1.7841613292694092	3333183.3763436107
1.7878772020339966	2051832.695323148
1.7915871143341064	2780725.0277672545
1.7952908277511597	4221702.074795445
1.7989884614944458	5267693.892253104
1.8026801347732544	2155500.7836146075
1.806365728378296	714696.0044447416
1.8100452423095703	1288884.381518336
1.8137187957763672	2172037.548119648
1.817386507987976	588894.2304196195
1.8210482597351074	2048201.2231345554
1.8247040510177612	2150568.57925706
1.828354001045227	504531.1804655084
1.8319982290267944	658176.2712559064
1.8356364965438843	1474634.5272937801
1.8392690420150757	2604730.6290139183
1.8428958654403687	1911557.1105356177
1.8465168476104736	1990059.800619121
1.8501322269439697	2792824.944473625
1.8537418842315674	1559443.6620417533
1.8573459386825562	1072103.6808496616
1.860944390296936	1119901.3576282603
1.864537239074707	465200.55855237914
1.8681244850158691	576765.8027768977
1.871706247329712	1434762.05268206
1.8752825260162354	2193177.3418206163
1.8788533210754395	4086387.597114335
1.8824186325073242	5573534.380479491
1.8859784603118896	4147953.0555704297
1.8895330429077148	3580532.2420255733
1.8930821418762207	5811630.776278065
1.8966259956359863	5392281.483830155
1.9001644849777222	1180730.0880243583
1.9036977291107178	465498.6095647529
1.9072256088256836	1013303.4601359335
1.9107483625411987	788964.9680922412
1.9142658710479736	267277.0462078124
1.9177782535552979	397261.81599615223
1.9212853908538818	764338.6358725957
1.9247875213623047	594922.1419980247
1.9282845258712769	679695.1000890976
1.9317764043807983	1133458.7694495064
1.9352631568908691	1264985.0626842834
1.9387450218200684	1073901.3537213549
1.942221760749817	1618997.7347192962
1.9456936120986938	1717178.0109117462
1.9491604566574097	2303819.2060379754
1.952622413635254	2057200.9013589486
1.956079363822937	1200095.5797131965
1.959531545639038	1546226.3791194267
1.962978720664978	1587859.37770943
1.966421127319336	2353564.413645167
1.9698586463928223	4045162.5189176844
1.9732913970947266	4278360.686772929
1.9767193794250488	4641935.924715929
1.9801424741744995	6110720.059015693
1.9835609197616577	7126765.0511332955
1.9869745969772339	7398948.988251367
1.990383505821228	5420608.081178181
1.9937876462936401	5902293.655989056
1.9971871376037598	5821855.373593906
2.000581979751587	6352527.626358003
2.003972291946411	8951454.01306774
2.007357597351074	9849329.05147909
2.0107386112213135	11898899.91904498
2.0141148567199707	11879524.336215397
2.017486572265625	9984374.07773479
2.0208535194396973	11415126.56371633
2.0242159366607666	13788638.408594025
2.027573823928833	14295332.201110896
2.0309269428253174	15118330.285545368
2.034275770187378	16430358.916601593
2.0376198291778564	17275123.03749266
2.040959596633911	17998579.678406328
2.044294595718384	19176427.42012754
2.0476250648498535	20537535.257394884
2.0509510040283203	20288752.6334375
2.054272413253784	19354812.578387048
2.057589530944824	20036724.4067463
2.0609018802642822	20963545.725446872
2.0642096996307373	21629710.665957678
2.0675129890441895	22035052.24390633
2.0708119869232178	22275814.266599264
2.074106216430664	22059576.990667235
2.0773961544036865	21916898.189530846
2.080681324005127	22284522.885055274
2.0839622020721436	22483375.998557735
2.087238311767578	22628269.53749836
2.090510129928589	22576522.64192677
2.0937774181365967	22234607.79543306
2.0970399379730225	22331492.00992973
2.1002981662750244	22283182.805187955
2.1035518646240234	21998797.84239305
2.1068007946014404	21614359.10644661
2.1100454330444336	21923868.85830534
2.1132853031158447	22224100.46854067
2.116520881652832	21674033.24495149
2.1197516918182373	21387934.931093004
2.1229779720306396	21529679.827967092
2.12619948387146	21725502.19792965
2.1294167041778564	21725156.743872765
2.132629156112671	21820891.28102963
2.1358368396759033	21392496.82704188
2.139039993286133	20650785.547987457
2.1422386169433594	20031121.336777024
2.145432472229004	19448115.83135721
2.1486217975616455	19121029.04833661
2.151806354522705	18434054.41468565
2.1549863815307617	18643029.90047449
2.1581614017486572	18856446.700972676
2.16133189201355	17993439.394296274
2.1644976139068604	17697350.28086557
2.167658567428589	17689727.318644065
2.1708147525787354	17926083.031096283
2.173966407775879	17955886.49671782
2.1771130561828613	17758791.369531896
2.1802549362182617	17325213.714908898
2.183391809463501	16615119.588832408
2.1865241527557373	15719255.774291579
2.1896514892578125	14587453.192374801
2.1927738189697266	12262591.70600019
2.1958916187286377	8942871.390694797
2.1990041732788086	6426043.128973457
2.2021119594573975	5399683.428286649
2.2052149772644043	5311765.795361273
2.208312749862671	5822979.720999901
2.2114057540893555	6722755.097950317
2.214493751525879	7300734.596828336
2.217576742172241	6953816.518352748
2.2206547260284424	6625499.2911972115
2.2237277030944824	6415521.359276797
2.2267956733703613	5420057.705863722
2.2298583984375	4240373.108214156
2.2329163551330566	3667872.357783375
2.235969066619873	3540823.040710194
2.2390167713165283	3335262.2737894617
2.2420592308044434	2761504.0508879144
2.2450966835021973	2271032.426802463
2.248128890991211	2528527.8989831326
2.2511560916900635	3090630.890348676
2.254178285598755	3318332.8733741483
2.257194995880127	3523393.5581599153
2.260206699371338	3461029.7752189683
2.2632133960723877	2842787.1476498833
2.266214609146118	2282090.85031762
2.2692108154296875	2206249.862800317
2.2722020149230957	2585442.3445977326
2.2751877307891846	2927466.330709021
2.278168201446533	2837331.4713247134
2.2811436653137207	2535727.3954009595
2.284113883972168	2320381.573527987
2.287078857421875	2122792.398168218
2.290038824081421	1940438.8332573
2.2929933071136475	1912822.049846006
2.295942783355713	1988459.8055584915
2.298887014389038	2070108.2976675471
2.301826238632202	2249330.246850731
2.304760217666626	2705953.495305031
2.3076889514923096	3410140.250827165
2.310612440109253	3918023.049827848
2.3135311603546143	3544039.2205042434
2.3164443969726562	2222857.5385257658
2.319352865219116	1306252.9359841903
2.322256088256836	1246818.26456041
2.3251543045043945	1282898.7360503082
2.328047275543213	1248748.688816632
2.330935478210449	1262977.4390304654
2.3338186740875244	1258408.8918092141
2.3366971015930176	1231492.370487636
2.3395702838897705	1194864.364235875
2.3424389362335205	1110832.3721720956
2.3453025817871094	1009443.6700328814
2.348161458969116	1011671.6594456465
2.351015567779541	1222590.996766103
2.353865146636963	1578012.877797758
2.3567099571228027	1896791.2402579484
2.3595502376556396	2143496.725896174
2.3623859882354736	2367635.9589569014
2.3652172088623047	2203261.381288733
2.368043899536133	1467800.434597143
2.370866537094116	926163.5671293265
2.3736846446990967	866095.6051225469
2.3764986991882324	976342.3220955235
2.3793084621429443	1110160.844931233
2.3821144104003906	1318065.9010500736
2.384916305541992	1610984.940742252
2.387714147567749	1826750.9288338732
2.3905084133148193	1787874.6442358356
2.393299102783203	1710600.8488410567
2.3960859775543213	1757083.8853524453
2.398869514465332	1832870.4007340223
2.4016497135162354	1794561.1316756785
2.4044265747070312	1826570.274391427
2.407200336456299	2111834.929803373
2.409970998764038	2551615.7605401925
2.4127390384674072	2863198.3754598703
2.415503978729248	3024562.992639244
2.418266534805298	3424544.1294390936
2.4210267066955566	3597345.098557104
2.4237842559814453	3242190.873299364
2.426539897918701	3018256.8097418705
2.429293394088745	3292440.8697005063
2.4320452213287354	3820482.6334471237
2.4347951412200928	4014704.8753251913
2.4375438690185547	3897917.718252923
2.440291166305542	3866177.6838650666
2.443037271499634	3624738.422646093
2.445782423019409	3129637.910675126
2.4485268592834473	2682708.282238737
2.451270818710327	2665760.528135029
2.454014539718628	3210638.232372035
2.4567582607269287	3713678.312728447
2.4595019817352295	3670909.8943087356
2.4622461795806885	3870505.901604286
2.4649908542633057	3636546.044098813
2.4677364826202393	2896646.3569155177
2.4704833030700684	2012390.2355976077
2.473231554031372	1446704.619330086
2.4759814739227295	1149781.8901229945
2.4787333011627197	1098714.8244550764
2.481487512588501	1242763.1610669475
