#wavelength	surface flux
0.676892	261185.6457010064
0.678297	267703.68780796276
0.679702	273869.51069866173
0.681109	280033.62388694944
0.682517	286668.7876611528
0.683926	293246.1726681202
0.685337	299618.4950306178
0.686749	306046.0279490213
0.688164	312427.55586410384
0.689581	318465.44042140414
0.691	322467.5278084043
0.692422	324823.13963437127
0.693847	333938.2268315336
0.695274	344141.0910330652
0.696705	351966.6408441161
0.698139	358393.0990765439
0.699576	365113.31598369015
0.701017	371499.0708877349
0.702461	376838.6505710062
0.70391	385319.3778784684
0.705362	393789.85980154003
0.706819	400170.1161259312
0.70828	406745.8030899705
0.709745	413215.73423264816
0.711216	421257.68945121963
0.71269	428063.4702894569
0.71417	434106.07902697084
0.715655	436573.765557991
0.717145	436054.8211126038
0.71864	446900.30244744394
0.72014	454154.97633577936
0.721647	458989.52109187166
0.723158	463267.5434994162
0.724676	465997.36988366046
0.726199	469272.09768266417
0.727728	475541.5749627026
0.729264	474919.40054746845
0.730805	479331.84816709097
0.732353	487365.0622952141
0.733907	489024.165542314
0.735468	490823.140301541
0.737035	490477.69053758564
0.738609	491758.690231598
0.74019	489553.9892744246
0.741777	481066.53699276055
0.743372	472902.6734906255
0.744973	463079.9566731263
0.746582	447566.94475979725
0.748197	427871.94699476764
0.74982	403046.9764033604
0.751451	372057.26463837776
0.753088	334167.23534686846
0.754734	289974.47565181105
0.756386	239948.61946475817
0.758047	185178.1412498665
0.759715	130335.65409146335
0.76139	78335.02047182719
0.763074	35981.137244057754
0.764765	10391.521098463973
0.766464	1613.0996039248168
0.768172	2184.3628744757793
0.769887	2675.6375348766987
0.77161	19802.751850878638
0.773341	64100.15480773758
0.775081	128906.34847156501
0.776829	202440.55801900753
0.778585	251386.3075867085
0.780349	290757.64114222676
0.782121	419715.47425778385
0.783902	516885.9066913781
0.785691	590491.854503867
0.787489	656386.4883209738
0.789295	714465.0134844295
0.79111	758809.6069901383
0.792933	637724.630109139
0.794764	345023.10010243976
0.796604	780825.515896915
0.798453	952442.272963719
0.80031	1001111.4956386038
0.802176	1041755.8873490843
0.804051	1079390.2841233795
0.805934	1115272.8468657814
0.807826	1146203.6007827744
0.809727	1160345.3227653217
0.811636	1176015.526544972
0.813554	1203064.843077661
0.81548	1266893.4120896773
0.817416	1302163.9952001416
0.81936	1333991.3085580359
0.821313	1367534.3212774359
0.823274	1382073.9892521813
0.825244	1436933.2264605276
0.827223	1468173.7735021824
0.829211	1484728.4122342267
0.831208	1509404.0610959297
0.833213	1553494.6303705664
0.835227	1580689.2767052944
0.837249	1593986.462006014
0.83928	1630405.5062774685
0.841321	1692581.4043831294
0.843369	1742150.6919445621
0.845427	1778786.3362516013
0.847493	1818613.8075843703
0.849567	1844359.2162282974
0.851651	1842638.1755014046
0.853742	1906049.935804121
0.855843	1973188.920463636
0.857952	2014387.1575745014
0.86007	2048690.4329411536
0.862196	2034090.3676843885
0.864331	2080341.3799918669
0.866474	2133113.1072448045
0.868626	2177654.4714401294
0.870786	2222061.1461197617
0.872955	2265216.2308935677
0.875132	2293297.921195826
0.877317	2335375.791589924
0.879511	2342545.53526766
0.881713	2381590.3011540435
0.883923	2427050.9369671154
0.886142	2452193.9799025944
0.888369	2475299.96717932
0.890604	2485245.1203833846
0.892847	2405966.130811053
0.895099	2444192.7124855365
0.897358	2560512.165266002
0.899626	2681272.9575919583
0.901901	2758008.842290946
0.904185	2844161.4625511025
0.906476	2878432.2539973054
0.908776	2924992.5823963783
0.911083	3005173.372832745
0.913398	3004124.741485922
0.915721	3003599.3363568205
0.918051	2978028.0404717904
0.92039	3152346.1357383616
0.922736	3180710.026228644
0.925089	2989808.9404903213
0.927451	2540510.3744204314
0.929819	2047738.9159454333
0.932195	2427211.028950995
0.934579	2390847.096775262
0.93697	2596219.6376574775
0.939369	2946307.9688562425
0.941774	3001007.0200573504
0.944187	2611636.843473784
0.946607	2487252.366218308
0.949035	2885215.3945556735
0.951469	2811664.620891569
0.953911	2931645.807998525
0.956359	3405481.7410333147
0.958814	2902302.2224455574
0.961277	2692754.627337287
0.963746	2791379.5371915465
0.966222	2887850.802974174
0.968705	2873422.6230396437
0.971194	3555647.921550902
0.97369	3881971.2708597365
0.976193	3764129.9807797833
0.978702	3994062.331010254
0.981217	4066624.551913544
0.983739	4186826.755122778
0.986268	4267507.167776119
0.988802	4454675.244650897
0.991343	4635642.122904368
0.99389	4699331.838665395
0.996444	4848981.442081269
0.999003	4934512.716304534
1.00157	4980540.924266373
1.00414	5069868.44146952
1.00672	5207624.476017332
1.0093	5315100.377263294
1.01189	5425717.483854106
1.01448	5570599.71499485
1.01708	5661086.419744545
1.01969	5746376.825450775
1.0223	5797555.240290046
1.02492	5752123.611352587
1.02754	5876347.950203895
1.03017	5775228.67999467
1.0328	6121279.121972524
1.03544	6244694.010909354
1.03808	6333899.2118085455
1.04073	6423978.478328294
1.04339	6509753.096209366
1.04604	6590613.1010731645
1.04871	6626423.485786119
1.05138	6688380.190339804
1.05405	6816709.699116559
1.05673	6926396.921489086
1.05941	7013981.179729928
1.0621	7091621.157429914
1.06479	7173776.567065043
1.06749	7252817.591467617
1.07019	7285156.893056184
1.07289	7387928.454058713
1.0756	7500199.534419037
1.07832	7560946.023066828
1.08104	7663751.799914779
1.08376	7758612.594982469
1.08649	7795387.3490314055
1.08922	7734459.488475297
1.09195	7642814.439704821
1.09469	7585648.709384437
1.09743	7650964.23730747
1.10018	6320219.107563144
1.10293	5112550.570787942
1.10568	4360928.962291666
1.10844	5965427.008191116
1.1112	5362259.9766300935
1.11396	4481897.863273953
1.11673	4448321.077220373
1.1195	4508856.049544528
1.12228	3698627.794332602
1.12505	5036166.226422625
1.12783	5070607.569288077
1.13062	5141918.0665113935
1.13341	3068600.442249806
1.1362	4559248.088726715
1.13899	6241314.535542196
1.14178	5808850.798578228
1.14458	6505367.9435279695
1.14738	7203994.377232628
1.15019	5192922.737420643
1.153	2743625.700843234
1.1558	3411842.6313998145
1.15862	3618508.7363775964
1.16143	3802468.0248244647
1.16425	5122158.016999831
1.16707	6533093.352378715
1.16989	5709569.060979372
1.17271	6228351.392933497
1.17554	7557886.925821878
1.17837	8482845.71981337
1.1812	8832605.085471964
1.18403	9692716.063357946
1.18686	9634847.93935119
1.1897	9642486.216779387
1.19253	10437224.579577694
1.19537	10818239.15012032
1.19822	11009750.95630738
1.20106	11285974.192107303
1.2039	11123471.760809638
1.20675	11421193.091781264
1.2096	11575969.193679338
1.21245	11600228.311599076
1.2153	11967004.829830602
1.21815	12170740.517601077
1.221	12322769.260064991
1.22385	12514664.483237809
1.22671	12717099.662004407
1.22957	12839304.06385477
1.23242	12889463.81585732
1.23528	13049493.505363382
1.23814	13229160.045070965
1.241	13349220.914517934
1.24387	13469233.132547496
1.24673	13576891.991060104
1.24959	13610785.457092986
1.25245	13509015.211951278
1.25532	13879525.40538726
1.25818	14069967.295099374
1.26105	14059945.365111968
1.26392	14102779.117903084
1.26678	14208663.944542341
1.26965	14249580.544247158
1.27252	14239351.806866042
1.27538	14477027.995114353
1.27825	14521981.897046437
1.28112	14385028.957516463
1.28399	14606230.283346212
1.28686	14500965.977360046
1.28973	14149162.096222196
1.2926	13984940.543026043
1.29546	14333572.436986007
1.29833	14562526.274635471
1.3012	14021223.710056717
1.30407	13970945.500064125
1.30694	13875740.57388764
1.30981	14283101.679565093
1.31267	13901488.662007976
1.31554	14573016.652460633
1.31841	15195954.164755419
1.32128	14258166.025514856
1.32414	12823311.364673983
1.32701	12370973.800032282
1.32987	10442569.689151242
1.33274	6294214.94055719
1.3356	4151030.9122283254
1.33847	1556591.9025828638
1.34133	558183.5175351771
1.34419	1335244.4296110324
1.34705	1825125.7055939967
1.34991	991288.2859545154
1.35277	447892.07975484047
1.35563	606674.9232135037
1.35849	686325.581377106
1.36135	327552.6881331844
1.3642	728315.2775805003
1.36706	765804.2312528157
1.36991	618219.2399341463
1.37277	1715209.5632584202
1.37562	3234044.6825609915
1.37847	3687302.8349101725
1.38132	1450752.4008515673
1.38417	197294.88744782485
1.38701	431545.4695070508
1.38986	337973.4673674376
1.39271	419420.83433858113
1.39555	658095.4600283387
1.39839	470829.6060794507
1.40123	945033.4935010938
1.40407	1770058.4419212793
1.40691	2425296.103007555
1.40974	1254983.093268276
1.41258	375871.3275805913
1.41541	934950.9411444429
1.41824	1207777.0107577879
1.42107	689205.9027361453
1.4239	464578.7520660562
1.42673	1047082.1740050244
1.42955	1697268.2144515621
1.43237	1098664.1783970073
1.43519	1865493.8531804625
1.43801	1309221.0104726655
1.44083	1645991.4673591976
1.44365	2601346.154124216
1.44646	2825375.93549428
1.44927	5061579.626812793
1.45208	6306405.037156242
1.45489	4969952.065472792
1.45769	6109474.884685357
1.4605	6859718.877115171
1.4633	7092327.985164743
1.4661	7576583.3104853
1.4689	5603703.316056724
1.47169	5922455.521446825
1.47449	5749823.868840502
1.47728	5803602.313816771
1.48007	5858024.846630027
1.48286	8036124.995685628
1.48564	9804218.641430708
1.48842	9762806.054554543
1.4912	9990313.236608677
1.49398	9602924.73390953
1.49676	8541633.591352586
1.49953	10326342.790221374
1.5023	12153722.714024428
1.50507	12003295.900005102
1.50784	11248119.111708669
1.51061	11698944.125912914
1.51337	12440039.821604138
1.51613	13513411.110922767
1.51888	14764964.964649748
1.52164	16604772.452142578
1.52439	17625378.308137026
1.52714	16799469.21084736
1.52989	16492319.561033031
1.53263	17438341.536564466
1.53538	18520954.891473684
1.53812	18662685.36594753
1.54086	18526284.390616875
1.54359	18660251.98582272
1.54632	19521390.202476643
1.54905	19638471.179492224
1.55178	20427213.077178176
1.5545	20308646.810012005
1.55723	19701790.400342345
1.55995	19938899.273853436
1.56266	20536861.274285473
1.56538	21613962.57159522
1.56809	22175680.557538718
1.5708	22060657.205751274
1.57351	21345589.11020082
1.57621	20734647.969892375
1.57891	19478299.790365983
1.58161	20603794.04913937
1.5843	22772367.87604547
1.587	23206303.187376972
1.58969	23120946.64679276
1.59238	22955597.381093003
1.59506	22479384.206885252
1.59774	21958424.08530199
1.60042	21652767.797822967
1.6031	21752386.961598936
1.60577	22051491.875347923
1.60844	22121431.52741216
1.61111	21752500.93372305
1.61378	21146272.44809504
1.61644	20870296.87456363
1.6191	20270476.425142154
1.62176	19457052.220729657
1.62441	19034479.3883789
1.62707	18452407.885204267
1.62971	17100699.759108853
1.63236	16558136.939148316
1.635	18909218.870847583
1.63764	22138121.71825988
1.64028	23153605.95304727
1.64292	22905677.40770987
1.64555	21518758.197524764
1.64818	18956930.673752073
1.65081	18769513.429237008
1.65343	20861855.415851437
1.65605	21619836.213783715
1.65867	21810941.769060347
1.66128	21249021.734455414
1.6639	18414739.150676347
1.66651	12855123.24616751
1.66911	12098363.622471858
1.67172	16845314.546288908
1.67432	20160778.295250677
1.67692	20032107.803021234
1.67951	18658676.49275491
1.68211	18831698.42207008
1.6847	19043089.60436663
1.68728	17999053.348808285
1.68987	17399668.03089448
1.69245	16241066.068397144
1.69503	13500281.721631108
1.6976	12007884.648902465
1.70018	13645508.378903484
1.70275	13622183.857264068
1.70531	14039061.868522419
1.70788	15766920.963665836
1.71044	15589053.68114621
1.713	16462948.141365113
1.71556	17422091.118363854
1.71811	18080307.575724
1.72066	19142625.483237907
1.72321	18847906.877562862
1.72575	18292139.050999656
1.7283	17808175.33645583
1.73084	16907468.928704713
1.73337	15820918.566215122
1.73591	15056757.930569159
1.73844	14884749.861826537
1.74097	15030201.21591323
1.74349	14164175.58433908
1.74602	12936904.572995123
1.74854	12354323.697272923
1.75105	11194696.711855007
1.75357	9502880.61500528
1.75608	10964780.722368358
1.75859	14320601.191243427
1.7611	15594125.77691222
1.7636	14934472.15943751
1.7661	11972268.63659316
1.7686	9555911.294460472
1.7711	7447466.387088508
1.77359	5365724.277893313
1.77608	3328148.228220131
1.77857	2406374.2176707922
1.78105	2930063.800818356
1.78354	3504432.3806471834
1.78602	2756216.5674308613
1.78849	2060906.0044792495
1.79097	2680976.6466009472
1.79344	3737020.682469329
1.79591	4922301.696504413
1.79837	6296313.701330813
1.80084	4033357.6127007036
1.8033	1820890.8356172156
1.80576	868168.5524783622
1.80821	585621.8939718904
1.81067	1721985.747727667
1.81312	2679501.9958520317
1.81557	1468351.4094674117
1.81801	775350.8897621837
1.82046	1832954.612041947
1.8229	2785884.2282629334
1.82533	1889126.6032837494
1.82777	655937.5831486244
1.8302	433137.78301287285
1.83263	834845.4183810399
1.83506	1414799.2908890666
1.83749	2255297.7773131076
1.83991	2675199.0675858962
1.84233	2132121.718315275
1.84475	1955058.6987965917
1.84716	2256360.3347046496
1.84957	2847250.1437175996
1.85198	2782333.959314399
1.85439	1445714.2050844443
1.8568	1006355.658964864
1.8592	1304324.7542976178
1.8616	1002891.2601472224
1.864	530321.9532096405
1.86639	477774.863296363
1.86878	755746.7770283674
1.87118	1345796.8256995117
1.87356	2087150.03749796
1.87595	2555083.831555996
1.87833	3884209.432541323
1.88071	6078844.720859764
1.88309	5895452.712424495
1.88547	4516008.895951653
1.88784	4105423.1947512478
1.89021	3787323.738478597
1.89258	6014306.921214196
1.89494	7734836.341322333
1.89731	5012700.465616774
1.89967	1924291.6296359687
1.90203	639133.9623226997
1.90439	587776.6456102487
1.90674	1001543.9944161029
1.90909	1096609.9477720934
1.91144	704720.1906450815
1.91379	327676.7129216412
1.91613	296473.1935599977
1.91848	533299.8946704536
1.92082	815119.8901661626
1.92315	799859.5094126906
1.92549	584154.2388743857
1.92782	671153.3347322302
1.93015	996358.7943939569
1.93248	1277311.8802455794
1.93481	1328316.9200867694
1.93713	1157533.1643147836
1.93945	1188282.8726850525
1.94177	1560871.6661176
1.94409	1834661.1272235105
1.94641	1882631.8136733295
1.94872	2302502.0880910177
1.95103	2827169.5159743666
1.95334	1889861.8172652517
1.95564	1300650.1191871609
1.95795	1528822.3713509394
1.96025	1603001.9754397229
1.96255	1637022.7000058233
1.96484	1968221.5406176562
1.96714	2847349.321462053
1.96943	4037039.636180477
1.97172	4721020.858986624
1.97401	4315878.64787967
1.97629	4648198.215673618
1.97858	5842457.354042608
1.98086	6545194.267400224
1.98314	7354053.207019533
1.98541	7890796.706910524
1.98769	7303404.548295658
1.98996	5751283.590810141
1.99223	5472564.765068733
1.9945	6501645.423277225
1.99677	6170426.213554485
1.99903	6064946.542299545
2.00129	7418794.199333215
2.00355	9332955.53945651
2.00581	10421715.46689236
2.00806	10806268.840300035
2.01031	12742199.167696
2.01256	13647632.231335286
2.01481	12409724.096878638
2.01706	10945158.146609517
2.0193	11002409.15509056
2.02154	12876185.893253079
2.02378	14885015.365593495
2.02602	15336604.979702214
2.02825	15854949.851429014
2.03049	16632954.029969813
2.03272	17589128.958122652
2.03494	18517736.012537315
2.03717	19203529.802727707
2.03939	19662930.49790252
2.04162	20745556.402017567
2.04384	21775959.6394581
2.04605	22890831.12324502
2.04827	23874205.189314246
2.05048	23853797.09071259
2.05269	22453218.426728364
2.0549	22143048.378779553
2.05711	22754211.11200465
2.05931	23703417.91082489
2.06151	24461587.300527196
2.06371	25092668.433660828
2.06591	25521631.96948488
2.06811	25842960.57570207
2.0703	25997318.83228688
2.07249	25911975.5374941
2.07468	25503709.66932646
2.07686	25425067.607069246
2.07905	25665988.08049565
2.08123	25938931.908277676
2.08341	26108432.06374865
2.08559	26210636.82758527
2.08776	26341569.531772263
2.08994	26247504.69301073
2.09211	25966001.73948633
2.09428	25659085.341380287
2.09645	25714823.09559113
2.09861	25703570.62274108
2.10077	25581261.598385863
2.10293	25358014.570371076
2.10509	25062139.4826735
2.10725	24782215.84203166
2.1094	25046994.079521984
2.11155	25301964.82565646
2.1137	25271391.42980945
2.11585	24699581.78450987
2.11799	24275070.221858695
2.12013	24118135.692447696
2.12227	24175183.995002855
2.12441	24370581.69744601
2.12655	24482627.329807516
2.12868	24459955.797627985
2.13081	24461546.608317405
2.13294	24469086.194300547
2.13507	24111483.871269632
2.13719	23420566.369545914
2.13931	22827655.8746015
2.14143	22321875.525293328
2.14355	21560758.968622867
2.14567	21149403.230413802
2.14778	20845375.8945856
2.14989	20497673.122964993
2.152	19820773.584843427
2.1541	20014449.58938908
2.15621	20282579.71778595
2.15831	20294544.599410124
2.16041	19405212.6291683
2.16251	18969592.07971902
2.1646	18693237.826622978
2.1667	18542397.1091433
2.16879	18711215.5460781
2.17087	18858253.07082546
2.17296	18898218.491758082
2.17504	18784207.236339677
2.17713	18492750.139728837
2.1792	18035870.411925193
2.18128	17447874.478826277
2.18336	16749358.96854049
2.18543	15986773.66522036
2.1875	15191736.715293579
2.18957	14265384.7539359
2.19163	12775454.258846838
2.1937	10609699.194071937
2.19576	8384529.366888364
2.19782	6378804.703501062
2.19987	5351601.334137267
2.20193	4772128.485569128
2.20398	4564275.959134652
2.20603	4603510.645611965
2.20808	4931668.885513078
2.21012	5414065.663402854
2.21217	6024885.906831638
2.21421	6356852.20930138
2.21625	6344507.1208053855
2.21828	6029052.392389837
2.22032	5864323.139956986
2.22235	5729291.97789824
2.22438	5499059.7165010655
2.22641	4868650.700796802
2.22843	4184600.8735183394
2.23046	3599874.660718916
2.23248	3253224.472941091
2.2345	3152760.1768853627
2.23651	3078486.002267361
2.23853	2998360.791777528
2.24054	2693654.5835620426
2.24255	2352263.36965351
2.24456	2006481.0235970605
2.24657	2070716.3938969437
2.24857	2328731.5087682344
2.25057	2687719.9152676645
2.25257	2818313.5961511834
2.25457	2938404.7293155235
2.25656	3052105.018759526
2.25856	3166180.41680826
2.26055	2992658.0973852756
2.26254	2670125.382011232
2.26453	2281749.7888388764
2.26651	2053118.9508871105
2.2685	1957759.2142147073
2.27048	2120200.402913246
2.27246	2365081.5405600853
2.27443	2595049.417661171
2.27641	2628731.6099654892
2.27838	2516611.872273354
2.28036	2345671.950336424
2.28233	2217164.5970757147
2.28429	2107497.5524715106
2.28626	2002850.0326385978
2.28823	1873548.6110599656
2.29019	1809838.427458562
2.29215	1796112.9974009786
2.29411	1882054.9849295616
2.29607	1970049.0233768304
2.29802	2059419.4310114689
2.29998	2174047.7269256716
2.30193	2387845.6562731788
2.30388	2715648.69610951
2.30583	3311836.207899155
2.30778	3909997.094902332
2.30972	4467672.191814172
2.31167	4428201.91750135
2.31361	4022141.377230984
2.31555	2944339.5212493404
2.31749	2088479.53485118
2.31943	1418082.0677430895
2.32137	1357457.3368534094
2.32331	1341823.019915783
2.32524	1361910.3236828705
2.32718	1334842.507413943
2.32911	1323453.2123102737
2.33104	1335552.9118285375
2.33297	1330149.263158674
2.3349	1316898.754753803
2.33683	1290899.6338128096
2.33876	1261709.7247905927
2.34068	1228091.2026375423
2.34261	1150115.0124531903
2.34453	1077177.6516270894
2.34646	1009140.5489533438
2.34838	1059320.324227281
2.3503	1175647.9443453576
2.35223	1426030.7925395565
2.35415	1673183.1855651839
2.35607	1914772.0886269493
2.35799	2087069.9779096222
2.35991	2256357.510392127
2.36183	2422011.853633014
2.36375	2343831.060679136
2.36566	2138064.6600837726
2.36758	1643797.1568467715
2.3695	1232433.48847825
2.37142	874213.3039998497
2.37334	903522.4917422076
2.37526	961078.1735255825
2.37718	1062329.7627226752
2.3791	1159796.694554957
2.38101	1266220.2830523131
2.38293	1451908.3376656105
2.38485	1635486.455887629
2.38677	1816910.2180048262
2.3887	1812119.4516807043
2.39062	1776169.3736277013
2.39254	1729491.3536760572
2.39446	1747238.5240702732
2.39639	1806591.4213694162
2.39831	1883578.3751897844
2.40024	1916314.1368075758
2.40216	1864624.753723856
2.40409	1896883.9498083834
2.40602	1984784.4993278307
2.40795	2324454.9112534258
2.40989	2624851.639186405
2.41182	2873493.414071896
2.41376	2999345.786732022
2.4157	3129854.7733515278
2.41764	3404878.8228141223
2.41958	3581734.00858258
2.42152	3678769.650973584
