#wavelength	surface flux
0.428837	67.67310023731963
0.43312537	133.9421912709079
0.43745662370000005	159.92810971711614
0.4418311899370001	190.59379174117262
0.44624950183637	226.6695305408135
0.4507119968547338	268.8112407959166
0.45521911682328114	317.6602624089444
0.4597713079915139	376.14362745878327
0.4643690210714291	443.621986982688
0.4690127112821433	521.7283455640594
0.47370283839496474	612.3910353824741
0.47843986677891437	716.6252715441677
0.48322426544670355	836.8520329269305
0.48805650810117057	975.3682132210785
0.4929370731821824	1132.96091160633
0.49786644391400414	1311.5507470588752
0.5028451083531442	1512.2376945147523
0.5078735594366757	1736.4410648290054
0.5129522950310424	1979.0157029657998
0.5180818179813528	2236.758437741566
0.5232626361611664	2554.2514122167827
0.5284952625227781	2862.9137555787865
0.5337802151480058	3166.60423562014
0.5391180172994858	3446.204443629408
0.5445091974724807	3662.667091321983
0.5499542894472055	3763.103510125487
0.5554538323416777	3661.2524160463927
0.5610083706650945	3260.537388830116
0.5666184543717453	2490.295825554159
0.5722846389154628	1455.0459798208033
0.5780074853046174	520.5764579961244
0.5837875601576636	80.76209131878812
0.5896254357592402	4.0690757999923655
0.5955216901168326	157.58691875008793
0.6014769070180009	1032.5601232868044
0.607491676088181	3200.523812164793
0.6135665928490629	6546.2357076753315
0.6197022587775535	10643.6613651313
0.625899281365329	15191.843124857038
0.6321582741789823	20033.520957816887
0.6384798569207721	25147.559965989836
0.6448646554899798	30430.27649773254
0.6513133020448797	36212.44383391428
0.6578264350653285	42146.74190991691
0.6644046994159818	48777.093563936956
0.6710487464101416	48208.504142577964
0.677759233874243	63495.169542034804
0.6845368262129854	71686.91329418887
0.6913821944751153	78867.29181853279
0.6982960164198664	88929.87755877996
0.7052789765840651	98478.0979445764
0.7123317663499058	108210.02525880541
0.7194550840134049	114491.10294723386
0.7266496348535388	119980.46005792524
0.7339161312020743	127080.95554197948
0.741255292514095	128012.96114508923
0.748667845439236	112970.26766075742
0.7561545238936284	66204.44395262233
0.7637160691325647	7673.064566943342
0.7713532298238903	5947.370265948874
0.7790667621221293	73403.67739396631
0.7868574297433505	180078.85065822746
0.7947260040407841	151607.68198612513
0.8026732640811919	305807.53361341316
0.8106999967220039	338104.29775388
0.8188069966892239	392226.0448197855
0.8269950666561161	434654.22968920134
0.8352650173226772	470704.74479475094
0.8436176674959041	532281.326065884
0.852053844170863	579644.9418864549
0.8605743826125718	642298.1791884274
0.8691801264386976	697416.677502131
0.8778719277030844	746642.015573382
0.8866506469801153	772574.57529105
0.8955171534499164	762834.5840252391
0.9044723249844157	919510.6695207045
0.9135170482342599	980416.1280915529
0.9226522187166025	1026861.2382955947
0.9318787409037684	630276.6257608738
0.941197528312806	875675.421393693
0.9506095035959342	808358.7796764759
0.9601155986318936	811570.9700321698
0.9697167546182125	968223.9523264705
0.9794139221643946	1312558.672838101
0.9892080613860387	1544417.3005773998
0.9991001419998989	1759000.8942440804
1.0090911434198981	1921323.8945115993
1.019182054854097	2098067.5452632685
1.0293738754026378	2143753.3644138747
1.0396676141566643	2382429.6669312282
1.050064290298231	2499073.4075058284
1.0605649332012133	2668339.696612344
1.0711705825332256	2786608.038549671
1.0818822883585577	2948079.247256395
1.0927011112421434	2910813.9436281165
1.1036281223545648	1610122.2721241189
1.1146644035781104	1321940.320413729
1.1258110476138916	1306237.6899325964
1.1370691580900303	1575312.8343270388
1.1484398496709307	1942432.888571114
1.1599242481676402	853686.2512697531
1.1715234906493166	1925200.9190978603
1.1832387255558097	3571724.1909202007
1.1950711128113678	4346622.688146097
1.2070218239394814	4728591.533476858
1.2190920421788762	5114577.965219183
1.2312829626006652	5458409.129833269
1.2435957922266716	5762496.69115837
1.2560317501489384	6013843.147283357
1.2685920676504279	6155102.9811289
1.281277988326932	6261673.46182579
1.2940907682102014	6027514.857128327
1.3070316758923035	5795388.739818233
1.3201019926512265	6110108.920960151
1.3333030125777388	2109305.1582131432
1.3466360427035162	304110.12187088083
1.3601024031305513	70460.7421380691
1.373703427161857	430592.50970074383
1.3874404614334754	42245.619580049824
1.4013148660478103	204277.80720369413
1.4153280147082883	145791.6123063449
1.4294812948553712	232610.63669924845
1.443776107803925	592754.6482922179
1.4582138688819641	2046462.8839335984
1.4727960075707838	1750472.5165643343
1.4875239676464918	3588613.4085788946
1.5023992073229566	4315269.554523688
1.5174231993961862	6079226.677089896
1.532597431390148	8010960.8041923735
1.5479234057040496	9356993.749672305
1.5634026397610903	10115243.321959246
1.579036666158701	9378058.899014646
1.594827032820288	10840377.878496427
1.610775303148491	9870288.358198112
1.6268830561799759	6753237.714725003
1.6431518867417756	9629304.37671226
1.6595834056091934	8689644.937979318
1.6761792396652853	7133186.875521467
1.6929410320619382	4722691.7814727845
1.7098704423825577	5047831.877642483
1.7269691468063835	6723779.8470778875
1.744238838274447	5170672.435571193
1.7616812266571917	5427774.653754721
1.7792980389237634	837113.625323691
1.7970910193130012	1586434.9967875418
1.815061929506131	371383.70103735634
1.8332125488011928	224863.59915748332
1.8515446742892046	603506.8295874953
1.8700601210320964	225613.4210056758
1.8887607222424174	1587234.1256349913
1.9076483294648416	114117.28558413516
1.92672481275949	139674.44555238844
1.9459920608870853	560037.7224866516
1.9654519814959561	818078.7714768517
1.9851065013109155	2813632.5144615187
2.0049575663240247	4328368.001399812
2.025007141987265	6647034.105028395
2.0452572134071376	11810780.890276162
2.065709785541209	13707908.991992084
2.086366883396621	14054717.581336306
2.107230552230587	13021777.759457795
2.1283028577528933	11762879.41773321
2.1495858863304225	8623465.523140162
2.1710817451937263	7548530.421509137
2.1927925626456637	3632698.97015276
2.2147204882721203	1504613.8910394718
2.2368676931548412	559981.576639597
2.25923637008639	532088.9100762258
2.281828733787254	443064.750818627
2.3046470211251266	756812.2679991561
2.327693491336378	291241.0190842744
2.3509704262497415	266027.5474940538
2.374480130512239	210780.60428336612
2.3982249318173614	419801.64103581803
2.4222071811355352	965606.4365862682
2.4464292529468903	1080118.0567109208
2.4708935454763594	799760.2271093042
2.4956024809311232	357476.72848977265
2.5205585057404343	118037.8835465642
2.5457640907978387	270928.4487907392
2.5712217317058172	71939.70450780446
2.5969339490228753	40589.22211473979
2.622903288513104	201350.3850065756
2.6491323213982354	367763.8067205741
2.6756236446122177	17252.90009546249
2.7023798810583397	143924.11061584152
2.729403679868923	550039.0482503632
2.7566977166676123	131641.3223932251
2.7842646938342885	100948.09818658607
2.812107340772631	141883.0710438885
2.8402284141803578	416253.6601232293
2.8686306983221614	242694.87811625545
2.897317005305383	366073.86833077064
2.926290175358437	1001153.0993872512
2.9555530771120213	1253616.4573322232
2.9851086078831415	1345504.6855948542
3.014959693961973	1588329.8534203584
3.0451092909015927	1176175.7137920568
3.0755603838106085	1526748.9766742631
3.1063159876487147	908250.7088727887
3.137379147525202	597269.1318976221
3.168752939000454	372822.0823546555
3.200440468390459	265137.2748242997
3.232444873074363	163078.47150531213
3.264769321805107	535925.1295138213
3.297417015023158	534002.7946143807
3.330391185173389	83428.67963843502
3.3636950970251234	403003.32629507774
3.397332047995375	313903.55774914933
3.4313053684753285	220184.77642406907
3.465618422160081	278763.23389882146
3.5002746063816828	464048.2205025416
3.5352773524454997	593385.2846460176
3.570630125969955	895531.5777486304
3.606336427229654	1222458.4139760437
3.6423997915019504	1811173.238413793
3.67882378941697	2498551.112823197
3.7156120273111397	2683703.2565664435
3.7527681475842516	3540428.1398294196
3.7902958290600934	3510763.102956137
3.8281987873506953	5059538.184841312
3.8664807752242023	5052821.239106912
3.905145582976444	5324079.021165779
3.9441970388062084	6281440.497753725
3.983639009194271	6491955.536465475
4.023475399286213	7136262.880710851
4.063710153279075	7406231.633384471
4.1043472548118665	7338666.715201177
4.145390727359985	7035652.723786844
4.186844634633585	6739334.409293585
4.2287130809799205	6004221.615408848
4.27100021178972	5579587.4468205795
4.313710213907617	5604638.089627324
4.356847316046694	4793470.822443491
4.40041578920716	4396071.135504522
4.444419947099232	3973242.526810496
4.488864146570225	3801551.7744343677
4.533752788035927	3444509.875727465
4.579090315916286	3596292.454842517
4.624881219075449	3263528.6319882614
4.671130031266204	3183188.1797291567
4.717841331578866	2878680.9321192885
4.765019744894654	3182668.8762552286
4.812669942343601	2922446.6413453314
4.8607966417670365	3082801.8900333517
4.9094046081847065	2744899.9030350824
4.958498654266554	1415900.5842259454
5.008083640809219	1842529.9676985415
5.058164477217312	2581316.963377775
5.108746121989485	1925207.7938315053
5.15983358320938	1205593.2919958625
5.211431919041474	833052.9702756954
5.263546238231889	1171555.0318880484
5.316181700614208	1539820.445284413
5.36934351762035	662373.0199564433
5.423036952796553	441361.37559614924
5.4772673223245185	467067.2672636303
5.532039995547764	558301.5631172884
5.587360395503242	361819.0500166689
5.643233999458275	262628.0879211711
5.6996663394528575	254968.06101612662
5.756663002847385	232217.53436745304
5.814229632875859	310833.5368638681
5.872371929204618	186844.6732880884
5.931095648496664	262182.17475661275
5.990406604981631	349692.26134433394
6.050310671031448	296799.5734293148
6.110813777741763	289419.9906664066
6.17192191551918	295674.2491096598
6.233641134674372	1010023.5222154722
6.295977546021115	1136432.715252774
6.358937321481327	613910.8473745321
6.42252669469614	157755.55160861503
6.486751961643101	131345.60612698714
6.551619481259532	175819.6963716665
6.617135676072128	156213.9274580554
6.683307032832849	302036.0360756117
6.750140103161177	395045.1029980036
6.81764150419279	394514.022652848
6.885817919234718	249088.04111268674
6.954676098427065	413048.0311806339
7.024222859411336	210819.06683498935
7.094465088005449	378055.27312590985
7.165409738885503	231472.85178531017
7.237063836274358	266964.1173155986
7.309434474637103	203654.06324737126
7.382528819383473	163624.00551592573
7.456354107577308	160119.1469711269
7.530917648653081	231831.5388166382
7.606226825139612	269977.937900243
7.682289093391009	118104.59501280848
7.759111984324918	207055.00201182632
7.836703104168168	214753.57097818752
7.91507013520985	201433.06869115913
7.994220836561947	247449.58294256448
8.074163044927568	259620.618044214
8.154904675376844	294952.59985843435
8.23645372213061	353106.34519844287
8.318818259351918	402016.70716181136
8.402006441945437	425276.1586393532
8.486026506364892	521020.2830607875
8.57088677142854	591975.3419459527
8.656595639142825	654622.304638242
8.743161595534254	732102.9798998167
8.830593211489598	800337.1184508047
8.918899143604493	748559.5592235841
9.00808813504054	801473.9690139355
9.098169016390944	882963.1321123473
9.189150706554853	921827.4141299997
9.281042213620402	840103.667131842
9.373852635756606	638026.7374725004
9.467591162114172	914568.2414245973
9.562267073735315	1016720.7926526637
9.657889744472667	760395.2106559554
9.754468641917395	939259.3977088198
9.852013328336568	740594.8731446905
9.950533461619933	958210.8879209493
10.050038796236134	869596.1210223834
10.150539184198495	926380.4823005538
10.252044576040479	780865.6446283779
10.354565021800884	462430.4173830493
10.458110672018893	572557.4584636971
10.562691778739081	686141.1012673617
10.668318696526473	603367.5935869467
10.775001883491738	554553.0832284786
10.882751902326655	585221.9102535732
10.991579421349924	430016.8767469539
11.101495215563421	620679.7464242453
11.212510167719055	483807.91272950405
11.324635269396246	515007.16652184346
11.43788162209021	585125.6568372927
11.552260438311112	364832.1530825429
11.667783042694223	410438.5374570457
11.784460873121166	388471.59202866984
11.902305481852377	446997.81937658036
12.0213285366709	455781.00346032233
12.14154182203761	494195.3506448973
12.262957240257986	344523.67526079644
12.385586812660566	277596.55233818485
12.509442680787172	272820.25116165914
12.634537107595044	347328.7423525197
12.760882478670995	322436.2859583713
12.888491303457704	292083.7179902968
13.01737621649228	249283.12045038462
13.147549978657205	274337.43958440446
13.279025478443776	193289.5024903887
13.411815733228213	185012.11113151957
13.545933890560496	253938.96895357285
13.681393229466101	205471.8817353931
13.818207161760762	197508.76204094238
13.956389233378369	207612.66234330868
14.095953125712155	217587.76838059834
14.236912656969274	191554.84816443973
14.379281783538968	133597.28795191456
14.523074601374358	126858.32217867362
14.6683053473881	179083.06614173812
14.814988400861985	161579.2996620694
14.963138284870602	141599.82310152086
15.11276966771931	156709.99530020088
15.263897364396504	177203.75192448002
15.41653633804047	136829.09539907257
15.570701701420873	91668.06258166161
15.726408718435081	79991.7069504541
15.883672805619431	162848.62375377226
16.042509533675627	106212.18186645581
16.202934629012383	98711.1999463979
16.36496397530251	99335.54468835721
16.528613615055534	91439.37219292005
16.69389975120609	76058.96057781941
16.86083874871815	68535.2721258223
17.02944713620533	93141.27207855487
17.199741607567383	62921.210520290624
17.37173902364306	57183.33025633821
17.54545641387949	61164.360254098414
17.720910978018285	63202.90324801393
17.898120087798468	59574.15003821329
18.077101288676452	63304.05912678316
18.257872301563214	51885.953893474136
18.44045102457885	57441.85920360312
18.62485553482464	48662.839843995855
18.811104090172883	79174.7258385581
18.999215131074614	40985.38963134872
19.189207282385357	43072.70093257514
19.381099355209216	34124.037212310635
19.574910348761303	36759.63363607348
19.77065945224892	38066.62618847224
19.968366046771408	50152.66674775045
20.16804970723912	43613.73890772739
20.369730204311512	33919.70812471705
20.573427506354626	28792.59582985041
20.779161781418175	35554.57427109801
20.98695339923236	26819.67627836063
21.19682293322468	25177.47012640912
21.408791162556927	35355.64347046482
21.622879074182496	24644.90788749296
21.839107864924323	20488.00217510257
22.057498943573567	22284.357793666983
22.278073933009303	26281.501219601356
22.500854672339393	18585.03633388516
22.72586321906279	36462.457497097654
22.953121851253417	17750.468460972894
23.18265306976595	30032.26210651174
23.41447960046361	25005.167958660575
23.648624396468247	14802.835024310087
23.88511064043293	13187.41797661971
24.12396174683726	28651.502433153586
24.365201364305634	26347.822799020876
24.608853377948687	24722.073911365598
24.854941911728176	19625.52945628523
25.103491330845458	10574.009702425585
25.354526244153913	10965.633909384838
25.608071506595454	20006.166449936612
25.864152221661406	14578.603751967432
26.122793743878024	14863.81953111564
26.384021681316803	16549.731162984986
26.64786189812997	8253.400219067655
26.91434051711127	12606.371493734292
27.18348392228238	15272.413690413814
27.455318761505207	18874.802083777067
27.72987194912026	14565.059646657659
28.007170668611465	7905.582793574768
28.28724237529758	6780.830123724119
28.57011479905055	6807.799748639481
28.855815947041062	10842.060003852404
29.144374106511474	7456.104724770119
29.435817847576587	9206.815617933438
29.730176026052348	7353.907090974713
30.027477786312875	9808.656697679447
30.327752564176006	6154.36829014956
30.631030089817763	6924.529188554947
30.93734039071594	6068.960527621769
31.246713794623105	7922.817952070846
31.559180932569333	9144.46991687471
31.874772741895026	6476.63903602792
32.19352046931398	8333.294835740475
32.51545567400712	7751.637436597426
32.84061023074719	3956.6398512284277
33.169016333054664	4437.756926462615
33.500706496385206	4888.399784009611
33.83571356134906	8227.329781623494
34.17407069696255	5044.1433628050445
34.51581140393218	3654.244370423498
34.8609695179715	4561.446367960868
35.209579213151216	3813.640192199698
35.56167500528272	3003.7899977524226
35.917291755335555	2762.1785622749308
36.27646467288891	3979.4727849363544
36.639229319617804	3945.1893262483036
37.005621612813975	5633.505812128112
37.37567782894212	3001.414782939893
37.74943460723154	3574.231993543824
38.12692895330385	5126.526388939624
38.5081982428369	4619.944626316209
38.893280225265265	2712.1000997884944
39.28221302751791	1950.8372835328644
39.6750351577931	3433.695172474241
40.071785509371026	2035.0693798280479
40.47250336446474	2019.7673661953665
40.87722839810939	2098.644644299262
41.28600068209048	3519.4439948045033
41.69886068891139	3476.8051351587114
42.1158492958005	2508.0089390332264
42.53700778875851	2560.3035315507423
42.962377866646094	1819.9646588564624
43.392001645312554	1708.0464998383125
43.825921661765676	1394.5549436055037
44.264180878383335	1476.225381676377
44.70682268716717	1476.5093649644448
45.15389091403884	1577.400467433954
45.60542982317923	2197.6104926434086
46.06148412141103	1736.576207824865
46.52209896262513	1299.394926481314
46.98731995225138	1284.0349884808852
47.4571931517739	1888.9789261555645
47.93176508329164	1071.3127011630193
48.411082734124555	1675.3259696838522
48.8951935614658	1033.3079126295193
49.38414549708046	885.8527282252068
49.877986952051266	967.7388657601801
50.37676682157178	934.2117598459304
50.88053448978749	901.8056096418672
51.38933983468537	870.4766911231706
51.903233233032225	840.1979593953569
52.422265565362544	810.9320250816662
52.946488221016175	782.6455249638881
53.47595310322633	755.3161713643105
54.010712634258596	728.9034138235239
54.550819760601186	703.3826591314532
55.0963279582072	678.7248355872827
55.647291237789275	654.9004362584263
56.20376415016716	631.8866199047995
56.765801791668835	609.6525132789001
57.33345980958552	588.1766451809395
57.906794407681375	567.4331774009432
58.48586235175819	547.3965960671864
59.070720975275776	528.0479349789492
59.661428185028534	509.3590858404975
60.25804246687882	491.31386618194125
60.860622891547614	473.8874684671371
61.46922912046309	457.060951339968
62.083921411667724	440.8155459786713
62.7047606257844	425.1287906531552
63.331808232042235	409.9871800473203
63.965126314362664	395.36851444695145
64.60477757750628	381.25653218553214
65.25082535328136	367.63515830575454
65.90333360681416	354.4856433340053
66.56236694288232	341.7963708554342
67.22799061231113	329.54821414742787
67.90027051843424	317.72748263717887
68.57927322361859	306.3206468266693
69.26506595585477	295.3120138583479
69.95771661541333	284.690636371681
70.65729378156746	274.4410162155051
71.36386671938313	264.5518310408515
72.07750538657696	255.0104920920028
72.79828044044274	245.8046265136281
73.52626324484716	236.92423549640424
74.26152587729563	228.356600236548
75.00414113606858	220.09250523661257
75.75418254742928	212.1206858351648
76.51172437290357	204.43044613865507
77.27684161663261	197.0140267882052
78.04961003279894	189.8599196847158
78.83010613312693	182.96109140175943
79.6184071944582	176.3071832333145
80.41459126640278	169.89014654364067
81.2187371790668	163.70249138289012
82.03092455085748	157.73508156982322
82.85123379636605	151.98145028199588
83.6797461343297	146.4331303641711
84.51654359567301	141.0833099445497
85.36170903162974	135.92575287741883
86.21532612194603	130.95256562863443
87.0774793831655	126.15863618312979
87.94825417699715	121.5365132767169
88.82773671876713	117.08087352334495
89.71601408595481	112.78561058761161
90.61317422681435	108.64484850555165
91.5193059690825	104.65406065472757
92.43449902877332	100.80667639686071
93.35884401906105	97.09889038644289
