#wavelength	surface flux
0.8	422448.66519789596
0.8002000000000001	424573.3143958799
0.8004000500000003	427137.2944909403
0.8006001500125003	429706.3478903864
0.8008003000500035	432276.0435531826
0.8010005001250161	434846.3816398957
0.8012007502500472	437417.3623111268
0.8014010504376099	439388.8300364028
0.8016014007002193	441159.75680751045
0.8018018010503944	442931.1263103109
0.8020022515006572	444702.9386554878
0.8022027520635323	446475.1939537495
0.8024033027515483	448270.5296000876
0.8026039035772362	450088.4977366619
0.8028045545531306	451906.9203652705
0.8030052556917691	453725.7975995371
0.803206007005692	455545.1295531107
0.8034068085074435	457481.9735507837
0.8036076602095705	459747.43029268435
0.8038085621246229	462013.45339876873
0.8040095142651542	464280.043010631
0.8042105166437206	466547.1992698955
0.8044115692728815	468804.67255112826
0.8046126721651998	470621.8496590897
0.8048138253332411	472439.48106132663
0.8050150287895745	474257.5668714158
0.805216282546772	476076.1072029571
0.8054175866174087	477895.10216958023
0.8056189410140631	479656.5358130552
0.8058203457493168	481401.98750376335
0.8060218008357541	483147.8755573919
0.8062233062859632	484894.2000830348
0.8064248621125346	486640.96118980786
0.806626468328063	488673.6602223142
0.8068281249451449	490952.078452548
0.8070298319763813	493231.06628734217
0.8072315894343755	495510.62386909337
0.8074333973317341	497790.7513402408
0.8076352556810671	499509.37391526747
0.8078371644949874	499875.4179381399
0.8080391237861113	500241.5534720181
0.8082411335670578	500607.7805397796
0.8084431938504498	500974.0991643084
0.8086453046489125	501309.92005734594
0.8088474659750746	501076.3067354259
0.8090496778415686	500842.63501017506
0.809251940261029	500608.904866993
0.8094542532460944	500375.1162912751
0.8096566168094059	500141.26926841337
0.8098590309636085	500340.6162949626
0.8100614957213493	500641.419446136
0.8102640110952797	500942.2977980973
0.8104665770980536	501243.2513696467
0.8106691937423283	501544.28017958906
0.8108718610407639	502178.82032212894
0.8110745790060241	503068.48016571807
0.8112773476507757	503958.3624242689
0.8114801669876885	504848.4671533841
0.8116830370294355	505738.7944086811
0.8118859577886929	506322.3227882724
0.8120889292781401	506268.3000573027
0.8122919515104597	506214.26382065023
0.8124950244983374	506160.2140749387
0.8126981482544621	506106.15081679064
0.8129013227915257	506128.8848294761
0.8131045481222237	507031.11977597635
0.8133078242592543	507933.5802812133
0.8135111512153191	508836.2664015762
0.813714529003123	509739.1781934694
0.8139179576353739	510642.3157133108
0.8141214371247829	517613.83312430163
0.8143249674840641	525763.8105612044
0.814528548725935	533915.8254924614
0.8147321808631167	542069.8784274624
0.8149358639083326	550225.9698756946
0.8151395978743097	555238.0156886654
0.8153433827737784	558125.6877197416
0.8155472186194719	561014.0816688244
0.8157511054241268	563903.1977163939
0.815955043200483	566793.0360429774
0.8161590319612831	569188.4678242415
0.8163630717192736	570677.2349157126
0.8165671624872033	572166.3741989549
0.8167713042778252	573655.8857670195
0.8169754971038948	575145.7697129768
0.8171797409781707	576394.1079780069
0.8173840359134155	575711.450796588
0.8175883819223938	575028.6229508745
0.8177927790178745	574345.6243981993
0.8179972272126291	573662.4550958856
0.8182017265194322	572979.115001247
0.8184062769510622	576758.0169206123
0.8186108785203001	581224.5628559004
0.8188155312399301	585692.2254276661
0.8190202351227402	590161.0049150798
0.819224990181521	594630.9015973625
0.8194297964290664	597387.0396351654
0.8196346538781738	599110.2281688188
0.8198395625416434	600833.8474996049
0.8200445224322789	602557.8977352245
0.820249533562887	604282.3789834024
0.8204545959462778	606168.527636092
0.8206597095952644	608314.6532725552
0.8208648745226633	610461.3154404291
0.8210700907412941	612608.5142738447
0.8212753582639793	614756.2499069665
0.8214806771035456	615896.3580337212
0.8216860472728215	610825.2299430103
0.8218914687846397	605752.8340702764
0.822096941651836	600679.1700985716
0.822302465887249	595604.2377108769
0.8225080415037209	590528.0365900825
0.8227136685140968	593423.5331929997
0.8229193469312254	597224.8520331105
0.8231250767679583	601027.1212029326
0.8233308580371503	604830.340940045
0.8235366907516598	608634.5114820945
0.8237425749243477	613190.7560373936
0.8239485105680789	618146.2480325656
0.824154497695721	623102.9789007333
0.824360536320145	628060.9489516189
0.8245666264542252	633020.158495017
0.8247727681108388	637196.627242659
0.8249789613028664	640251.3323357969
0.8251852060431922	643306.8011052107
0.825391502344703	646363.0337418155
0.8255978502202894	649420.0304365823
0.8258042496828445	652267.7961296636
0.8260107007452654	654096.4170396968
0.8262172034204517	655925.4951049556
0.8264237577213068	657755.0304397313
0.8266303636607373	659585.0231583414
0.8268370212516525	661415.4733751303
0.8270437305069654	660015.3744140381
0.8272504914395923	658362.4432463204
0.8274573040624523	656709.0988458103
0.8276641683884679	655055.3411092014
0.8278710844305652	653401.1699331566
0.8280780522016729	654519.1144201236
0.8282850717147234	656904.6563589154
0.8284921429826521	659290.7946831894
0.8286992660183978	661677.5295420462
0.8289064408349024	664064.8610846162
0.8291136674451112	665181.9335010262
0.8293209458619727	664696.7995029502
0.8295282760984382	664211.5442213751
0.829735658167463	663726.1676259792
0.8299430920820048	663240.6696864349
0.8301505778550254	662818.5112690352
0.8303581154994891	662649.5383342314
0.8305657050283641	662480.5231561937
0.8307733464546212	662311.4657243616
0.8309810397912352	662142.3660281714
0.8311887850511829	661973.2240570573
0.8313965822474458	668206.827101018
0.8316044313930077	674739.1757734942
0.8318123325008561	681273.1575331445
0.8320202855839813	687808.7727882315
0.8322282906553774	694346.0219471329
0.8324363477280413	696678.8497452082
0.8326444568149735	697318.91757463
0.8328526179291771	697959.1454210085
0.8330608310836596	698599.5333243494
0.8332690962914304	699240.0813246655
0.8334774135655034	699490.3398769931
0.833685782918895	699304.515985448
0.8338942043646247	699118.6456379301
0.834102677915716	698932.7288228252
0.834311203585195	698746.7655285166
0.8345197813860912	699908.9644295317
0.8347284113314379	705609.6503969838
0.8349370934342709	711311.7615359246
0.8351458277076294	717015.2982026433
0.8353546141645565	722720.2607535381
0.8355634528180977	728426.6495450682
0.8357723436813022	721662.5915432734
0.8359812867672226	714742.8466690889
0.8361902820889144	707821.3718586894
0.8363993296594368	700898.1666795851
0.8366084294918518	693973.2306991838
0.8368175815992247	696032.3405150065
0.8370267859946247	701186.7590117775
0.8372360426911234	706342.466113171
0.8374453517017962	711499.4621413393
0.8376547130397217	716657.7474185141
0.8378641267179816	719956.3484561918
0.8380735927496613	721409.2043620617
0.8382831111478488	722862.4234819073
0.8384926819256358	724316.005906532
0.8387023050961173	725769.9517267642
0.8389119806723914	727134.3976491862
0.8391217086675596	728246.2797559861
0.8393314890947265	729358.4398333118
0.8395413219670003	730470.8779506569
0.8397512072974922	731583.5941775322
0.8399611450993165	732803.7610639269
0.8401711353855914	739346.3800705373
0.8403811781694378	745890.6347318977
0.8405912734639802	752436.5254569252
0.8408014212823464	758984.0526546368
0.8410116216376671	765533.216734147
0.8412218745430766	770916.1169385809
0.8414321800117124	775960.5486964795
0.8416425380567154	781006.2415623202
0.8418529486912297	786053.1958513784
0.8420634119284025	791101.4118790046
0.8422739277813847	794032.5593069542
0.8424844962633302	795098.108016733
0.842695117387396	796163.9231136879
0.8429057911667428	797230.0046644171
0.8431165176145345	798296.3527355345
0.8433272967439382	799469.7154422828
0.8435381285681244	800903.7595815256
0.8437490131002665	802338.1622318028
0.8439599503535415	803772.9234827418
0.84417094034113	805208.0434239946
0.8443819830762154	806691.0784946264
0.8445930785719846	809132.5110480427
0.8448042268416277	811574.553959596
0.8450154278983382	814017.2073818769
0.8452266817553128	816460.4714675132
0.8454379884257517	818904.3463691712
0.8456493479228583	821702.3910031987
0.845860760259839	824586.2763478956
0.846072225449904	827470.8826639287
0.8462837435062666	830356.2101315412
0.8464953144421433	833242.2589310225
0.8467069382707537	835319.3975566872
0.8469186150053215	836765.9724329963
0.847130344659073	838212.9089530249
0.8473421272452377	839660.2072071821
0.8475539627770492	841107.8672859044
0.8477658512677435	842868.6126352847
0.8479777927305605	845293.8250366366
0.8481897871787432	847719.6437410881
0.848401834625538	850146.0689002172
0.8486139350841944	852573.1006656345
0.8488260885679657	854926.5329562097
0.8490382950901076	856376.0059705169
0.8492505546638802	857825.8413530786
0.8494628673025462	859276.0391944853
0.8496752330193721	860726.5995853544
0.8498876518276269	862177.5226163195
0.8501001237405839	860417.3223384524
0.8503126487715191	858015.6129942028
0.850525226933712	855613.3032226184
0.8507378582404455	853210.3928735912
0.8509505427050057	850806.8817969753
0.8511632803406821	849697.2238230362
0.8513760711607672	849473.7523749673
0.8515889151785576	849250.225059036
0.8518018124073523	849026.6418612761
0.8520147628604541	848803.0027677168
0.8522277665511693	850671.7024455152
0.8524408234928071	856410.500338587
0.8526539336986805	862150.7329311336
0.8528670971821053	867892.4005818287
0.8530803139564007	873635.5036494297
0.8532935840348901	879321.1409640369
0.8535069074308987	884510.7461787583
0.8537202841577566	889701.6487947878
0.8539337142287962	894893.8491364719
0.8541471976573534	900087.3475282382
0.8543607344567677	905282.1442946033
0.8545743246403821	908598.9632953218
0.8547879682215422	911618.160919116
0.8550016652135977	914638.1133423157
0.8552154156299011	917658.8207536214
0.8554292194838088	920680.2833417822
0.8556430767886797	923083.297368833
0.855856987557877	925110.9478792117
0.8560709518047664	927139.1053022167
0.8562849695427177	929167.7697645783
0.8564990407851035	931196.9413930561
0.8567131655452999	933206.3561604327
0.8569273438366862	935183.069788887
0.8571415756726455	937160.277595749
0.8573558610665638	939137.9797045633
0.8575702000318304	941116.1762389026
0.8577845925818384	943136.9389513122
0.857999038729984	945421.0017480528
0.8582135384896665	947705.6355604919
0.858428091874289	949990.8405313843
0.8586426988972576	952276.6168035188
0.8588573595719821	954562.9645197223
0.8590720739118751	956378.7498439909
0.8592868419303532	958139.4410107397
0.8595016636408359	959900.5723502801
0.8597165390567462	961662.1439726548
0.8599314681915105	963424.1559879356
0.8601464510585584	965073.657719427
0.860361487671323	966663.6183371928
0.8605765780432408	968253.9764451126
0.8607917221877518	969844.7321425608
0.8610069201182988	971435.8855289327
0.8612221718483286	971799.2918233299
0.8614374773912907	970392.2519193374
0.8616528367606385	968984.8602553692
0.8618682499698288	967577.1167434842
0.8620837170323213	966169.0212957214
0.8622992379615795	965326.0865879678
0.8625148127710699	967281.4471564892
0.8627304414742627	969237.296565153
0.8629461240846313	971193.6349361694
0.8631618606156526	973150.4623917786
0.8633776510808066	975107.7790542513
0.8635934954935769	979382.5282533679
0.8638093938674504	983848.2701650072
0.8640253462159173	988315.1285121243
0.8642413525524714	992783.103573828
0.8644574128906095	997252.1956292962
0.8646735272438323	999296.0359224103
0.8648896956256433	1000212.0583426565
0.8651059180495498	1001128.3097685078
0.8653221945290621	1002044.7902572147
0.8655385250776946	1002961.4998660451
0.8657549097089641	1005107.2487895624
0.8659713484363913	1008826.681249679
0.8661878412735006	1012547.0435679122
0.866404388233819	1016268.3359767246
0.8666209893308775	1019990.5587086375
0.8668376445782103	1023287.8688038273
0.8670543539893549	1024847.9209830895
0.8672711175778525	1026408.3631753975
0.8674879353572469	1027969.1954782519
0.8677048073410862	1029530.4179891826
0.8679217335429217	1031092.030805742
0.8681387139763074	1032531.5332818881
0.8683557486548015	1033965.3101088091
0.8685728375919655	1035399.4453799386
0.8687899808013633	1036833.9391848827
0.8690071782965637	1038268.7916132798
0.869224430091138	1041083.2452583737
0.8694417361986609	1044459.6145480268
0.8696590966327107	1047836.8279300017
0.869876511406869	1051214.8856153223
0.8700939805347206	1054593.7878150623
0.8703115040298544	1057852.921907556
0.870529081905862	1060974.9754236941
0.8707467141763385	1064097.8094532103
0.8709644008548827	1067221.4241912337
0.8711821419550964	1070345.8198329394
0.8713999374905854	1073282.5434533833
0.871617787474958	1075569.5841510976
0.8718356919218269	1077857.1966089883
0.8720536508448075	1080145.3809699938
0.8722716642575187	1082434.1373770882
0.8724897321735832	1084723.4659732853
0.8727078546066265	1086533.6523767083
0.8729260315702784	1088336.9932951606
0.873144263078171	1090140.7850488408
0.8733625491439405	1091945.0277504595
0.8735808897812266	1093749.7215127542
0.8737992850036719	1094274.65763884
0.874017734824923	1094346.296088761
0.8742362392586293	1094417.9524482943
0.874454798318444	1094489.6267219177
0.8746734120180236	1094561.3189141094
0.8748920803710283	1095125.5235378013
0.875110803391121	1096184.7792654529
0.8753295810919689	1097244.299807037
0.875548413487242	1098304.0852287565
0.8757673005906139	1099364.1355968313
0.8759862424157616	1101104.4430992121
0.8762052389763657	1104812.774973322
0.8764242902861098	1108522.0339303978
0.8766433963586814	1112232.2202022139
0.8768625572077712	1115943.334020599
0.8770817728470732	1119625.6404220208
0.8773010432902849	1120987.2183707193
0.8775203685511077	1122349.136713907
0.8777397486432454	1123711.3955366788
0.8779591835804065	1125073.9949241579
0.8781786733763015	1126436.9349614822
0.8783982180446457	1126352.4853068155
0.878617817599157	1125837.3417978575
0.8788374720535569	1125322.0695030224
0.8790571814215703	1124806.6683901136
0.8792769457169257	1124291.138426927
0.879496764953355	1122128.8466071119
0.8797166391445934	1118485.5830177965
0.8799365683043796	1114841.4086125833
0.8801565524464557	1111196.323163769
0.8803765915845676	1107550.326443589
0.8805966857324639	1107008.679440004
0.880816834903897	1114266.382279504
0.881037039112623	1121525.8995447168
0.8812572983724012	1128787.2316892454
0.8814776126969944	1136050.3791668133
0.8816979821001687	1143000.8873915884
0.8819184065956938	1142550.808681087
0.8821388861973429	1142100.6174509076
0.8823594209188923	1141650.3136729212
0.882580010774122	1141199.8973189902
0.8828006557768155	1140749.3683609706
0.8830213559407598	1141538.3963290458
0.8832421112797452	1142639.4110315687
0.8834629218075651	1143740.7009877665
0.8836837875380171	1144842.2662664538
0.8839047084849018	1145944.1069364608
0.884125684662023	1147154.1142759188
0.8843467160831886	1148450.88514216
0.8845678027622095	1149747.980201118
0.8847889447129001	1151045.3995338408
0.8850101419490785	1152343.1432213965
0.8852313944845657	1153966.7578129838
0.885452702333187	1156303.3595984227
0.8856740655087704	1158640.5455343076
0.8858954840251476	1160978.3157666759
0.8861169578961539	1163316.6704416012
0.886338487135628	1165159.5006418496
0.886560071757412	1160400.8664136117
0.8867817117753515	1155641.0425268167
0.8870034072032955	1150880.0286840477
0.8872251580550963	1146117.8245878238
0.8874469643446101	1141354.429940573
0.8876688260856963	1144527.0878799951
0.8878907432922178	1149343.2532345601
0.8881127159780409	1154160.6226304607
0.8883347441570356	1158979.1963687162
0.8885568278430749	1163798.974750401
0.8887789670500358	1168139.1066258464
0.8890011617917983	1172139.2201880575
0.8892234120822464	1176140.3337786607
0.8894457179352669	1180142.4476476586
0.8896680793647509	1184145.562045127
0.8898904963845921	1185656.5173976088
0.8901129690086883	1182410.8359183483
0.8903354972509405	1179164.3430187188
0.8905580811252535	1175917.0384958617
0.8907807206455347	1172668.9221468784
0.8910034158256963	1169132.6907625822
0.8912261666796527	1163027.9587348734
0.8914489732213227	1156921.7005241562
0.8916718354646282	1150813.9157488802
0.8918947534234944	1144704.6040274163
0.8921177271118502	1138593.764978026
0.8923407565436284	1129573.9556954694
0.8925638417327644	1120077.6085279505
0.8927869826931977	1110578.8872736362
0.8930101794388711	1101077.791339009
0.8932334319837308	1091574.3201304
0.8934567403417267	1082304.9748839973
0.8936801045268123	1073180.270348799
0.8939035245529441	1064053.284637473
0.8941270004340824	1054924.017179716
0.894350532184191	1045792.4674050964
0.8945741198172371	1049546.545145231
0.8947977633471915	1074674.623488943
0.8950214627880284	1099808.9838522398
0.8952452181537254	1124949.6278056125
0.8954690294582639	1150096.5569199887
0.8956928967156286	1172015.9277091594
0.8959168199398075	1172954.2759052676
0.8961407991447926	1173892.858688425
0.8963648343445789	1174831.6761172782
0.896588925553165	1175770.7282504882
0.8968130727845534	1176710.0151467314
0.8970372760527496	1175103.1372189384
0.8972615353717629	1173177.2516961945
0.8974858507556059	1171250.88470207
0.8977102222182949	1169324.036116197
0.8979346497738496	1167396.7058181767
0.8981591334362931	1180886.6233346947
0.8983836732196523	1202811.5071491138
0.8986082691379572	1224741.872184472
0.8988329212052417	1246677.7198110889
0.8990576294355432	1268619.0513996314
0.8992823938429022	1283600.535256721
0.8995072144413631	1288229.1993763424
0.8997320912449734	1292859.0206619918
0.8999570242677847	1297489.999402962
0.9001820135238516	1302122.1358886173
0.9004070590272328	1306151.1313157226
0.9006321607919896	1307013.1919832618
0.9008573188321878	1307875.4681659688
0.9010825331618959	1308737.9599177209
0.9013078037951865	1309600.6672924112
0.9015331307461353	1310463.590343945
0.9017585140288219	1312872.934327505
0.9019839536573292	1315416.0593088055
0.9022094496457435	1317959.8200713494
0.9024350020081551	1320504.2167740867
0.9026606107586572	1323049.2495759989
0.902886275911347	1331299.0166000715
0.9031119974803249	1342300.6183264772
0.9033377754796951	1353304.9704533147
0.903563609923565	1364312.073668179
0.903789500826046	1375321.9286588544
0.9040154482012526	1382738.9786539243
0.904241452063303	1385500.152167936
0.9044675124263188	1388262.0159753258
0.9046936293044254	1391024.570248667
0.9049198027117517	1393787.815160578
0.9051460326624297	1396450.6543091396
0.9053723191705955	1398683.6664342443
0.9055986622503881	1400917.236812378
0.9058250619159507	1403151.3655831064
0.9060515181814298	1405386.052886029
0.9062780310609752	1407621.2988607755
0.9065046005687405	1395222.3844239325
0.906731226718883	1382003.942540821
0.9069579095255627	1368782.1960472558
0.907184649002944	1355557.1441170662
0.907411445165195	1342328.7859238805
0.9076382980264862	1350211.789546948
0.907865207600993	1366865.6468112892
0.9080921739028933	1383523.667539942
0.9083191969463691	1400185.8527737742
0.9085462767456058	1416852.203553923
0.9087734133147922	1426790.6801562149
0.9090006066681211	1428956.0508482342
0.909227856819788	1431121.962882924
0.9094551637839932	1433288.416395625
0.9096825275749393	1435455.4115217037
0.9099099482068329	1438407.864263075
0.9101374256938848	1444150.6597173677
0.9103649600503083	1449894.8908705213
0.9105925512903209	1455640.558081462
0.9108201994281437	1461387.6617092118
0.9110479044780008	1467136.2021128617
0.9112756664541204	1472352.0350540795
0.911503485370734	1477556.9454778614
0.9117313612420768	1482763.1571292495
0.9119592940823873	1487970.6703335487
0.912187283905908	1493179.4854161504
0.9124153307268845	1484093.9145712452
0.9126434345595664	1469817.5731473756
0.9128715954182063	1455537.6626381637
0.9130998133170609	1441254.1821513171
0.9133280882703902	1426967.1307943496
0.913556420292458	1424247.4629687928
0.9137848093975312	1433460.4122709949
0.9140132555998806	1442675.6648105215
0.9142417589137806	1451893.2211631835
0.9144703193535092	1461113.0819049396
0.9146989369333476	1468106.0260121652
