#wavelength	surface flux
0.8	509138.85421168874
0.8002000000000001	511662.17921216146
0.8004000500000003	514604.55058242934
0.8006001500125003	517551.8839544494
0.8008003000500035	520499.9541598127
0.8010005001250161	523448.7613827287
0.8012007502500472	526398.3058074462
0.8014010504376099	528723.9855742714
0.8016014007002193	530841.0241585883
0.8018018010503944	532958.5920025513
0.8020022515006572	535076.6892384762
0.8022027520635323	537195.3159987084
0.8024033027515483	539337.3213277861
0.8026039035772362	541502.2532016184
0.8028045545531306	543667.7263084194
0.8030052556917691	545833.740783498
0.803206007005692	548000.2967621936
0.8034068085074435	550283.8937727085
0.8036076602095705	552894.6265692243
0.8038085621246229	555506.0120489373
0.8040095142651542	558118.0503750216
0.8042105166437206	560730.7417106867
0.8044115692728815	563332.8334334885
0.8046126721651998	565451.5735404273
0.8048138253332411	567570.843332391
0.8050150287895745	569690.6429418046
0.805216282546772	571810.9725011201
0.8054175866174087	573931.8321428243
0.8056189410140631	576002.295395316
0.8058203457493168	578058.8607316337
0.8060218008357541	580115.9402092829
0.8062233062859632	582173.5339568025
0.8064248621125346	584231.6421027576
0.806626468328063	586586.8968279689
0.8068281249451449	589197.5114148881
0.8070298319763813	591808.7786554572
0.8072315894343755	594420.6987128344
0.8074333973317341	597033.271750227
0.8076352556810671	599058.0168723605
0.8078371644949874	599666.6960074552
0.8080391237861113	600275.5273123339
0.8082411335670578	600884.5108250384
0.8084431938504498	601493.6465836216
0.8086453046489125	602072.2702960473
0.8088474659750746	602080.1237757774
0.8090496778415686	602087.9792188775
0.809251940261029	602095.8366258384
0.8094542532460944	602103.6959971511
0.8096566168094059	602111.5573333065
0.8098590309636085	602566.0611441714
0.8100614957213493	603125.2184391539
0.8102640110952797	603684.5155234602
0.8104665770980536	604243.9524320378
0.8106691937423283	604803.5291998428
0.8108718610407639	605716.5058679736
0.8110745790060241	606899.8301656352
0.8112773476507757	608083.4502943723
0.8114801669876885	609267.3663281413
0.8116830370294355	610451.578340918
0.8118859577886929	611322.5742132962
0.8120889292781401	611542.609299733
0.8122919515104597	611762.6993949414
0.8124950244983374	611982.8445126737
0.8126981482544621	612203.0446666853
0.8129013227915257	612500.0079577939
0.8131045481222237	613675.3648140356
0.8133078242592543	614851.0155094916
0.8135111512153191	616026.960117621
0.813714529003123	617203.1987119026
0.8139179576353739	618379.731365833
0.8141214371247829	625774.4799979557
0.8143249674840641	634376.8369473104
0.814528548725935	642981.3444858971
0.8147321808631167	651588.0031513802
0.8149358639083326	660196.8134815269
0.8151395978743097	665566.4624783548
0.8153433827737784	668747.4864687981
0.8155472186194719	671929.3057152379
0.8157511054241268	675111.9204164887
0.815955043200483	678295.330771417
0.8161590319612831	680969.5684201851
0.8163630717192736	682710.0194070679
0.8165671624872033	684450.9055066955
0.8167713042778252	686192.2268278498
0.8169754971038948	687933.9834793351
0.8171797409781707	689421.5177958683
0.8173840359134155	688876.4121153569
0.8175883819223938	688331.1701584258
0.8177927790178745	687785.7918910052
0.8179972272126291	687240.2772790176
0.8182017265194322	686694.6262883776
0.8184062769510622	690645.5289526271
0.8186108785203001	695289.3933896013
0.8188155312399301	699934.4187926784
0.8190202351227402	704580.6054521116
0.819224990181521	709227.9536582066
0.8194297964290664	712391.2384492137
0.8196346538781738	714660.0971751927
0.8198395625416434	716929.5231158523
0.8200445224322789	719199.5164129981
0.820249533562887	721470.0772084674
0.8204545959462778	723809.8357832973
0.8206597095952644	726260.6376539798
0.8208648745226633	728712.0522251319
0.8210700907412941	731164.0796499263
0.8212753582639793	733616.7200815744
0.8214806771035456	735038.1540952155
0.8216860472728215	730102.6777536407
0.8218914687846397	725165.9675429803
0.822096941651836	720228.0231547647
0.822302465887249	715288.8442804548
0.8225080415037209	710348.4306114238
0.8227136685140968	713576.4859339515
0.8229193469312254	717732.7804310744
0.8231250767679583	721890.1140018231
0.8233308580371503	726048.4869059621
0.8235366907516598	730207.8994033303
0.8237425749243477	735103.5592533761
0.8239485105680789	740390.115917672
0.824154497695721	745677.9942211309
0.824360536320145	750967.1944941664
0.8245666264542252	756257.7170672701
0.8247727681108388	760763.8243359531
0.8249789613028664	764145.7335225369
0.8251852060431922	767528.4881864204
0.825391502344703	770912.0885389684
0.8255978502202894	774296.5347916074
0.8258042496828445	777456.6656857108
0.8260107007452654	779524.0740762657
0.8262172034204517	781591.999318916
0.8264237577213068	783660.4415428776
0.8266303636607373	785729.400877396
0.8268370212516525	787798.8774517471
0.8270437305069654	786636.3684556988
0.8272504914395923	785220.969736187
0.8274573040624523	783805.2171669949
0.8276641683884679	782389.1106596619
0.8278710844305652	780972.6501257003
0.8280780522016729	782352.58057272
0.8282850717147234	785011.2430066712
0.8284921429826521	787670.570106228
0.8286992660183978	790330.5620375618
0.8289064408349024	792991.2189668765
0.8291136674451112	794376.8429502391
0.8293209458619727	794154.2219470581
0.8295282760984382	793931.5452886266
0.829735658167463	793708.8129610303
0.8299430920820048	793486.0249503523
0.8301505778550254	793339.9982599367
0.8303581154994891	793500.5342736815
0.8305657050283641	793661.1104214299
0.8307733464546212	793821.726713215
0.8309810397912352	793982.3831590734
0.8311887850511829	794143.079769043
0.8313965822474458	800674.5984611843
0.8316044313930077	807503.4517211838
0.8318123325008561	814334.012194505
0.8320202855839813	821166.2803079409
0.8322282906553774	828000.2564884059
0.8324363477280413	830591.353219939
0.8326444568149735	831474.2415941429
0.8328526179291771	832357.3506904391
0.8330608310836596	833240.6805640109
0.8332690962914304	834124.2312700497
0.8334774135655034	834616.9584564901
0.833685782918895	834672.999380188
0.8338942043646247	834729.0543141168
0.834102677915716	834785.1232617792
0.834311203585195	834841.2062266783
0.8345197813860912	836260.473970692
0.8347284113314379	842268.6567826607
0.8349370934342709	848278.341640329
0.8351458277076294	854289.5289192045
0.8353546141645565	860302.2189949097
0.8355634528180977	866316.4122431312
0.8357723436813022	859746.6022358375
0.8359812867672226	853019.7508350379
0.8361902820889144	846291.2177213915
0.8363993296594368	839561.0024744646
0.8366084294918518	832829.1046737238
0.8368175815992247	835190.8355193344
0.8370267859946247	840685.6755391941
0.8372360426911234	846181.8892690571
0.8374453517017962	851679.4770523519
0.8376547130397217	857178.439232592
0.8378641267179816	860766.1749821394
0.8380735927496613	862457.010121443
0.8382831111478488	864148.2679695303
0.8384926819256358	865839.948632079
0.8387023050961173	867532.0522147946
0.8389119806723914	869141.4976439463
0.8391217086675596	870517.5278478322
0.8393314890947265	871893.902059268
0.8395413219670003	873270.6203642568
0.8397512072974922	874647.6828488228
0.8399611450993165	876134.0065860369
0.8401711353855914	883029.4805552276
0.8403811781694378	889926.6783929088
0.8405912734639802	896825.600530051
0.8408014212823464	903726.247397731
0.8410116216376671	910628.6194271268
0.8412218745430766	916346.6700952618
0.8414321800117124	921721.0563803412
0.8416425380567154	927096.7862619944
0.8418529486912297	932473.8600761194
0.8420634119284025	937852.2781586933
0.8422739277813847	941089.41381612
0.8424844962633302	942439.6212024014
0.842695117387396	943790.1661405275
0.8429057911667428	945141.0487148883
0.8431165176145345	946492.2690098933
0.8433272967439382	947932.0149045868
0.8435381285681244	949587.2352213087
0.8437490131002665	951242.8693431094
0.8439599503535415	952898.9173734395
0.84417094034113	954555.3794157784
0.8443819830762154	956264.3277191703
0.8445930785719846	959022.7010831112
0.8448042268416277	961781.7640403918
0.8450154278983382	964541.5167634112
0.8452266817553128	967301.9594246112
0.8454379884257517	970063.0921964769
0.8456493479228583	973169.0845384229
0.845860760259839	976358.7334791152
0.846072225449904	979549.1798320425
0.8462837435062666	982740.4237965588
0.8464953144421433	985932.4655720681
0.8467069382707537	988295.5097781869
0.8469186150053215	990012.3445753842
0.847130344659073	991729.6085812812
0.8473421272452377	993447.3019031779
0.8475539627770492	995165.4246484069
0.8477658512677435	997196.7425601832
0.8479777927305605	999892.6849435569
0.8481897871787432	1002589.3013125258
0.848401834625538	1005286.5918355884
0.8486139350841944	1007984.5566812801
0.8488260885679657	1010603.0721679755
0.8490382950901076	1012245.5609935572
0.8492505546638802	1013888.4604413463
0.8494628673025462	1015531.7706139967
0.8496752330193721	1017175.4916141926
0.8498876518276269	1018819.6235446364
0.8501001237405839	1016797.2601448606
0.8503126487715191	1014042.4122428548
0.850525226933712	1011286.8756288752
0.8507378582404455	1008530.6501307421
0.8509505427050057	1005773.7355762328
0.8511632803406821	1004446.5207765142
0.8513760711607672	1004098.5286985235
0.8515889151785576	1003750.4496225127
0.8518018124073523	1003402.2835267332
0.8520147628604541	1003054.03038943
0.8522277665511693	1005156.32086633
0.8524408234928071	1011791.2821289708
0.8526539336986805	1018427.9021319293
0.8528670971821053	1025066.1812898888
0.8530803139564007	1031706.12001763
0.8532935840348901	1038276.9521027406
0.8535069074308987	1044251.7665662959
0.8537202841577566	1050228.074733472
0.8539337142287962	1056205.8769776905
0.8541471976573534	1062185.1736724663
0.8543607344567677	1068165.965191417
0.8545743246403821	1071922.2489059982
0.8547879682215422	1075325.9569728065
0.8550016652135977	1078730.5159666308
0.8552154156299011	1082135.9261002038
0.8554292194838088	1085542.1875863126
0.8556430767886797	1088291.088819656
0.855856987557877	1090641.0284467428
0.8560709518047664	1092991.5555587348
0.8562849695427177	1095342.6703025058
0.8564990407851035	1097694.3728249634
0.8567131655452999	1100021.4659011557
0.8569273438366862	1102307.8540158586
0.8571415756726455	1104594.8137275905
0.8573558610665638	1106882.3451792512
0.8575702000318304	1109170.4485137723
0.8577845925818384	1111504.5525391486
0.857999038729984	1114123.0042683112
0.8582135384896665	1116742.1106104052
0.858428091874289	1119361.8717290852
0.8586426988972576	1121982.287788044
0.8588573595719821	1124603.3589510184
0.8590720739118751	1126713.7986480573
0.8592868419303532	1128764.483721395
0.8595016636408359	1130815.681466001
0.8597165390567462	1132867.3920100424
0.8599314681915105	1134919.6154817205
0.8601464510585584	1136826.9881910214
0.860361487671323	1138657.6796435104
0.8605765780432408	1140488.8287688622
0.8607917221877518	1142320.4356814967
0.8610069201182988	1144152.500495859
0.8612221718483286	1144444.9251152421
0.8614374773912907	1142517.1628477026
0.8616528367606385	1140588.9186395966
0.8618682499698288	1138660.1923704373
0.8620837170323213	1136730.983919711
0.8622992379615795	1135477.2820298078
0.8625148127710699	1137568.4766132098
0.8627304414742627	1139660.1939952578
0.8629461240846313	1141752.4343066518
0.8631618606156526	1143845.1976781236
0.8633776510808066	1145938.4842404379
0.8635934954935769	1151312.9518954016
0.8638093938674504	1156957.684618283
0.8640253462159173	1162603.828524345
0.8642413525524714	1168251.3839663835
0.8644574128906095	1173900.3512972814
0.8646735272438323	1176222.5956148985
0.8648896956256433	1176997.7453817166
0.8651059180495498	1177773.0889359766
0.8653221945290621	1178548.6263261242
0.8655385250776946	1179324.3576006205
0.8657549097089641	1181651.644223037
0.8659713484363913	1185965.5963070367
0.8661878412735006	1190280.6268790595
0.866404388233819	1194596.7362087248
0.8666209893308775	1198913.9245657206
0.8668376445782103	1202748.2664903095
0.8670543539893549	1204608.4204380165
0.8672711175778525	1206469.0394242117
0.8674879353572469	1208330.1235651516
0.8677048073410862	1210191.6729771274
0.8679217335429217	1212053.687776457
0.8681387139763074	1213930.2289140509
0.8683557486548015	1215807.9376933675
0.8685728375919655	1217686.115899881
0.8687899808013633	1219564.7636509426
0.8690071782965637	1221443.8810639442
0.869224430091138	1224513.1076028813
0.8694417361986609	1228067.1641947003
0.8696590966327107	1231622.1093006667
0.869876511406869	1235177.9431429098
0.8700939805347206	1238734.6659436116
0.8703115040298544	1242207.3421204486
0.870529081905862	1245583.7802707
0.8707467141763385	1248961.062530488
0.8709644008548827	1252339.1891108407
0.8711821419550964	1255718.1602228363
0.8713999374905854	1258933.0991029735
0.871617787474958	1261579.794072444
0.8718356919218269	1264227.1507156596
0.8720536508448075	1266875.169198036
0.8722716642575187	1269523.8496850315
0.8724897321735832	1272173.1923421498
0.8727078546066265	1274351.4313726977
0.8729260315702784	1276523.0378551455
0.873144263078171	1278695.1872392113
0.8733625491439405	1280867.8796606236
0.8735808897812266	1283041.1152551419
0.8737992850036719	1283890.674318729
0.874017734824923	1284271.4288786594
0.8742362392586293	1284652.2786272294
0.874454798318444	1285033.2235882368
0.8746734120180236	1285414.2637854842
0.8748920803710283	1286316.3362531557
0.875110803391121	1287742.1262959866
0.8753295810919689	1289168.272786329
0.875548413487242	1290594.7758132939
0.8757673005906139	1292021.6354660157
0.8759862424157616	1294154.2868349259
0.8762052389763657	1298328.6808342624
0.8764242902861098	1302504.118432096
0.8766433963586814	1306680.59988933
0.8768625572077712	1310858.12546693
0.8770817728470732	1315005.1784980225
0.8773010432902849	1316692.50608647
0.8775203685511077	1318380.2555068175
0.8777397486432454	1320068.4268645176
0.8779591835804065	1321757.0202650593
0.8781786733763015	1323446.035813949
0.8783982180446457	1323519.1397087907
0.878617817599157	1323111.4327535909
0.8788374720535569	1322703.6238716524
0.8790571814215703	1322295.7130374934
0.8792769457169257	1321887.700225626
0.879496764953355	1319985.5737764952
0.8797166391445934	1316739.7572082854
0.8799365683043796	1313493.1291859332
0.8801565524464557	1310245.6895065755
0.8803765915845676	1306997.4379672948
0.8805966857324639	1306856.47143304
0.880816834903897	1314522.0777223995
0.881037039112623	1322189.6004133343
0.8812572983724012	1329859.0399849412
0.8814776126969944	1337530.3969164442
0.8816979821001687	1344897.7678684096
0.8819184065956938	1345065.9532798985
0.8821388861973429	1345234.1807377404
0.8823594209188923	1345402.4502524463
0.882580010774122	1345570.761834531
0.8828006557768155	1345739.1154945116
0.8830213559407598	1347074.3206253413
0.8832421112797452	1348703.3239610882
0.8834629218075651	1350332.734547668
0.8836837875380171	1351962.5524868947
0.8839047084849018	1353592.7778806067
0.884125684662023	1355021.0236492793
0.8843467160831886	1356287.4390013306
0.8845678027622095	1357554.1709572198
0.8847889447129001	1358821.2195960984
0.8850101419490785	1360088.5849971364
0.8852313944845657	1361930.3892007533
0.885452702333187	1365029.3364121132
0.8856740655087704	1368129.0583602756
0.8858954840251476	1371229.555238924
0.8861169578961539	1374330.8272417907
0.886338487135628	1376892.6604399192
0.886560071757412	1372266.284991871
0.8867817117753515	1367638.752949961
0.8870034072032955	1363010.0640250384
0.8872251580550963	1358380.21792789
0.8874469643446101	1353749.2143692144
0.8876688260856963	1357244.051578328
0.8878907432922178	1362421.7489937535
0.8881127159780409	1367600.7408335293
0.8883347441570356	1372781.0274212714
0.8885568278430749	1377962.6090806553
0.8887789670500358	1382567.8968574323
0.8890011617917983	1386764.6093449062
0.8892234120822464	1390962.371010504
0.8894457179352669	1395161.1821165145
0.8896680793647509	1399361.042925305
0.8898904963845921	1401054.0522008538
0.8901129690086883	1397962.342654468
0.8903354972509405	1394869.8601806965
0.8905580811252535	1391776.6045863042
0.8907807206455347	1388682.5756780175
0.8910034158256963	1385274.6239579092
0.8912261666796527	1379067.2162296781
0.8914489732213227	1372858.2566495133
0.8916718354646282	1366647.7448294475
0.8918947534234944	1360435.6803814324
0.8921177271118502	1354222.0629173093
0.8923407565436284	1345198.1292820838
0.8925638417327644	1335713.7540823491
0.8927869826931977	1326227.0077888113
0.8930101794388711	1316737.8898087007
0.8932334319837308	1307246.3995490964
0.8934567403417267	1298149.0885195222
0.8936801045268123	1289295.9136137941
0.8939035245529441	1280440.5254143458
0.8941270004340824	1271582.9233678442
0.894350532184191	1262723.106920833
0.8945741198172371	1267114.622813798
0.8947977633471915	1293486.6638405493
0.8950214627880284	1319865.2978775562
0.8952452181537254	1346250.5265730564
0.8954690294582639	1372642.3515757467
0.8956928967156286	1395710.034355231
0.8959168199398075	1397168.16679484
0.8961407991447926	1398626.6637675592
0.8963648343445789	1400085.5253645217
0.896588925553165	1401544.7516768826
0.8968130727845534	1403004.3427958216
0.8970372760527496	1401648.1702227127
0.8972615353717629	1399939.3042082458
0.8974858507556059	1398230.0109772754
0.8977102222182949	1396520.2904229977
0.8979346497738496	1394810.1424385805
0.8981591334362931	1408668.5807812782
0.8983836732196523	1431044.8113331322
0.8986082691379572	1453426.6359426095
0.8988329212052417	1475814.056008239
0.8990576294355432	1498207.0729289046
0.8992823938429022	1513559.294696596
0.8995072144413631	1518438.2629826656
0.8997320912449734	1523318.4510108049
0.8999570242677847	1528199.85908595
0.9001820135238516	1533082.4875131145
0.9004070590272328	1537405.7393966105
0.9006321607919896	1538791.2303114515
0.9008573188321878	1540177.0675990225
0.9010825331618959	1541563.2513459148
0.9013078037951865	1542949.781638744
0.9015331307461353	1544336.6585641457
0.9017585140288219	1547243.6928439639
0.9019839536573292	1550282.3591117049
0.9022094496457435	1553321.7850460105
0.9024350020081551	1556361.9708368033
0.9026606107586572	1559402.9166740428
0.902886275911347	1567956.1090595417
0.9031119974803249	1579168.3597803614
0.9033377754796951	1590383.4135638615
0.903563609923565	1601601.2711108024
0.903789500826046	1612821.9331221378
0.9040154482012526	1620446.9479354627
0.904241452063303	1623412.3881633626
0.9044675124263188	1626378.569751319
0.9046936293044254	1629345.492884672
0.9049198027117517	1632313.1577488098
0.9051460326624297	1635252.109395491
0.9053723191705955	1638066.3689685878
0.9055986622503881	1640881.3321065756
0.9058250619159507	1643696.9989853478
0.9060515181814298	1646513.3697808413
0.9062780310609752	1649330.444669032
0.9065046005687405	1637629.1817205646
0.906731226718883	1625115.0190230967
0.9069579095255627	1612597.7277849703
0.907184649002944	1600077.3072240339
0.907411445165195	1587553.7565579442
0.9076382980264862	1595651.6513478481
0.907865207600993	1612316.9189684556
0.9080921739028933	1628986.3529059635
0.9083191969463691	1645659.954201953
0.9085462767456058	1662337.7238982746
0.9087734133147922	1672459.332694622
0.9090006066681211	1675006.2090308794
0.909227856819788	1677553.7220862175
0.9094551637839932	1680101.872019823
0.9096825275749393	1682650.6589909112
0.9099099482068329	1685967.0530821034
0.9101374256938848	1692010.1006784267
0.9103649600503083	1698054.6590366461
0.9105925512903209	1704100.728534454
0.9108201994281437	1710148.3095496427
0.9110479044780008	1716197.4024600785
0.9112756664541204	1721716.5141422334
0.911503485370734	1727224.8398097581
0.9117313612420768	1732734.5425586996
0.9119592940823873	1738245.6227333269
0.912187283905908	1743758.0806779994
0.9124153307268845	1735128.473014122
0.9126434345595664	1721363.4645833431
0.9128715954182063	1707595.0149004695
0.9130998133170609	1693823.123105168
0.9133280882703902	1680047.7883369187
0.913556420292458	1677712.8341633354
0.9137848093975312	1687179.4813567915
0.9140132555998806	1696648.4952120446
0.9142417589137806	1706119.8763207623
0.9144703193535092	1715593.6252747632
