#wavelength	surface flux
0.7	4026430.3945561307
0.7001166666666666	4032266.2720130193
0.7002333527777778	4036171.4107379843
0.700350058336574	4040077.200319402
0.7004667833462966	4043983.640865744
0.7005835278101878	4047890.732485522
0.7007002917314895	4051798.4752872298
0.7008170751134447	4055706.869379404
0.7009338779592968	4059615.9148705923
0.7010507002722901	4061781.205330879
0.7011675420556689	4061824.029888781
0.701284403312678	4061866.861584109
0.7014012840465635	4061909.7004180527
0.7015181842605713	4061952.546391802
0.701635103957948	4061995.399506547
0.701752043141941	4062038.2597634783
0.701869001815798	4062081.127163785
0.7019859799827672	4062499.5432873787
0.7021029776460976	4063179.384939885
0.7022199948090387	4063859.339899335
0.7023370314748403	4064539.4081846112
0.7024540876467528	4065219.5898146015
0.702571163328027	4065899.8848081953
0.7026882585219152	4066580.29318429
0.7028053732316688	4067260.81496178
0.7029225074605406	4073840.216776219
0.7030396612117841	4082698.4994726735
0.7031568344886527	4091558.2585495785
0.7032740272944008	4100419.494252991
0.7033912396322832	4109282.2068290254
0.7035084715055552	4118146.3965238133
0.7036257229174727	4127012.063583554
0.7037429938712924	4135879.2082544793
0.7038602843702709	4143827.605683366
0.7039775944176659	4151621.250934225
0.7040949240167356	4159416.1951259626
0.7042122731707383	4167212.4384750617
0.7043296418829335	4175009.981198056
0.7044470301565806	4182808.823511503
0.70456443799494	4190608.9656319967
0.7046818654012724	4198410.407776182
0.7047993123788394	4202602.829153895
0.7049167789309024	4206791.806264925
0.7050342650607243	4210981.481538813
0.7051517707715678	4215171.855091911
0.7052692960666963	4219362.927040599
0.705386840949374	4223554.697501278
0.7055044054228656	4227747.166590373
0.7056219894904361	4231348.2560273735
0.7057395931553511	4231187.35046298
0.705857216420877	4231026.418080991
0.7059748592902804	4230865.4588769395
0.7060925217668288	4230704.472846353
0.70621020385379	4230543.459984763
0.7063279055544321	4230382.420287695
0.7064456268720246	4230221.353750677
0.7065633678098366	4230529.791986126
0.7066811283711383	4232131.380310895
0.7067989085592001	4233733.23556705
0.7069167083772933	4235335.35779908
0.7070345278286895	4236937.747051484
0.707152366916661	4238540.403368763
0.7072702256444803	4240143.326795426
0.7073881040154211	4241746.517375996
0.7075060020327569	4244588.150354357
0.7076239196997625	4249233.470126948
0.7077418570197124	4253879.564119497
0.7078598139958823	4258526.432461044
0.7079777906315483	4263174.075280652
0.7080957869299869	4267822.492707394
0.7082138028944751	4272471.684870372
0.7083318385282908	4277121.651898712
0.7084498938347124	4277295.546031615
0.708567968817018	4273673.906029706
0.7086860634784875	4270051.662421127
0.7088041778224007	4266428.815105277
0.7089223118520377	4262805.363981545
0.7090404655706796	4259181.308949295
0.709158638981608	4255556.649907869
0.709276832088105	4251931.386756602
0.7093950448934531	4254284.447618289
0.7095132774009353	4259489.316027359
0.7096315296138355	4264695.0519145
0.7097498015354378	4269901.655424288
0.7098680931690269	4275109.1267013205
0.7099864045178884	4280317.465890241
0.7101047355853081	4285526.673135691
0.7102230863745722	4290736.748582345
0.7103414568889679	4294498.969778536
0.7104598471317828	4297932.634105784
0.7105782571063047	4301366.870710418
0.7106966868158224	4304801.6796878185
0.710815136263625	4308237.061133381
0.7109336054530023	4311673.015142521
0.7110520943872445	4315109.541810661
0.7111706030696424	4318546.641233247
0.7112891315034873	4318714.698176264
0.7114076796920712	4318726.780365028
0.7115262476386865	4318738.864567491
0.7116448353466263	4318750.9507839875
0.711763442819184	4318763.039014854
0.711882070059654	4318775.1292604245
0.7120007170713306	4318787.221521037
0.7121193838575091	4318839.787672881
0.7122380704214853	4319314.47389118
0.7123567767665555	4319789.239223847
0.7124755028960166	4320264.083684071
0.7125942488131658	4320739.007285038
0.7127130145213015	4321214.01003994
0.7128318000237216	4321689.091961965
0.7129506053237256	4322164.253064312
0.7130694304246129	4322329.067553154
0.7131882753296837	4321408.551532569
0.7133071400422386	4320487.882092647
0.7134260245655789	4319567.059207819
0.7135449289030065	4318646.082852511
0.7136638530578235	4317724.953001143
0.7137827970333332	4316803.669628133
0.7139017608328388	4315882.2327078935
0.7140207444596443	4314835.133367358
0.7141397479170543	4313563.964182909
0.7142587712083737	4312292.58313693
0.7143778143369084	4311020.990194109
0.7144968773059646	4309749.185319131
0.7146159601188489	4308477.168476675
0.7147350627788687	4307204.939631411
0.7148541852893318	4305932.498748007
0.7149733276535467	4301686.694786876
0.7150924898748222	4294442.124172848
0.715211671956468	4287196.346130382
0.7153308739017941	4279949.360458237
0.715450095714111	4272701.16695515
0.71556933739673	4265451.765419811
0.7156885989529628	4258201.155650884
0.7158078803861218	4250949.337446985
0.7159271816995193	4235534.6500628
0.7160465028964692	4215327.008018181
0.7161658439802853	4195115.998033222
0.7162852049542819	4174901.6195466025
0.7164045858217744	4154683.8719968894
0.716523986586078	4134462.7548225927
0.7166434072505089	4114238.267462111
0.716762847818384	4094010.4093537284
0.7168823082930204	4085192.6531269453
0.7170017886777359	4079731.222515859
0.7171212889758488	4074268.8816663413
0.7172408091906781	4068805.63042668
0.7173603493255433	4063341.468645144
0.7174799093837642	4057876.3961699805
0.7175994893686615	4052410.4128494025
0.7177190892835562	4046943.5185316065
0.7178387091317702	4065946.8365184753
0.7179583489166254	4087409.8033866156
0.7180780086414448	4108876.347415917
0.7181976883095517	4130346.4692025566
0.7183173879242699	4151820.169342829
0.718437107488924	4173297.44843313
0.7185568470068389	4194778.3070699535
0.7186766064813399	4215211.543163946
0.7187963859157535	4209365.800994276
0.7189161853134061	4203519.084534245
0.719036004677625	4197671.393621469
0.7191558440117378	4191822.7280935454
0.7192757033190732	4185973.0877880254
0.7193955826029597	4180122.4725424615
0.7195154818667269	4174270.8821943514
0.7196354011137046	4167417.2783364085
0.7197553403472235	4155953.573195815
0.7198752995706147	4144487.9574377034
0.7199952787872098	4133020.4307436235
0.720115278000341	4121550.992795096
0.7202352972133411	4110079.6432735743
0.7203553364295432	4098606.381860484
0.7204753956522815	4087131.2082371414
0.7205954748848902	4080141.0425684587
0.7207155741307044	4083041.6945717535
0.7208356933930594	4085942.830017044
0.7209558326752915	4088844.44898491
0.7210759919807375	4091746.5515559404
0.7211961713127342	4094649.137810729
0.7213163706746197	4097552.207829898
0.7214365900697322	4100455.761694067
0.7215568295014103	4096775.5420442764
0.721677088972994	4085238.580695551
0.7217973684878227	4073699.6965199537
0.7219176680492374	4062158.88919698
0.7220379876605789	4050616.158406126
0.722158327325189	4039071.5038268026
0.7222786870464099	4027524.9251383888
0.7223990668275843	4015976.4220201885
0.7225194666720555	4009170.888213942
0.7226398865831676	4005727.0453620325
0.7227603265642646	4002282.628536322
0.722880786618692	3998837.6376411337
0.7230012667497951	3995392.0725807985
0.7231217669609201	3991945.93325962
0.7232422872554135	3988499.21958189
0.7233628276366229	3985051.9314518753
0.7234833881078956	3984879.4704808583
0.7236039686725803	3985950.524390885
0.7237245693340255	3987021.7568098954
0.7238451900955812	3988093.1677676444
0.7239658309605971	3989164.757293885
0.7240864919324239	3990236.525418381
0.7242071730144127	3991308.4721708987
0.724327874209915	3992380.5975812054
0.7244485955222832	3968381.2136781407
0.7245693369548704	3940232.4380847802
0.7246900985110294	3912078.971028862
0.7248108801941148	3883920.81172836
0.7249316820074803	3855757.9594014026
0.7250525039544815	3827590.4132656776
0.7251733460384739	3799418.1725389254
0.7252942082628137	3771297.368459121
0.7254150906308574	3775696.5480554667
0.7255359931459625	3780096.460848412
0.7256569158114868	3784497.1069601574
0.7257778586307888	3788898.486512924
0.7258988216072273	3793300.599628948
0.7260198047441617	3797703.446430486
0.7261408080449525	3802107.0270398324
0.72626183151296	3805379.2832454573
0.7263828751515454	3801128.907673991
0.7265039389640706	3796877.8237065966
0.726625022953898	3792626.0312252054
0.7267461271243904	3788373.5301117315
0.7268672514789111	3784120.320248075
0.7269883960208241	3779866.4015161116
0.7271095607534942	3775611.77379769
0.7272307456802866	3770277.528527119
0.7273519508045666	3762028.0020794426
0.7274731761297006	3753777.1007106956
0.7275944216590555	3745524.82419172
0.7277156873959987	3737271.172293322
0.7278369733438982	3729016.1447862615
0.727958279506122	3720759.741441305
0.7280796058860397	3712501.9620291134
0.7282009524870207	3699737.862577655
0.7283223193124353	3680308.3223108645
0.7284437063656539	3660875.5437874026
0.7285651136500483	3641439.526467488
0.7286865411689898	3622000.269811394
0.7288079889258514	3602557.7732791435
0.7289294569240056	3583112.036330849
0.7290509451668262	3563663.0584263736
0.7291724536576875	3547293.5677983975
0.7292939823999636	3533475.721559056
0.7294155313970303	3519655.5723453136
0.7295371006522632	3505833.119773373
0.7296586901690385	3492008.3634593477
0.7297802999507332	3478181.303019276
0.7299019300007252	3464351.9380690954
0.7300235803223919	3450520.2682247935
0.7301452509191123	3442462.4776183385
0.7302669417942654	3437069.4543529213
0.7303886529512311	3431675.5322502917
0.7305103843933897	3426280.7111606435
0.7306321361241218	3420884.9909341508
0.7307539081468093	3415488.3714209446
0.7308757004648336	3410090.852471164
0.7309975130815778	3404692.4339348855
0.7311193460004248	3402636.474240114
0.7312411992247582	3401337.065586017
0.7313630727579622	3400037.440363811
0.7314849666034219	3398737.5985374004
0.7316068807645224	3397437.5400706856
0.7317288152446498	3396137.2649275595
0.7318507700471907	3394836.773071909
0.7319727451755319	3393536.064467616
0.732094740633061	3378092.3987101796
0.7322167564231665	3362009.4483580375
0.7323387925492371	3345923.8175141695
0.7324608490146619	3329835.5057318322
0.732582925822831	3313744.5125641935
0.7327050229771347	3297650.8375643785
0.7328271404809642	3281554.480285381
0.7329492783377112	3265345.171424579
0.7330714365507675	3248049.1014639856
0.7331936151235259	3230750.14882507
0.7333158140593796	3213448.3130274
0.7334380333617229	3196143.593590405
0.7335602730339499	3178835.9900334957
0.7336825330794556	3161525.5018759896
0.7338048135016354	3144212.1286371574
0.7339271143038857	3129895.642970448
0.734049435489603	3125628.068180002
0.7341717770621846	3121359.7821270903
0.7342941390250283	3117090.7846931717
0.7344165213815324	3112821.075759683
0.734538924135096	3108550.655208032
0.7346613472891185	3104279.522919628
0.734783790847	3100007.6787758414
0.7349062548121412	3089451.5451178537
0.7350287391879431	3067787.1721760854
0.7351512439778078	3046119.1885054493
0.7352737691851374	3024447.593504227
0.735396314813335	3002772.3865704862
0.7355188808658037	2981093.567102292
0.7356414673459482	2959411.1344974753
0.7357640742571725	2937725.0881539066
0.7358867016028818	2919787.7697935016
0.7360093493864824	2905553.2383126705
0.7361320176113801	2891316.334409946
0.736254706280982	2877077.057689904
0.7363774153986956	2862835.4077570564
0.7365001449679286	2848591.3842159165
0.7366228949920899	2834344.986670841
0.7367456654745885	2820096.214726175
0.7368684564188344	2807044.6324712173
0.7369912678282374	2794668.843519344
0.7371140997062088	2782290.991935974
0.7372369520561599	2769911.077377328
0.7373598248815024	2757529.099499617
0.7374827181856494	2745145.057958905
0.7376056319720137	2732758.9524112693
0.7377285662440091	2720370.7825127067
0.7378515210050496	2706670.807678887
0.7379744962585505	2692574.4885218386
0.738097492007927	2678475.8199782674
0.7382205082565949	2664374.801656614
0.738343545007971	2650271.433165244
0.7384666022654723	2636165.714112444
0.7385896800325165	2622057.6441064896
0.7387127783125219	2607947.222755517
0.7388358971089073	2592973.355472852
0.7389590364250921	2577910.6226606066
0.7390821962644963	2562845.3793928805
0.7392053766305403	2547777.625251299
0.7393285775266454	2532707.3598173494
0.7394517989562333	2517634.5826724796
0.7395750409227259	2502559.2933981097
0.7396983034295463	2487407.598824902
0.739821586480118	2470609.5797402672
0.7399448900778645	2453808.7609858178
0.7400682142262109	2437005.142094859
0.740191558928582	2420198.722600769
0.7403149241884034	2403389.5020367764
0.7404383100091014	2386577.479936019
0.7405617163941028	2369762.6558315894
0.7406851433468352	2352235.442111339
0.7408085908707264	2331459.1166491304
0.7409320589692048	2310679.328466022
0.7410555476456997	2289896.0769848656
0.7411790569036406	2269109.361628478
0.7413025867464579	2248319.1818195246
0.7414261371775823	2227525.536980598
0.7415497082004452	2206728.4265342136
0.7416732998184786	2186443.8539882894
0.741796912035115	2167262.831037341
0.7419205448537874	2148078.611249239
0.7420441982779297	2128891.1940911734
0.742167872310976	2109700.5790302297
0.7422915669563612	2090506.7655334433
0.7424152822175206	2071309.7530677458
0.7425390180978901	2052109.5410999828
0.7426627746009065	2034959.2748516232
0.7427865517300065	2020309.0819227905
0.7429103494886282	2005656.4472951212
0.7430341678802096	1991001.3705616917
0.7431580069081896	1976343.8513154744
0.7432818665760077	1961683.8891493618
0.7434057468871037	1947021.4836562339
0.7435296478449182	1932356.6344288655
0.7436535694528923	1916252.2944292245
0.7437775117144678	1899161.5678755054
0.7439014746330868	1882067.9928673867
0.7440254582121922	1864971.568930085
0.7441494624552276	1847872.295588787
0.7442734873656368	1830770.1723686024
0.7443975329468645	1813665.198794534
0.7445215992023557	1796557.3743915386
0.7446456861355559	1779256.866348885
0.7447697937499119	1761883.5456961652
0.7448939220488703	1744507.3294900071
0.7450180710358784	1727128.2172478298
0.7451422407143843	1709746.2084869437
0.7452664310878367	1692361.302724581
0.7453906421596846	1674973.4994779434
0.7455148739333779	1657582.798264092
0.7456391264123667	1639859.698443991
0.7457633996001021	1622080.9595209858
0.7458876935000356	1604299.2574747952
0.7460120081156189	1586514.5918116309
0.7461363434503048	1568726.9620375144
0.7462606995075466	1550936.3676584193
0.7463850762907978	1533142.808180288
0.7465094738035127	1515351.0951939223
0.7466338920491467	1498815.2315890992
0.746758331031155	1482276.6120069919
0.7468827907529935	1465735.2359883075
0.7470072712181189	1449191.1030736195
0.7471317724299886	1432644.2128034425
0.7472562943920602	1416094.564718232
0.7473808371077922	1399542.1583583262
0.7475054005806435	1383032.616102021
0.7476299848140736	1366801.3410452094
0.7477545898115426	1350567.360775885
0.7478792155765113	1334330.674843178
0.7480038621124406	1318091.282796162
0.7481285294227926	1301849.1841838083
0.7482532175110298	1285604.3785550022
0.7483779263806148	1269356.8654586142
0.7485026560350116	1253293.3697391977
0.7486274064776842	1237732.561790722
0.748752177712097	1222169.160374283
0.7488769697417158	1206603.165057575
0.749001782570006	1191034.575408333
0.7491266162004343	1175463.3909941541
0.7492514706364677	1159889.6113825657
0.7493763458815739	1144313.2361410263
0.7495012419392209	1128918.8168977585
0.7496261588128773	1113787.1474983739
0.7497510965060128	1098652.9561540787
0.7498760550220971	1083516.242444565
0.7500010343646007	1068377.0059494309
0.7501260345369949	1053235.2462482066
0.750251055542751	1038090.9629203826
0.7503760973853414	1022944.155545328
0.7505011600682389	1008208.8959238874
0.750626243594917	993816.9212625751
0.7507513479688495	979422.5479388412
0.7508764731935109	965025.7755528816
0.7510016192723765	950626.6037048541
0.7511267862089218	936225.0319948654
0.7512519740066232	921821.0600229198
0.7513771826689577	907414.6873889707
0.7515024121994025	893729.3282522908
0.7516276626014359	880378.9847436545
0.751752933878536	867026.4161777899
0.7518782260341824	853671.6221838266
0.7520035390718548	840314.6023908583
0.7521288729950334	826955.3564279316
0.7522542278071992	813593.8839240099
0.7523796035118337	800230.1845079977
0.7525050001124189	787405.9554140572
0.7526304176124378	774697.3960629846
0.7527558560153731	761986.7186187031
0.752881315324709	749273.9227281685
0.7530067955439299	736559.0080383143
0.7531322966765205	723841.9741960287
0.7532578187259665	711122.820848099
0.7533833616957542	698401.5476412782
0.75350892558937	686492.0316316878
0.7536345104103016	674618.8015446245
0.7537601161620366	662743.5925858861
0.7538857428480638	650866.4044256433
0.7540113904718717	638987.2367340556
0.7541370590369503	627106.0891811886
0.7542627485467898	615222.9614370554
0.7543884590048808	603435.1329872978
0.7545141904147151	592615.4252442211
0.7546399427797842	581793.914216538
0.7547657161035808	570970.5996036818
0.754891510389598	560145.4811050575
0.7550173256413296	549318.5584200124
0.7551431618622698	538489.8312478557
0.7552690190559135	527659.2992878393
0.7553948972257561	516985.8758471232
0.7555207963752938	506844.08665632154
0.755646716508023	496700.60716732725
0.755772657627441	486555.43709841464
0.7558986197370455	476408.5761678223
0.756024602840335	466260.02409374417
0.7561506069408084	456109.78059432044
0.7562766320419653	445957.8453876377
0.7564026781473054	435987.24869283586
0.75652874526033	426337.0750827071
0.7566548333845401	416685.29311030504
0.7567809425234375	407031.9025075777
0.7569070726805247	397376.90300642204
0.7570332238593047	387720.2943386842
0.7571593960632813	378062.07623615913
0.7572855892959586	368402.24843061646
0.7574118035608413	359375.91546150733
0.7575380388614347	350969.42186387733
0.7576642952012449	342561.52718397795
0.7577905725837782	334152.2311883107
0.7579168710125422	325741.5336432959
0.7580431904910444	317329.4343153537
0.7581695310227928	308915.9329708675
0.7582958926112967	300501.0293761466
0.7584222752600652	292526.01408431126
0.7585486789726085	284803.1743387868
0.7586751037524372	277079.0474533019
0.7588015496030628	269353.6332133209
0.7589280165279966	261626.93140431528
0.7590545045307512	253898.9418116748
0.7591810136148396	246169.66422076902
0.7593075437837755	238439.09841692005
0.7594340950410726	231319.28188116895
0.7595606673902461	224375.85322816594
0.7596872608348112	217431.26733704717
0.7598138753782836	210485.5240149542
0.75994051102418	203538.62306896772
0.7600671677760173	196590.56430616233
0.7601938456373134	189641.3475335578
0.7603205446115863	182690.97255816177
0.7604472647023548	176371.3923011275
0.7605740059131385	170113.57484477488
0.7607007682474575	163854.71441884013
0.7608275517088319	157594.8108495149
0.7609543563007835	151333.86396291427
0.7610811820268336	145071.87358516964
0.7612080288905045	138808.83954237407
0.7613348968953197	132570.77673202197
0.7614617860448022	126865.4460685879
0.7615886963424764	121159.16451670213
0.7617156277918667	115451.93191789658
0.7618425803964988	109743.74811365319
0.7619695541598982	104034.61294544395
0.7620965490855914	98324.52625471089
0.7622235651771058	92613.48788285609
0.7623506024379685	87118.38441505565
0.7624776608717082	82573.00336974295
0.7626047404818536	78026.86476092247
0.7627318412719337	73479.96846234167
0.762858963245479	68932.31434770823
0.7629861064060198	64383.90229072196
0.7631132707570876	59834.73216505481
0.7632404563022137	55284.803844370785
0.7633676630449308	51069.05907440784
0.7634948909887717	47565.59171882066
0.7636221401372697	44061.5404520121
0.7637494104939593	40556.905176655775
0.7638767020623748	37051.68579542528
0.7640040148460518	33545.88221096059
0.7641313488485262	30039.494325898617
0.7642587040733344	26532.52204285182
0.7643860805240132	23582.163080000664
0.7645134782041005	21296.216416207048
0.7646408971171346	19009.888761301845
0.764768337266654	16723.18005178833
0.7648957986561985	14436.090224155827
0.7650232812893079	12148.619214885686
0.7651507851695227	9860.766960447312
0.7652783103003843	7572.533397300147
