#wavelength	surface flux
0.7	202929.0561207897
0.7001166666666666	203313.12532505151
0.7002333527777778	203586.9657110392
0.700350058336574	203860.85173709108
0.7004667833462966	204134.78341081363
0.7005835278101878	204408.7607398159
0.7007002917314895	204682.7837317059
0.7008170751134447	204956.8523940945
0.7009338779592968	205230.96673459333
0.7010507002722901	205401.94642221148
0.7011675420556689	205447.39099409105
0.701284403312678	205492.84314006587
0.7014012840465635	205538.30286139844
0.7015181842605713	205583.7701593512
0.701635103957948	205629.2450351869
0.701752043141941	205674.7274901686
0.701869001815798	205720.2175255595
0.7019859799827672	205879.985121297
0.7021029776460976	206119.30481584065
0.7022199948090387	206358.6643970003
0.7023370314748403	206598.0638714234
0.7024540876467528	206837.50324575885
0.702571163328027	207076.98252665633
0.7026882585219152	207316.5017207679
0.7028053732316688	207556.0608347448
0.7029225074605406	208069.60122807385
0.7030396612117841	208689.00853106938
0.7031568344886527	209308.51906861554
0.7032740272944008	209928.13285791755
0.7033912396322832	210547.84991618476
0.7035084715055552	211167.67026062772
0.7036257229174727	211787.59390846168
0.7037429938712924	212407.62087690417
0.7038602843702709	212918.29074051094
0.7039775944176659	213410.4804236721
0.7040949240167356	213902.75213844734
0.7042122731707383	214395.1058985081
0.7043296418829335	214887.54171752915
0.7044470301565806	215380.05960918663
0.70456443799494	215872.659587159
0.7046818654012724	216365.341665128
0.7047993123788394	216738.8700059907
0.7049167789309024	217112.32377314597
0.7050342650607243	217485.83978259633
0.7051517707715678	217859.41804471478
0.7052692960666963	218233.05856987674
0.705386840949374	218606.76136845938
0.7055044054228656	218980.5264508424
0.7056219894904361	219323.52449308737
0.7057395931553511	219470.66256401132
0.705857216420877	219617.8251579472
0.7059748592902804	219765.012278982
0.7060925217668288	219912.2239312038
0.70621020385379	220059.46011870092
0.7063279055544321	220206.72084556246
0.7064456268720246	220354.0061158787
0.7065633678098366	220535.4625494015
0.7066811283711383	220810.98963135827
0.7067989085592001	221086.56263449535
0.7069167083772933	221362.1815664661
0.7070345278286895	221637.84643492574
0.707152366916661	221913.55724753015
0.7072702256444803	222189.31401193634
0.7073881040154211	222465.11673580363
0.7075060020327569	222807.28538753767
0.7076239196997625	223246.0959674461
0.7077418570197124	223684.97968245074
0.7078598139958823	224123.93654474118
0.7079777906315483	224562.9665665091
0.7080957869299869	225002.069759947
0.7082138028944751	225441.24613725021
0.7083318385282908	225880.49571061664
0.7084498938347124	226067.67609255257
0.708567968817018	226041.1161926971
0.7086860634784875	226014.5518661916
0.7088041778224007	225987.9831122984
0.7089223118520377	225961.4099302795
0.7090404655706796	225934.83231939698
0.709158638981608	225908.25027891263
0.709276832088105	225881.6638080882
0.7093950448934531	226198.29335100856
0.7095132774009353	226678.66119832447
0.7096315296138355	227159.10910694845
0.7097498015354378	227639.63709022375
0.7098680931690269	228120.24516149578
0.7099864045178884	228600.93333411365
0.7101047355853081	229081.70162142685
0.7102230863745722	229562.5500367876
0.7103414568889679	230002.3348691822
0.7104598471317828	230432.84417552635
0.7105782571063047	230863.42523342124
0.7106966868158224	231294.07805482575
0.710815136263625	231724.80265170042
0.7109336054530023	232155.59903600815
0.7110520943872445	232586.46721971311
0.7111706030696424	233017.40721478232
0.7112891315034873	233263.36985524377
0.7114076796920712	233500.5442602644
0.7115262476386865	233737.75819435256
0.7116448353466263	233975.01166409624
0.711763442819184	234212.30467608498
0.711882070059654	234449.63723690924
0.7120007170713306	234687.0093531602
0.7121193838575091	234926.08535311805
0.7122380704214853	235182.5596482572
0.7123567767665555	235439.0766891119
0.7124755028960166	235695.6364828069
0.7125942488131658	235952.23903646733
0.7127130145213015	236208.88435722073
0.7128318000237216	236465.57245219348
0.7129506053237256	236722.30332851573
0.7130694304246129	236971.51005445913
0.7131882753296837	237194.30163091794
0.7133071400422386	237417.13033930623
0.7134260245655789	237639.99618581243
0.7135449289030065	237862.89917662644
0.7136638530578235	238085.8393179388
0.7137827970333332	238308.8166159417
0.7139017608328388	238531.83107682757
0.7140207444596443	238747.19587372814
0.7141397479170543	238948.88401748473
0.7142587712083737	239150.60577593168
0.7143778143369084	239352.36115467187
0.7144968773059646	239554.15015930854
0.7146159601188489	239755.97279544594
0.7147350627788687	239957.82906868937
0.7148541852893318	240159.71898464492
0.7149733276535467	240232.30661463639
0.7150924898748222	240174.4868772599
0.715211671956468	240116.65750326047
0.7153308739017941	240058.81849103203
0.715450095714111	240000.96983896825
0.71556933739673	239943.11154546245
0.7156885989529628	239885.24360890774
0.7158078803861218	239827.36602769684
0.7159271816995193	239278.95502092174
0.7160465028964692	238442.54575688543
0.7161658439802853	237605.99709130515
0.7162852049542819	236769.30900094743
0.7164045858217744	235932.48146257413
0.716523986586078	235095.5144529448
0.7166434072505089	234258.40794881427
0.716762847818384	233421.16192693275
0.7168823082930204	233124.48393290822
0.7170017886777359	232986.8303582767
0.7171212889758488	232849.15384138282
0.7172408091906781	232711.45437840276
0.7173603493255433	232573.73196551218
0.7174799093837642	232435.98659888617
0.7175994893686615	232298.218274699
0.7177190892835562	232160.42698912453
0.7178387091317702	233665.4024089716
0.7179583489166254	235335.53660383966
0.7180780086414448	237005.94915440815
0.7181976883095517	238676.64010706835
0.7183173879242699	240347.60950822083
0.718437107488924	242018.85740427388
0.7185568470068389	243690.38384164358
0.7186766064813399	245298.52423909082
0.7187963859157535	245315.17666343975
0.7189161853134061	245331.83186319275
0.719036004677625	245348.4898388124
0.7191558440117378	245365.1505907613
0.7192757033190732	245381.8141195022
0.7193955826029597	245398.48042549787
0.7195154818667269	245415.14950921125
0.7196354011137046	245391.06654328536
0.7197553403472235	245179.3370512918
0.7198752995706147	244967.57227104963
0.7199952787872098	244755.7721966773
0.720115278000341	244543.9368222926
0.7202352972133411	244332.06614201213
0.7203553364295432	244120.1601499519
0.7204753956522815	243908.21884022607
0.7205954748848902	243935.53652675104
0.7207155741307044	244490.41330619206
0.7208356933930594	245045.38256509535
0.7209558326752915	245600.44431887526
0.7210759919807375	246155.5985829482
0.7211961713127342	246710.8453727311
0.7213163706746197	247266.18470364652
0.7214365900697322	247821.61659111653
0.7215568295014103	248041.8009101563
0.721677088972994	247861.90464667793
0.7217973684878227	247681.97840048926
0.7219176680492374	247502.02216659268
0.7220379876605789	247322.03593999057
0.722158327325189	247142.01971568394
0.7222786870464099	246961.97348867336
0.7223990668275843	246781.89725395822
0.7225194666720555	246624.96379387198
0.7226398865831676	246484.42731272115
0.7227603265642646	246343.86740882377
0.722880786618692	246203.28407827544
0.7230012667497951	246062.67731717214
0.7231217669609201	245922.0471216086
0.7232422872554135	245781.39348767928
0.7233628276366229	245640.7164114774
0.7234833881078956	246028.78647744597
0.7236039686725803	246617.6750079519
0.7237245693340255	247206.66168654533
0.7238451900955812	247795.7465295863
0.7239658309605971	248384.92955343373
0.7240864919324239	248974.21077445257
0.7242071730144127	249563.59020900828
0.724327874209915	250153.06787346854
0.7244485955222832	249031.33310744018
0.7245693369548704	247626.4606232106
0.7246900985110294	246221.353993569
0.7248108801941148	244816.01317948542
0.7249316820074803	243410.43814193754
0.7250525039544815	242004.62884188112
0.7251733460384739	240598.58524027443
0.7252942082628137	239196.2136841346
0.7254150906308574	240057.0922128253
0.7255359931459625	240918.11422127084
0.7256569158114868	241779.27973338473
0.7257778586307888	242640.58877308443
0.7258988216072273	243502.04136429046
0.7260198047441617	244363.63753092743
0.7261408080449525	245225.37729692698
0.72626183151296	245999.13915480117
0.7263828751515454	246187.4118364776
0.7265039389640706	246375.7158969343
0.726625022953898	246564.05134140118
0.7267461271243904	246752.41817510888
0.7268672514789111	246940.81640328877
0.7269883960208241	247129.24603117316
0.7271095607534942	247317.70706399568
0.7272307456802866	247484.44733107087
0.7273519508045666	247592.45751064137
0.7274731761297006	247700.48569190843
0.7275944216590555	247808.53187787233
0.7277156873959987	247916.59607153398
0.7278369733438982	248024.6782758947
0.727958279506122	248132.77849395588
0.7280796058860397	248240.8967287202
0.7282009524870207	248004.25087935687
0.7283223193124353	247257.59446255869
0.7284437063656539	246510.81360302586
0.7285651136500483	245763.90828001525
0.7286865411689898	245016.87847278567
0.7288079889258514	244269.7241605864
0.7289294569240056	243522.44532267013
0.7290509451668262	242775.04193828005
0.7291724536576875	242237.6271814546
0.7292939823999636	241874.22425560042
0.7294155313970303	241510.76076259124
0.7295371006522632	241147.2366923333
0.7296586901690385	240783.65203473062
0.7297802999507332	240420.00677968515
0.7299019300007252	240056.30091709623
0.7300235803223919	239692.53443686455
0.7301452509191123	239864.92582885144
0.7302669417942654	240284.84803046592
0.7303886529512311	240704.8402191141
0.7305103843933897	241124.9024064605
0.7306321361241218	241545.03460417112
0.7307539081468093	241965.23682391545
0.7308757004648336	242385.5090773622
0.7309975130815778	242805.851376185
0.7311193460004248	243534.5301266702
0.7312411992247582	244333.1179000142
0.7313630727579622	245131.83877132018
0.7314849666034219	245930.69276277223
0.7316068807645224	246729.6798965557
0.7317288152446498	247528.8001948618
0.7318507700471907	248328.05367988473
0.7319727451755319	249127.44037382153
0.732094740633061	248759.5904743695
0.7322167564231665	248339.12390739494
0.7323387925492371	247918.5872626592
0.7324608490146619	247497.98052848276
0.732582925822831	247077.3036931839
0.7327050229771347	246656.5567450796
0.7328271404809642	246235.73967248356
0.7329492783377112	245798.61603952645
0.7330714365507675	245201.79831983603
0.7331936151235259	244604.88113052584
0.7333158140593796	244007.86445501808
0.7334380333617229	243410.74827673016
0.7335602730339499	242813.53257907892
0.7336825330794556	242216.21734547795
0.7338048135016354	241618.8025593392
0.7339271143038857	241288.48121553488
0.734049435489603	241853.3846219636
0.7341717770621846	242418.3821789602
0.7342941390250283	242983.47390221598
0.7344165213815324	243548.6598074254
0.734538924135096	244113.93991028654
0.7346613472891185	244679.31422649743
0.734783790847	245244.7827717612
0.7349062548121412	245323.2654211473
0.7350287391879431	244540.82710968924
0.7351512439778078	243758.25839184428
0.7352737691851374	242975.55924588066
0.735396314813335	242192.72965005867
0.7355188808658037	241409.7695826387
0.7356414673459482	240626.67902187252
0.7357640742571725	239843.45794601343
0.7358867016028818	239337.17871979455
0.7360093493864824	239104.44908184226
0.7361320176113801	238871.6806556173
0.736254706280982	238638.8734346546
0.7363774153986956	238406.02741248813
0.7365001449679286	238173.14258265178
0.7366228949920899	237940.2189386769
0.7367456654745885	237707.25647409473
0.7368684564188344	237498.51593410096
0.7369912678282374	237303.45226957696
0.7371140997062088	237108.3560944421
0.7372369520561599	236913.2274032779
0.7373598248815024	236718.0661906656
0.7374827181856494	236522.8724511842
0.7376056319720137	236327.64617941287
0.7377285662440091	236132.38736992955
0.7378515210050496	235811.80212098997
0.7379744962585505	235453.46631939788
0.738097492007927	235095.07079517227
0.7382205082565949	234736.61553835953
0.738343545007971	234378.10053900405
0.7384666022654723	234019.52578714833
0.7385896800325165	233660.8912728345
0.7387127783125219	233302.1969861012
0.7388358971089073	233025.24498309966
0.7389590364250921	232756.45177170014
0.7390821962644963	232487.6137614319
0.7392053766305403	232218.73094482895
0.7393285775266454	231949.80331442304
0.7394517989562333	231680.83086274518
0.7395750409227259	231411.8135823258
0.7396983034295463	231129.0799687183
0.739821586480118	230542.16660818772
0.7399448900778645	229955.15542876488
0.7400682142262109	229368.0464141437
0.740191558928582	228780.83954802068
0.7403149241884034	228193.53481408712
0.7404383100091014	227606.1321960311
0.7405617163941028	227018.6316775391
0.7406851433468352	226358.43670802523
0.7408085908707264	225366.02002054473
0.7409320589692048	224373.4379302835
0.7410555476456997	223380.6904096731
0.7411790569036406	222387.77743114327
0.7413025867464579	221394.69896711677
0.7414261371775823	220401.45499001266
0.7415497082004452	219408.04547224645
0.7416732998184786	218428.9003675627
0.741796912035115	217480.54722304398
0.7419205448537874	216532.03601966807
0.7420441982779297	215583.36673109164
0.742167872310976	214634.53933096622
0.7422915669563612	213685.55379294083
0.7424152822175206	212736.41009065934
0.7425390180978901	211787.10819776138
0.7426627746009065	211063.99807885208
0.7427865517300065	210616.7042891125
0.7429103494886282	210169.3359504075
0.7430341678802096	209721.89305031305
0.7431580069081896	209274.37557640194
0.7432818665760077	208826.78351624456
0.7434057468871037	208379.11685741085
0.7435296478449182	207931.3755874676
0.7436535694528923	207284.10645327956
0.7437775117144678	206500.1975797947
0.7439014746330868	205716.1580548321
0.7440254582121922	204931.9878566147
0.7441494624552276	204147.6869633639
0.7442734873656368	203363.25535329778
0.7443975329468645	202578.6930046293
0.7445215992023557	201793.9998955695
0.7446456861355559	200851.48134928834
0.7447697937499119	199850.7151927674
0.7448939220488703	198849.78224188727
0.7450180710358784	197848.68246884955
0.7451422407143843	196847.41584584955
0.7452664310878367	195845.9823450781
0.7453906421596846	194844.38193872428
0.7455148739333779	193842.61459896906
0.7456391264123667	192744.24101379374
0.7457633996001021	191630.26425808607
0.7458876935000356	190516.10183958377
0.7460120081156189	189401.7537273472
0.7461363434503048	188287.21989042475
0.7462606995075466	187172.50029786178
0.7463850762907978	186057.59491870174
0.7465094738035127	184942.4246026019
0.7466338920491467	183806.37123585495
0.746758331031155	182670.12852687913
0.7468827907529935	181533.6964441198
0.7470072712181189	180397.0749560133
0.7471317724299886	179260.2640309919
0.7472562943920602	178123.26363748382
0.7473808371077922	176986.07374390913
0.7475054005806435	175836.62744660059
0.7476299848140736	174612.6623751899
0.7477545898115426	173388.49330960037
0.7478792155765113	172164.12021583295
0.7480038621124406	170939.5430598842
0.7481285294227926	169714.76180774308
0.7482532175110298	168489.77642539196
0.7483779263806148	167264.58687881217
0.7485026560350116	166016.52893277587
0.7486274064776842	164706.9231653283
0.748752177712097	163397.09913025517
0.7488769697417158	162087.05679117344
0.749001782570006	160776.7961117034
0.7491266162004343	159466.3170554539
0.7492514706364677	158155.61958602772
0.7493763458815739	156844.703667022
0.7495012419392209	155484.40351595418
0.7496261588128773	154053.19502914845
0.7497510965060128	152621.74800759394
0.7498760550220971	151190.06241153635
0.7500010343646007	149758.1382012125
0.7501260345369949	148325.97533685292
0.750251055542751	146893.57377868422
0.7503760973853414	145460.93348692163
0.7505011600682389	143983.6984253123
0.750626243594917	142469.18091505457
0.7507513479688495	140954.4109852141
0.7508764731935109	139439.38859371815
0.7510016192723765	137924.1136984899
0.7511267862089218	136408.5862574472
0.7512519740066232	134892.8062284971
0.7513771826689577	133376.77356954128
0.7515024121994025	131838.56685211396
0.7516276626014359	130289.88278466192
0.751752933878536	128740.94060320134
0.7518782260341824	127191.74026471
0.7520035390718548	125642.28172616156
0.7521288729950334	124092.56494452414
0.7522542278071992	122542.58987675635
0.7523796035118337	120992.35647980984
0.7525050001124189	119387.23202538786
0.7526304176124378	117769.95866300809
0.7527558560153731	116152.41575507002
0.752881315324709	114534.6032566457
0.7530067955439299	112916.5211228044
0.7531322966765205	111298.16930860963
0.7532578187259665	109679.547769112
0.7533833616957542	108060.65645935785
0.75350892558937	106414.11996861051
0.7536345104103016	104766.02178717413
0.7537601161620366	103117.64892270835
0.7538857428480638	101469.00132943023
0.7540113904718717	99820.07896155537
0.7541370590369503	98170.88177328622
0.7542627485467898	96521.40971881799
0.7543884590048808	94874.59547188852
0.7545141904147151	93256.75216755146
0.7546399427797842	91638.63922266629
0.7547657161035808	90020.25659229005
0.754891510389598	88401.6042314755
0.7550173256413296	86782.68209526685
0.7551431618622698	85163.49013870253
0.7552690190559135	83544.02831681247
0.7553948972257561	81925.30217493436
0.7555207963752938	80309.68163347112
0.755646716508023	78693.79182191855
0.755772657627441	77077.63269539684
0.7558986197370455	75461.20420902048
0.756024602840335	73844.50631789678
0.7561506069408084	72227.5389771246
0.7562766320419653	70610.30214179415
0.7564026781473054	68994.97528287876
0.75652874526033	67383.21456929768
0.7566548333845401	65771.18522893016
0.7567809425234375	64158.887217006486
0.7569070726805247	62546.32048874841
0.7570332238593047	60933.484999369175
0.7571593960632813	59320.380704073505
0.7572855892959586	57707.00755806186
0.7574118035608413	56175.99660960327
0.7575380388614347	54725.57118770999
0.7576642952012449	53274.904028245845
0.7577905725837782	51823.99509092388
0.7579168710125422	50372.84433544312
0.7580431904910444	48921.45172150257
0.7581695310227928	47469.817208794855
0.7582958926112967	46017.94075699986
0.7584222752600652	44637.254596734005
0.7585486789726085	43297.37343560785
0.7586751037524372	41957.26896095434
0.7588015496030628	40616.941135552435
0.7589280165279966	39276.38992218228
0.7590545045307512	37935.6152836099
0.7591810136148396	36594.61718259779
0.7593075437837755	35253.39558190019
0.7594340950410726	34035.81107600073
0.7595606673902461	32853.96013841934
0.7596872608348112	31671.91222568049
0.7598138753782836	30489.66730495749
0.75994051102418	29307.225343413265
0.7600671677760173	28124.586308209706
0.7601938456373134	26941.750166499372
0.7603205446115863	25758.716885432754
0.7604472647023548	24725.946867077528
0.7605740059131385	23707.96046964375
0.7607007682474575	22689.804407809403
0.7608275517088319	21671.478653300346
0.7609543563007835	20652.983177829945
0.7610811820268336	19634.317953114245
0.7612080288905045	18615.48295086305
0.7613348968953197	17604.130398387406
0.7614617860448022	16749.616675782796
0.7615886963424764	15894.960534223255
0.7617156277918667	15040.161949974281
0.7618425803964988	14185.220899293894
0.7619695541598982	13330.137358438624
0.7620965490855914	12474.911303660505
0.7622235651771058	11619.542711205602
0.7623506024379685	10810.624705373693
0.7624776608717082	10205.79473384793
0.7626047404818536	9600.863957326885
0.7627318412719337	8995.832359010792
0.762858963245479	8390.699922094598
0.7629861064060198	7785.4666297722
0.7631132707570876	7180.132465233784
0.7632404563022137	6574.69741166849
0.7633676630449308	6032.641463561811
0.7634948909887717	5625.623040258669
0.7636221401372697	5218.536780552172
0.7637494104939593	4811.38267313534
0.7638767020623748	4404.160706701194
0.7640040148460518	3996.8708699388444
0.7641313488485262	3589.5131515370495
0.7642587040733344	3182.087540181725
0.7643860805240132	2848.82612728186
0.7645134782041005	2604.090321971074
0.7646408971171346	2359.313727359301
0.764768337266654	2114.4963366485154
0.7648957986561985	1869.6381430391991
