#wavelength	surface flux
0.428837	21.755636195093825
0.43312537	42.96168232019026
0.43745662370000005	51.17527217430481
0.4418311899370001	60.80948142144862
0.44624950183637	71.95619556238648
0.4507119968547338	84.53776494690331
0.45521911682328114	99.06688218784751
0.4597713079915139	116.95292574074342
0.4643690210714291	137.6010084261535
0.4690127112821433	161.372474867711
0.47370283839496474	188.39258944805712
0.47843986677891437	218.68210608219425
0.48322426544670355	253.39270150136537
0.48805650810117057	293.49959255730846
0.4929370731821824	339.0411742273102
0.49786644391400414	389.969915454065
0.5028451083531442	446.4051964936843
0.5078735594366757	508.3675152862905
0.5129522950310424	574.8086701906966
0.5180818179813528	646.3052471647034
0.5232626361611664	727.0254594403674
0.5284952625227781	806.0482531560436
0.5337802151480058	881.976053450285
0.5391180172994858	950.4633378384268
0.5445091974724807	1002.1995217650436
0.5499542894472055	1027.5520073821435
0.5554538323416777	1009.8759060553901
0.5610083706650945	932.0459178943089
0.5666184543717453	778.1728362013246
0.5722846389154628	551.5823073110672
0.5780074853046174	288.9842536820484
0.5837875601576636	84.25038384924007
0.5896254357592402	8.516440545921647
0.5955216901168326	150.75743756087113
0.6014769070180009	574.789791124516
0.607491676088181	1295.5148888883848
0.6135665928490629	2241.9685556276554
0.6197022587775535	3354.814953983567
0.625899281365329	4606.385411353265
0.6321582741789823	5973.726000488644
0.6384798569207721	7464.649154392216
0.6448646554899798	9057.553849697048
0.6513133020448797	10843.929914166989
0.6578264350653285	12678.054448841636
0.6644046994159818	14719.010537662052
0.6710487464101416	15139.616659257137
0.677759233874243	19332.062095028003
0.6845368262129854	21940.460971099248
0.6913821944751153	24229.130852411818
0.6982960164198664	27513.383803445588
0.7052789765840651	30636.086883157113
0.7123317663499058	33833.85501009731
0.7194550840134049	35882.21653061475
0.7266496348535388	37843.632024870436
0.7339161312020743	40424.60003266337
0.741255292514095	41583.066555153106
0.748667845439236	38826.03697501022
0.7561545238936284	27731.930936878234
0.7637160691325647	6470.323641268809
0.7713532298238903	5324.1182919173425
0.7790667621221293	33628.55523536439
0.7868574297433505	64086.49119583705
0.7947260040407841	55687.639600718976
0.8026732640811919	102292.73146537476
0.8106999967220039	112729.69818293097
0.8188069966892239	131370.87525137252
0.8269950666561161	146326.64689832518
0.8352650173226772	159272.54761121795
0.8436176674959041	180934.41239952878
0.852053844170863	198492.12513035632
0.8605743826125718	221346.8600213767
0.8691801264386976	240866.0697270412
0.8778719277030844	257429.4270423002
0.8866506469801153	269843.53734548745
0.8955171534499164	265632.24221777444
0.9044723249844157	322408.3847530806
0.9135170482342599	345000.2982554105
0.9226522187166025	361896.9092393817
0.9318787409037684	223748.96292896522
0.941197528312806	309861.23133994575
0.9506095035959342	288403.2180271266
0.9601155986318936	292400.232136048
0.9697167546182125	349748.646397163
0.9794139221643946	473863.28247802
0.9892080613860387	562060.0982263122
0.9991001419998989	646086.8593897441
1.0090911434198981	710370.3657736627
1.019182054854097	783707.9203854442
1.0293738754026378	791521.4603276991
1.0396676141566643	900285.8951600306
1.050064290298231	946030.1956777694
1.0605649332012133	1020126.2308893168
1.0711705825332256	1069837.2932458094
1.0818822883585577	1138999.7802416265
1.0927011112421434	1125350.8378557863
1.1036281223545648	646066.7217535167
1.1146644035781104	540115.977280195
1.1258110476138916	540886.1844592388
1.1370691580900303	648671.8981369865
1.1484398496709307	795177.4175361857
1.1599242481676402	398364.95319525554
1.1715234906493166	827156.7161029978
1.1832387255558097	1454069.1654733967
1.1950711128113678	1765024.057142065
1.2070218239394814	1919138.7590614846
1.2190920421788762	2094831.8014518544
1.2312829626006652	2248079.2496369197
1.2435957922266716	2386197.171782662
1.2560317501489384	2500195.7822010354
1.2685920676504279	2561551.171628727
1.281277988326932	2622799.492834485
1.2940907682102014	2535365.1207592203
1.3070316758923035	2458611.1023923396
1.3201019926512265	2603294.3447801205
1.3333030125777388	1054406.1442966105
1.3466360427035162	220609.07114497884
1.3601024031305513	56025.73565231432
1.373703427161857	284982.9708500237
1.3874404614334754	36959.78334604091
1.4013148660478103	153532.43579836632
1.4153280147082883	115310.10928270985
1.4294812948553712	178259.06687662884
1.443776107803925	412683.8131886187
1.4582138688819641	1199352.9814864951
1.4727960075707838	1049886.2463671947
1.4875239676464918	1952570.4357637747
1.5023992073229566	2288652.500199483
1.5174231993961862	3022642.5700681736
1.532597431390148	3833091.769350732
1.5479234057040496	4317160.276481004
1.5634026397610903	4550884.315271714
1.579036666158701	4191611.675521992
1.594827032820288	5016474.111712704
1.610775303148491	4706210.031653802
1.6268830561799759	3578341.9876256827
1.6431518867417756	4822267.413604389
1.6595834056091934	4477264.025026283
1.6761792396652853	3904854.2007839005
1.6929410320619382	2821319.088792605
1.7098704423825577	2954642.598204389
1.7269691468063835	3778676.0877114343
1.744238838274447	3098693.241657717
1.7616812266571917	3227080.775785726
1.7792980389237634	694778.3725305983
1.7970910193130012	1081691.8010494267
1.815061929506131	295690.8599880664
1.8332125488011928	192626.9801927235
1.8515446742892046	479884.3865989916
1.8700601210320964	202794.7207034215
1.8887607222424174	1201794.4514685438
1.9076483294648416	105278.20029809007
1.92672481275949	134911.04593415378
1.9459920608870853	516822.82339485514
1.9654519814959561	722715.418806728
1.9851065013109155	2249998.141305108
2.0049575663240247	3165091.2059942614
2.025007141987265	4721649.902886411
2.0452572134071376	7002619.366556175
2.065709785541209	7894103.875559842
2.086366883396621	8185512.816946127
2.107230552230587	7835228.533971844
2.1283028577528933	7361302.20022215
2.1495858863304225	5817886.823422297
2.1710817451937263	5375541.41829184
2.1927925626456637	3016146.7775365314
2.2147204882721203	1440079.5139320856
2.2368676931548412	549925.9954615631
2.25923637008639	525698.120254289
2.281828733787254	430969.10901481565
2.3046470211251266	694922.3626061745
2.327693491336378	279232.11351802305
2.3509704262497415	255673.60565420202
2.374480130512239	202945.65317930985
2.3982249318173614	401100.2682919644
2.4222071811355352	902272.2682212448
2.4464292529468903	1006527.8304684813
2.4708935454763594	749941.2675834983
2.4956024809311232	342088.8290747017
2.5205585057404343	113955.10278017008
2.5457640907978387	256375.7362351688
2.5712217317058172	68803.3739158033
2.5969339490228753	39062.294888028235
2.622903288513104	191584.80295304913
2.6491323213982354	339168.6455615367
2.6756236446122177	16557.614448368506
2.7023798810583397	139486.50187910532
2.729403679868923	516019.58700082736
2.7566977166676123	126427.27875169042
2.7842646938342885	97540.81327150656
2.812107340772631	139064.8107340795
2.8402284141803578	394249.4490687612
2.8686306983221614	241571.69167069375
2.897317005305383	359777.11047328275
2.926290175358437	947741.547817929
2.9555530771120213	1179705.3335967083
2.9851086078831415	1266837.0992183578
3.014959693961973	1492591.7382619972
3.0451092909015927	1229370.6456658856
3.0755603838106085	1443342.2582273271
3.1063159876487147	877767.9472547761
3.137379147525202	584521.5433753617
3.168752939000454	361436.3155654894
3.200440468390459	257987.7185415431
3.232444873074363	158434.57580414505
3.264769321805107	517783.9274336621
3.297417015023158	514287.17446748575
3.330391185173389	81006.4222316534
3.3636950970251234	389977.3935442948
3.397332047995375	304024.82810982974
3.4313053684753285	213793.12191991054
3.465618422160081	270841.7588638873
3.5002746063816828	450135.96563374903
3.5352773524454997	573423.8932932179
3.570630125969955	858945.9378665205
3.606336427229654	1162259.2948275025
3.6423997915019504	1699312.1128259334
3.67882378941697	2310424.743275223
3.7156120273111397	2466188.0392881865
3.7527681475842516	3157840.9289485607
3.7902958290600934	3140982.530209754
3.8281987873506953	4227302.4115870055
3.8664807752242023	4214017.5193718355
3.905145582976444	4368811.548667555
3.9441970388062084	4920691.234527017
3.983639009194271	4950143.301763839
4.023475399286213	5328809.723404067
4.063710153279075	5446210.635638046
4.1043472548118665	5393577.6639321
4.145390727359985	5244648.939259827
4.186844634633585	5087924.599640945
4.2287130809799205	4696903.194429257
4.27100021178972	4435219.890830368
4.313710213907617	4444941.307099282
4.356847316046694	3837414.4463506476
4.40041578920716	3305379.0948712146
4.444419947099232	2886973.888052077
4.488864146570225	2638519.7860844308
4.533752788035927	2369227.277121698
4.579090315916286	2466082.7367881644
4.624881219075449	2360593.8360471614
4.671130031266204	2430004.159201489
4.717841331578866	2172889.719849124
4.765019744894654	2255313.8020406747
4.812669942343601	2233703.060033675
4.8607966417670365	2396588.9428282557
4.9094046081847065	2148631.3855150566
4.958498654266554	1286412.6133380109
5.008083640809219	1630678.0994661448
5.058164477217312	2242021.982738815
5.108746121989485	1660014.3760510015
5.15983358320938	1151009.009081399
5.211431919041474	783959.6850339466
5.263546238231889	1125677.4754282786
5.316181700614208	1451182.6961297868
5.36934351762035	639412.6881646527
5.423036952796553	434206.92961471557
5.4772673223245185	459697.26917285065
5.532039995547764	542489.6466732322
5.587360395503242	353995.8960374553
5.643233999458275	256517.93348100063
5.6996663394528575	249469.83207068514
5.756663002847385	226795.71996818128
5.814229632875859	302714.5895186694
5.872371929204618	182569.5136524112
5.931095648496664	256280.48117071274
5.990406604981631	348009.33257405856
6.050310671031448	292752.1283966524
6.110813777741763	353911.56394336023
6.17192191551918	303510.93384160835
6.233641134674372	962013.537169009
6.295977546021115	1084930.7366385455
6.358937321481327	593210.7252106691
6.42252669469614	153986.62086183735
6.486751961643101	132317.15405339157
6.551619481259532	172208.46701211203
6.617135676072128	153263.8211916124
6.683307032832849	295721.9845322746
6.750140103161177	387882.7297664545
6.81764150419279	388974.92096054414
6.885817919234718	244463.92010439266
6.954676098427065	401497.23638852587
7.024222859411336	206989.84964885426
7.094465088005449	372454.6749531717
7.165409738885503	227640.95623032516
7.237063836274358	262674.8424415214
7.309434474637103	200044.8000754735
7.382528819383473	160566.60954726316
7.456354107577308	157279.8234857172
7.530917648653081	227720.7297849557
7.606226825139612	265627.8673884243
7.682289093391009	116214.43202281647
7.759111984324918	203623.2911940326
7.836703104168168	210938.73124957847
7.91507013520985	198049.61161182876
7.994220836561947	243190.70458465314
8.074163044927568	255408.33101031228
8.154904675376844	290485.654396703
8.23645372213061	351566.4149682865
8.318818259351918	395189.3453893814
8.402006441945437	418034.50060443435
8.486026506364892	532845.238353206
8.57088677142854	574510.8188489369
8.656595639142825	639041.4476510348
8.743161595534254	699272.1061535274
8.830593211489598	760600.790885723
8.918899143604493	732136.7733861383
9.00808813504054	757032.0226629255
9.098169016390944	823167.392806711
9.189150706554853	844999.677145049
9.281042213620402	842887.3734540729
9.373852635756606	719257.3608330541
9.467591162114172	834896.6346235131
9.562267073735315	884211.2683640115
9.657889744472667	788112.4646802366
9.754468641917395	860392.2259405105
9.852013328336568	682483.4972889604
9.950533461619933	818569.2092526647
10.050038796236134	766359.3567950412
10.150539184198495	778281.2316036136
10.252044576040479	693125.0415665376
10.354565021800884	535780.5813222699
10.458110672018893	591545.3366661458
10.562691778739081	638618.7689655423
10.668318696526473	627467.3685544293
10.775001883491738	604854.0734837959
10.882751902326655	545067.7645073951
10.991579421349924	415163.0053342176
11.101495215563421	575472.4477668952
11.212510167719055	444049.1097486681
11.324635269396246	490511.95094837813
11.43788162209021	526905.0231853463
11.552260438311112	353751.1829966968
11.667783042694223	388880.3420418187
11.784460873121166	386341.66554646083
11.902305481852377	421440.4574412649
12.0213285366709	437465.3680548334
12.14154182203761	455027.29751200264
12.262957240257986	332169.749551953
12.385586812660566	268186.99796991004
12.509442680787172	266921.24876039673
12.634537107595044	337809.7575787436
12.760882478670995	310548.4855936489
12.888491303457704	289121.04653826647
13.01737621649228	243202.69295642775
13.147549978657205	266772.1762754789
13.279025478443776	190670.4257020468
13.411815733228213	181675.58293640337
13.545933890560496	246469.2413366269
13.681393229466101	202107.9922044814
13.818207161760762	225551.04164854044
13.956389233378369	205263.6587223496
14.095953125712155	216423.3617179322
14.236912656969274	188446.70388602625
14.379281783538968	132532.56567622762
14.523074601374358	125620.95135572692
14.6683053473881	176174.47601020397
14.814988400861985	159241.89565193688
14.963138284870602	139921.4962439281
15.11276966771931	154623.4030131359
15.263897364396504	174655.57313887638
15.41653633804047	135263.96105756375
15.570701701420873	96025.22388311566
15.726408718435081	82126.42527911396
15.883672805619431	163413.02017427795
16.042509533675627	109618.97369906765
16.202934629012383	98287.77793170219
16.36496397530251	98723.88721774344
16.528613615055534	90950.49437393225
16.69389975120609	75683.75859538988
16.86083874871815	68136.38012658292
17.02944713620533	92481.35196152292
17.199741607567383	62599.8757066137
17.37173902364306	56871.59906165772
17.54545641387949	60869.28057732515
17.720910978018285	62959.390110230546
17.898120087798468	59350.41767027669
18.077101288676452	63067.05976977975
18.257872301563214	51639.77793404154
18.44045102457885	57237.75271670635
18.62485553482464	48472.67036179964
18.811104090172883	79305.86227770253
18.999215131074614	40774.934742890095
19.189207282385357	42875.98190603376
19.381099355209216	33938.180510046186
19.574910348761303	36595.15999685355
19.77065945224892	37895.265116241404
19.968366046771408	50106.703532100364
20.16804970723912	43499.00704657051
20.369730204311512	33786.57646835573
20.573427506354626	28646.28136220593
20.779161781418175	35447.39356347493
20.98695339923236	26692.29857905308
21.19682293322468	25028.615106199668
21.408791162556927	35419.740695971355
21.622879074182496	24536.77985169663
21.839107864924323	20360.43883223436
22.057498943573567	22164.378435475686
22.278073933009303	26201.657066330485
22.500854672339393	18476.422343717382
22.72586321906279	36383.426504144634
22.953121851253417	17663.316144327215
23.18265306976595	30019.992957434806
23.41447960046361	24970.33750774397
23.648624396468247	14711.527934283708
23.88511064043293	13119.338289742773
24.12396174683726	28701.551128326704
24.365201364305634	26354.522890664153
24.608853377948687	24719.39039559574
24.854941911728176	19593.066913032213
25.103491330845458	10517.917137793533
25.354526244153913	10909.267491894314
25.608071506595454	19990.69433972302
25.864152221661406	14514.205803830553
26.122793743878024	14816.561886148185
26.384021681316803	16527.979389310134
26.64786189812997	8219.075349105133
26.91434051711127	12552.062671950685
27.18348392228238	15263.719767230377
27.455318761505207	18967.473665439815
27.72987194912026	14593.59595237604
28.007170668611465	7863.432105401994
28.28724237529758	6756.030616756341
28.57011479905055	6789.90127955967
28.855815947041062	11245.979556567643
29.144374106511474	7537.742887014178
29.435817847576587	9173.160304155494
29.730176026052348	7316.018785697048
30.027477786312875	9787.259643467869
30.327752564176006	6142.833275305052
30.631030089817763	6911.404155433619
30.93734039071594	6050.8417447826505
31.246713794623105	7903.292444692031
31.559180932569333	9178.07264071059
31.874772741895026	6448.13558873461
32.19352046931398	8440.843920490699
32.51545567400712	8256.078764095371
32.84061023074719	3964.1283087603015
33.169016333054664	4491.95664113087
33.500706496385206	4863.591757512676
33.83571356134906	8309.431999681963
34.17407069696255	5081.3108466697895
34.51581140393218	3641.6542444339243
34.8609695179715	4541.84983241293
35.209579213151216	3800.9309391252345
35.56167500528272	3003.007634876285
35.917291755335555	2770.0269245884797
36.27646467288891	3986.9810696528825
36.639229319617804	3954.298201706614
37.005621612813975	5703.466108595638
37.37567782894212	2988.2190981872773
37.74943460723154	3560.2018859688287
38.12692895330385	5135.951432504638
38.5081982428369	4622.54806311484
38.893280225265265	2685.4084595895065
39.28221302751791	1964.5209319463481
39.6750351577931	3435.0221340318276
40.071785509371026	2035.007500991752
40.47250336446474	2017.568828267125
40.87722839810939	2091.3375370276717
41.28600068209048	3538.537156326308
41.69886068891139	3578.2367650645892
42.1158492958005	2784.470444381378
42.53700778875851	2561.3758420078625
42.962377866646094	1812.518803083204
43.392001645312554	1702.0511710215176
43.825921661765676	1400.2842851256655
44.264180878383335	1474.510144453026
44.70682268716717	1473.0482775465987
45.15389091403884	1573.1698840874174
45.60542982317923	2193.780345901415
46.06148412141103	1730.205516623225
46.52209896262513	1295.5728545230836
46.98731995225138	1279.5775110733014
47.4571931517739	1884.247844020568
47.93176508329164	1072.516245966072
48.411082734124555	1672.156771832562
48.8951935614658	1038.5471106062419
49.38414549708046	892.8240536151363
49.877986952051266	966.7955893516702
50.37676682157178	933.3050994630195
50.88053448978749	900.9343328267998
51.38933983468537	869.6395211922219
51.903233233032225	839.3939669288308
52.422265565362544	810.15926292701
52.946488221016175	781.9028820414932
53.47595310322633	754.6023420662532
54.010712634258596	728.2172892202473
54.550819760601186	702.7238369199364
55.0963279582072	678.0915832755417
55.647291237789275	654.2919639662076
56.20376415016716	631.3020112774349
56.765801791668835	609.0907185068478
57.33345980958552	587.63666599383
57.906794407681375	566.9144719852726
58.48586235175819	546.8982404404469
59.070720975275776	527.5687168614025
59.661428185028534	508.89847230544865
60.25804246687882	490.87157462020957
60.860622891547614	473.4623309959161
61.46922912046309	456.65247417520453
62.083921411667724	440.4232145692034
62.7047606257844	424.7515336601135
63.331808232042235	409.6249567993649
63.965126314362664	395.0201966515769
64.60477757750628	380.9220431128774
65.25082535328136	367.313578343071
65.90333360681416	354.176556315675
66.56236694288232	341.49939068874573
67.22799061231113	329.2630809746988
67.90027051843424	317.45336247521004
68.57927322361859	306.0572399316021
69.26506595585477	295.05891060462744
69.95771661541333	284.447471440394
70.65729378156746	274.2073629269299
71.36386671938313	264.32722135367334
72.07750538657696	254.7946214926267
72.79828044044274	245.59701602670089
73.52626324484716	236.72490130474023
74.26152587729563	228.16503606327788
75.00414113606858	219.90847758229617
75.75418254742928	211.94376174119537
76.51172437290357	204.26051645722018
77.27684161663261	196.85086143845098
78.04961003279894	189.7029272320574
78.83010613312693	182.81036332631408
79.6184071944582	176.1623890833456
80.41459126640278	169.75088546355082
81.2187371790668	163.56870885162488
82.03092455085748	157.60648678778023
82.85123379636605	151.85782570545402
83.6797461343297	146.3143715633536
84.51654359567301	140.96930131311532
85.36170903162974	135.8161850166967
86.21532612194603	130.84720940097296
87.0774793831655	126.05741574149295
87.94825417699715	121.43927836460239
88.82773671876713	116.98736092441435
89.71601408595481	112.69582242107023
90.61317422681435	108.5585201510788
91.5193059690825	104.5710959255759
92.43449902877332	100.7270216418376
93.35884401906105	97.0223141532276
