#wavelength	surface flux
0.7	36462706.071635224
0.7001166666666666	36614736.89386774
0.7002333527777778	36651449.11847246
0.700350058336574	36688167.461781256
0.7004667833462966	36724891.9248139
0.7005835278101878	36761622.508590475
0.7007002917314895	36798359.21413096
0.7008170751134447	36835102.042455696
0.7009338779592968	36871850.994585134
0.7010507002722901	36883868.31890702
0.7011675420556689	36865783.445799604
0.701284403312678	36847695.5585467
0.7014012840465635	36829604.65664589
0.7015181842605713	36811510.73959477
0.701635103957948	36793413.80689082
0.701752043141941	36775313.85803142
0.701869001815798	36757210.89251386
0.7019859799827672	36646984.90395258
0.7021029776460976	36472630.20736768
0.7022199948090387	36298246.45166647
0.7023370314748403	36123833.632006034
0.7024540876467528	35949391.743542366
0.702571163328027	35774920.7814309
0.7026882585219152	35600420.74082528
0.7028053732316688	35425891.61687981
0.7029225074605406	35412770.60479631
0.7030396612117841	35461985.712515585
0.7031568344886527	35511209.02275282
0.7032740272944008	35560440.53687507
0.7033912396322832	35609680.256249696
0.7035084715055552	35658928.18224417
0.7036257229174727	35708184.31622632
0.7037429938712924	35757448.65956418
0.7038602843702709	35851513.21031396
0.7039775944176659	35953190.488907576
0.7040949240167356	36054884.713714324
0.7042122731707383	36156595.88755849
0.7043296418829335	36258324.01326502
0.7044470301565806	36360069.093659155
0.70456443799494	36461831.13156661
0.7046818654012724	36563610.129813775
0.7047993123788394	36606749.66816334
0.7049167789309024	36649829.08558738
0.7050342650607243	36692915.6829144
0.7051517707715678	36736009.46134096
0.7052692960666963	36779110.422063895
0.705386840949374	36822218.56628026
0.7055044054228656	36865333.89518741
0.7056219894904361	36905557.57569939
0.7057395931553511	36927366.17688264
0.705857216420877	36949178.412832774
0.7059748592902804	36970994.284155555
0.7060925217668288	36992813.791456915
0.70621020385379	37014636.93534282
0.7063279055544321	37036463.71641934
0.7064456268720246	37058294.135292746
0.7065633678098366	37086821.21950021
0.7066811283711383	37133785.77712275
0.7067989085592001	37180758.16217156
0.7069167083772933	37227738.37595118
0.7070345278286895	37274726.41976646
0.707152366916661	37321722.2949224
0.7072702256444803	37368726.002724126
0.7073881040154211	37415737.544477224
0.7075060020327569	37439213.50938001
0.7076239196997625	37428406.000763245
0.7077418570197124	37417596.69089506
0.7078598139958823	37406785.579475224
0.7079777906315483	37395972.66620348
0.7080957869299869	37385157.95077953
0.7082138028944751	37374341.432903014
0.7083318385282908	37363523.11227351
0.7084498938347124	37395006.34383106
0.708567968817018	37462360.47155715
0.7086860634784875	37529725.82497127
0.7088041778224007	37597102.405944355
0.7089223118520377	37664490.21634751
0.7090404655706796	37731889.25805236
0.709158638981608	37799299.5329309
0.709276832088105	37866721.04285527
0.7093950448934531	37925866.454100795
0.7095132774009353	37981069.40316459
0.7096315296138355	38036281.55271991
0.7097498015354378	38091502.904300146
0.7098680931690269	38146733.45943892
0.7099864045178884	38201973.21967029
0.7101047355853081	38257222.186528355
0.7102230863745722	38312480.36154753
0.7103414568889679	38280248.379978694
0.7104598471317828	38228129.10890728
0.7105782571063047	38176001.15129073
0.7106966868158224	38123864.50568124
0.710815136263625	38071719.170630835
0.7109336054530023	38019565.144691214
0.7110520943872445	37967402.42641395
0.7111706030696424	37915231.01435029
0.7112891315034873	37942829.823225886
0.7114076796920712	37974239.713754065
0.7115262476386865	38005654.839264
0.7116448353466263	38037075.200628154
0.711763442819184	38068500.79871923
0.711882070059654	38099931.634410016
0.7120007170713306	38131367.70857339
0.7121193838575091	38169264.0894815
0.7122380704214853	38274491.48709744
0.7123567767665555	38379736.42261288
0.7124755028960166	38484998.898950964
0.7125942488131658	38590278.91903502
0.7127130145213015	38695576.48578937
0.7128318000237216	38800891.60213786
0.7129506053237256	38906224.2710059
0.7130694304246129	38983832.20436299
0.7131882753296837	38964456.25010806
0.7133071400422386	38945077.066527426
0.7134260245655789	38925694.65308287
0.7135449289030065	38906309.00923607
0.7136638530578235	38886920.13444864
0.7137827970333332	38867528.028182045
0.7139017608328388	38848132.689897746
0.7140207444596443	38849004.341220744
0.7141397479170543	38886036.20237322
0.7142587712083737	38923074.235502504
0.7143778143369084	38960118.44163734
0.7144968773059646	38997168.82180654
0.7146159601188489	39034225.37703909
0.7147350627788687	39071288.10836418
0.7148541852893318	39108357.01681114
0.7149733276535467	39173215.81357525
0.7150924898748222	39266101.892467976
0.715211671956468	39359003.45237388
0.7153308739017941	39451920.49587316
0.715450095714111	39544853.02554631
0.71556933739673	39637801.04397443
0.7156885989529628	39730764.553738944
0.7158078803861218	39823743.557421885
0.7159271816995193	39789708.957706325
0.7160465028964692	39681110.52906677
0.7161658439802853	39572494.00068911
0.7162852049542819	39463859.36955675
0.7164045858217744	39355206.632652454
0.716523986586078	39246535.78695873
0.7166434072505089	39137846.82945744
0.716762847818384	39029139.75712986
0.7168823082930204	39024519.08324977
0.7170017886777359	39050524.744923875
0.7171212889758488	39076534.74087492
0.7172408091906781	39102549.07182529
0.7173603493255433	39128567.73849749
0.7174799093837642	39154590.741614126
0.7175994893686615	39180618.08189796
0.7177190892835562	39206649.76007183
0.7178387091317702	39362614.54533814
0.7179583489166254	39531647.947714485
0.7180780086414448	39700709.522324696
0.7181976883095517	39869799.273864
0.7183173879242699	40038917.207028575
0.718437107488924	40208063.326515384
0.7185568470068389	40377237.637022175
0.7186766064813399	40541670.27379794
0.7187963859157535	40586873.06787721
0.7189161853134061	40632083.3957555
0.719036004677625	40677301.258688435
0.7191558440117378	40722526.65793184
0.7192757033190732	40767759.59474184
0.7193955826029597	40813000.07037459
0.7195154818667269	40858248.08608665
0.7196354011137046	40892223.797759406
0.7197553403472235	40874270.74766202
0.7198752995706147	40856314.70538963
0.7199952787872098	40838355.67044351
0.720115278000341	40820393.6423249
0.7202352972133411	40802428.62053494
0.7203553364295432	40784460.60457471
0.7204753956522815	40766489.59394512
0.7205954748848902	40748808.75122268
0.7207155741307044	40731771.27670634
0.7208356933930594	40714730.962610945
0.7209558326752915	40697687.8084632
0.7210759919807375	40680641.81378974
0.7211961713127342	40663592.9781172
0.7213163706746197	40646541.30097201
0.7214365900697322	40629486.78188065
0.7215568295014103	40628182.285116345
0.721677088972994	40645673.392353304
0.7217973684878227	40663167.41477476
0.7219176680492374	40680664.35286665
0.7220379876605789	40698164.207114875
0.722158327325189	40715666.978005484
0.7222786870464099	40733172.66602456
0.7223990668275843	40750681.271658316
0.7225194666720555	40762700.79607399
0.7226398865831676	40770830.00633475
0.7227603265642646	40778960.57146387
0.722880786618692	40787092.49168719
0.7230012667497951	40795225.76723055
0.7231217669609201	40803360.398319826
0.7232422872554135	40811496.38518095
0.7233628276366229	40819633.7280399
0.7234833881078956	40843776.453031525
0.7236039686725803	40873999.31282426
0.7237245693340255	40904227.20976024
0.7238451900955812	40934460.14467911
0.7239658309605971	40964698.11842042
0.7240864919324239	40994941.13182407
0.7242071730144127	41025189.18572995
0.724327874209915	41055442.28097808
0.7244485955222832	41078682.24501985
0.7245693369548704	41100765.68671211
0.7246900985110294	41122852.808977954
0.7248108801941148	41144943.61243089
0.7249316820074803	41167038.09768434
0.7250525039544815	41189136.26535203
0.7251733460384739	41211238.116047665
0.7252942082628137	41233499.06398465
0.7254150906308574	41345815.28406558
0.7255359931459625	41458150.223516546
0.7256569158114868	41570503.885457456
0.7257778586307888	41682876.27300874
0.7258988216072273	41795267.38929125
0.7260198047441617	41907677.237426355
0.7261408080449525	42020105.82053634
0.72626183151296	42116056.11740491
0.7263828751515454	42102390.21399892
0.7265039389640706	42088722.03294238
0.726625022953898	42075051.573855646
0.7267461271243904	42061378.836359054
0.7268672514789111	42047703.8200729
0.7269883960208241	42034026.52461737
0.7271095607534942	42020346.94961259
0.7272307456802866	42008735.6124847
0.7273519508045666	42002715.30849548
0.7274731761297006	41996694.00112226
0.7275944216590555	41990671.69019781
0.7277156873959987	41984648.375554875
0.7278369733438982	41978624.057026155
0.727958279506122	41972598.734444365
0.7280796058860397	41966572.40764214
0.7282009524870207	41999657.63687462
0.7283223193124353	42090600.21274655
0.7284437063656539	42181557.94571427
0.7285651136500483	42272530.8383043
0.7286865411689898	42363518.893042915
0.7288079889258514	42454522.11245753
0.7289294569240056	42545540.499075174
0.7290509451668262	42636574.05542403
0.7291724536576875	42709096.812278956
0.7292939823999636	42766280.89438343
0.7294155313970303	42823474.507168375
0.7295371006522632	42880677.6522221
0.7296586901690385	42937890.33113328
0.7297802999507332	42995112.545490935
0.7299019300007252	43052344.296884455
0.7300235803223919	43109585.58690305
0.7301452509191123	43133208.14791906
0.7302669417942654	43141312.86432513
0.7303886529512311	43149418.93151727
0.7305103843933897	43157526.34972061
0.7306321361241218	43165635.11916032
0.7307539081468093	43173745.24006161
0.7308757004648336	43181856.7126497
0.7309975130815778	43189969.537149906
0.7311193460004248	43239284.0235126
0.7312411992247582	43297933.95311355
0.7313630727579622	43356593.65770275
0.7314849666034219	43415263.138909444
0.7316068807645224	43473942.39836297
0.7317288152446498	43532631.4376931
0.7318507700471907	43591330.25852981
0.7319727451755319	43650038.86250331
0.732094740633061	43686396.28758387
0.7322167564231665	43721753.07456961
0.7323387925492371	43757115.754353195
0.7324608490146619	43792484.32791673
0.732582925822831	43827858.79624253
0.7327050229771347	43863239.16031301
0.7328271404809642	43898625.421110876
0.7329492783377112	43929334.891167164
0.7330714365507675	43914013.6962751
0.7331936151235259	43898689.94785056
0.7333158140593796	43883363.645467974
0.7334380333617229	43868034.78870162
0.7335602730339499	43852703.377125815
0.7336825330794556	43837369.41031473
0.7338048135016354	43822032.88784255
0.7339271143038857	43809915.10618008
0.734049435489603	43808588.85834857
0.7341717770621846	43807262.389475755
0.7342941390250283	43805935.6995248
0.7344165213815324	43804608.78845885
0.734538924135096	43803281.656241044
0.7346613472891185	43801954.30283455
0.734783790847	43800626.728202485
0.7349062548121412	43797806.687460944
0.7350287391879431	43792348.573001124
0.7351512439778078	43786889.54885555
0.7352737691851374	43781429.61487263
0.735396314813335	43775968.7709007
0.7355188808658037	43770507.01678812
0.7356414673459482	43765044.352383174
0.7357640742571725	43759580.77753417
0.7358867016028818	43793078.68822654
0.7360093493864824	43865061.061732166
0.7361320176113801	43937055.432299934
0.736254706280982	44009061.80192947
0.7363774153986956	44081080.1726207
0.7365001449679286	44153110.54637356
0.7366228949920899	44225152.92518878
0.7367456654745885	44297207.311067134
0.7368684564188344	44339443.82320132
0.7369912678282374	44364828.153639294
0.7371140997062088	44390216.71479902
0.7372369520561599	44415609.50738563
0.7373598248815024	44441006.53210427
0.7374827181856494	44466407.78966042
0.7376056319720137	44491813.28075948
0.7377285662440091	44517223.00610708
0.7378515210050496	44507736.23166773
0.7379744962585505	44487747.30674777
0.738097492007927	44467755.05034034
0.7382205082565949	44447759.46189018
0.738343545007971	44427760.54084195
0.7384666022654723	44407758.2866402
0.7385896800325165	44387752.69872943
0.7387127783125219	44367743.776553996
0.7388358971089073	44472935.8396014
0.7389590364250921	44590703.73872501
0.7390821962644963	44708491.265831895
0.7392053766305403	44826298.42419313
0.7393285775266454	44944125.21708085
0.7394517989562333	45061971.647767484
0.7395750409227259	45179837.71952572
0.7396983034295463	45295305.914854325
0.739821586480118	45357013.80609913
0.7399448900778645	45418731.98199236
0.7400682142262109	45480460.44424842
0.740191558928582	45542199.194581464
0.7403149241884034	45603948.23470618
0.7404383100091014	45665707.56633759
0.7405617163941028	45727477.19119091
0.7406851433468352	45766446.45875327
0.7408085908707264	45701068.973002255
0.7409320589692048	45635680.59100365
0.7410555476456997	45570281.31094132
0.7411790569036406	45504871.13099903
0.7413025867464579	45439450.04936007
0.7414261371775823	45374018.06420747
0.7415497082004452	45308575.17372407
0.7416732998184786	45279909.94368199
0.741796912035115	45330158.65670504
0.7419205448537874	45380415.74451357
0.7420441982779297	45430681.2085034
0.742167872310976	45480955.05007061
0.7422915669563612	45531237.27061141
0.7424152822175206	45581527.87152229
0.7425390180978901	45631826.85419996
0.7426627746009065	45686347.38086139
0.7427865517300065	45746013.13901383
0.7429103494886282	45805688.841459356
0.7430341678802096	45865374.48985524
0.7431580069081896	45925070.08585919
0.7432818665760077	45984775.63112922
0.7434057468871037	46044491.12732342
0.7435296478449182	46104216.57610028
0.7436535694528923	46104404.021364525
0.7437775117144678	46063829.094266675
0.7439014746330868	46023247.404681034
0.7440254582121922	45982658.95148043
0.7441494624552276	45942063.73353761
0.7442734873656368	45901461.74972514
0.7443975329468645	45860852.99891534
0.7445215992023557	45820237.4799804
0.7446456861355559	45794972.52756173
0.7447697937499119	45775360.59904762
0.7448939220488703	45755745.401878774
0.7450180710358784	45736126.935510404
0.7451422407143843	45716505.199397646
0.7452664310878367	45696880.19299551
0.7453906421596846	45677251.915759005
0.7455148739333779	45657620.367142946
0.7456391264123667	45696900.98653632
0.7457633996001021	45745608.40576365
0.7458876935000356	45794323.94289427
0.7460120081156189	45843047.599281
0.7461363434503048	45891779.376277134
0.7462606995075466	45940519.27523615
0.7463850762907978	45989267.29751159
0.7465094738035127	46038104.36651054
0.7466338920491467	46108118.33395538
0.746758331031155	46178143.97039486
0.7468827907529935	46248181.277773656
0.7470072712181189	46318230.25803702
0.7471317724299886	46388290.91313045
0.7472562943920602	46458363.24499967
0.7473808371077922	46528447.25559093
0.7475054005806435	46589692.998364404
0.7476299848140736	46596436.73681587
0.7477545898115426	46603181.59922375
0.7478792155765113	46609927.58577536
0.7480038621124406	46616674.69665806
0.7481285294227926	46623422.93205924
0.7482532175110298	46630172.29216633
0.7483779263806148	46636922.777166754
0.7485026560350116	46639170.92930546
0.7486274064776842	46629231.01587159
0.748752177712097	46619289.44578551
0.7488769697417158	46609346.21877106
0.749001782570006	46599401.33455212
0.7491266162004343	46589454.792852476
0.7492514706364677	46579506.59339588
0.7493763458815739	46569556.73590603
0.7495012419392209	46566613.86474183
0.7496261588128773	46573746.26497976
0.7497510965060128	46580879.85395106
0.7498760550220971	46588014.631853856
0.7500010343646007	46595150.5988863
0.7501260345369949	46602287.755246595
0.750251055542751	46609426.10113294
0.7503760973853414	46616565.6367436
0.7505011600682389	46612894.60377836
0.750626243594917	46600195.38785028
0.7507513479688495	46587494.05538622
0.7508764731935109	46574790.60603342
0.7510016192723765	46562085.03943906
0.7511267862089218	46549377.35525028
0.7512519740066232	46536667.55311412
0.7513771826689577	46523955.63267761
0.7515024121994025	46508337.467681356
0.7516276626014359	46491362.632957116
0.751752933878536	46474384.96909378
0.7518782260341824	46457404.47561979
0.7520035390718548	46440421.152063556
0.7521288729950334	46423434.9979534
0.7522542278071992	46406446.012817554
0.7523796035118337	46389454.19618418
0.7525050001124189	46364226.951872505
0.7526304176124378	46337205.09757054
0.7527558560153731	46310178.73962622
0.752881315324709	46283147.87728889
0.7530067955439299	46256112.509807825
0.7531322966765205	46229072.636432216
0.7532578187259665	46202028.25641103
0.7533833616957542	46174979.368993185
0.75350892558937	46117551.39302608
0.7536345104103016	46058685.54614763
0.7537601161620366	45999809.88829472
0.7538857428480638	45940924.417832114
0.7540113904718717	45882029.1331245
0.7541370590369503	45823124.03253613
0.7542627485467898	45764209.11443094
0.7543884590048808	45707701.88970859
0.7545141904147151	45675292.9560567
0.7546399427797842	45642878.62091592
0.7547657161035808	45610458.88338594
0.754891510389598	45578033.74256638
0.7550173256413296	45545603.19755667
0.7551431618622698	45513167.247456126
0.7552690190559135	45480725.89136391
0.7553948972257561	45430981.93241467
0.7555207963752938	45323169.508036874
0.755646716508023	45215339.11492174
0.755772657627441	45107490.75007438
0.7558986197370455	44999624.410499536
0.756024602840335	44891740.09320145
0.7561506069408084	44783837.795183815
0.7562766320419653	44675917.51344975
0.7564026781473054	44559446.37464779
0.75652874526033	44427940.24866668
0.7566548333845401	44296412.204997845
0.7567809425234375	44164862.239988446
0.7569070726805247	44033290.34998495
0.7570332238593047	43901696.53133314
0.7571593960632813	43770080.780378096
0.7572855892959586	43638443.09346455
0.7574118035608413	43512762.0961703
0.7575380388614347	43392909.24013756
0.7576642952012449	43273036.40862877
0.7577905725837782	43153143.598314896
0.7579168710125422	43033230.80586576
0.7580431904910444	42913298.027951166
0.7581695310227928	42793345.26124041
0.7582958926112967	42673372.50240171
0.7584222752600652	42487681.51720047
0.7585486789726085	42264218.45716724
0.7586751037524372	42040718.15329058
0.7588015496030628	41817180.59936283
0.7589280165279966	41593605.78917654
0.7590545045307512	41369993.71652189
0.7591810136148396	41146344.37518846
0.7593075437837755	40922657.75896449
0.7594340950410726	40626877.474189
0.7595606673902461	40310141.69946831
0.7596872608348112	39993353.13545151
0.7598138753782836	39676511.77334106
0.75994051102418	39359617.604336634
0.7600671677760173	39042670.619637616
0.7601938456373134	38725670.81044091
0.7603205446115863	38408618.167942844
0.7604472647023548	37946666.30845309
0.7605740059131385	37470239.744625606
0.7607007682474575	36993733.776370354
0.7608275517088319	36517148.390454784
0.7609543563007835	36040483.5736405
0.7610811820268336	35563739.31269038
0.7612080288905045	35086915.59436434
0.7613348968953197	34598359.04252697
0.7614617860448022	33870619.78924484
0.7615886963424764	33142759.246086165
0.7617156277918667	32414777.392837673
0.7618425803964988	31686674.209279705
0.7619695541598982	30958449.67519134
0.7620965490855914	30230103.77034783
0.7622235651771058	29501636.474519335
0.7623506024379685	28714331.131775886
0.7624776608717082	27669533.14775856
0.7626047404818536	26624561.03074385
0.7627318412719337	25579414.75171143
0.762858963245479	24534094.28163185
0.7629861064060198	23488599.591473825
0.7631132707570876	22442930.652199693
0.7632404563022137	21397087.434769955
0.7633676630449308	20246712.026871454
0.7634948909887717	18874001.60511221
0.7636221401372697	17501062.39828446
0.7637494104939593	16127894.368254278
0.7638767020623748	14754497.476887736
0.7640040148460518	13380871.686037738
0.7641313488485262	12007016.957555983
0.7642587040733344	10632933.253284588
0.7643860805240132	9406891.775616864
0.7645134782041005	8357577.995054308
0.7646408971171346	7308089.3288612235
0.764768337266654	6258425.747890823
0.7648957986561985	5208587.2229899205
0.7650232812893079	4158573.725001675
0.7651507851695227	3108385.2247637548
0.7652783103003843	2058021.6931092571
0.7654058566854343	1518055.3820152683
0.7655334243282153	1325967.436188901
