#wavelength	surface flux
0.7	26662096.288464796
0.7001166666666666	26862220.319813244
0.7002333527777778	26896294.53781981
0.700350058336574	26930374.434862692
0.7004667833462966	26964460.011888374
0.7005835278101878	26998551.26984365
0.7007002917314895	27032648.2096752
0.7008170751134447	27066750.832330048
0.7009338779592968	27100859.138755325
0.7010507002722901	27096092.356444206
0.7011675420556689	27044009.46328232
0.701284403312678	26991917.889638323
0.7014012840465635	26939817.634065315
0.7015181842605713	26887708.695116386
0.701635103957948	26835591.071344335
0.701752043141941	26783464.761301663
0.701869001815798	26731329.763540577
0.7019859799827672	26557189.039634597
0.7021029776460976	26298116.22391432
0.7022199948090387	26039000.229391094
0.7023370314748403	25779841.0488689
0.7024540876467528	25520638.67514999
0.702571163328027	25261393.101035886
0.7026882585219152	25002104.319325406
0.7028053732316688	24742772.322818346
0.7029225074605406	24699248.63898806
0.7030396612117841	24739067.87795312
0.7031568344886527	24778893.753458016
0.7032740272944008	24818726.266608804
0.7033912396322832	24858565.418511804
0.7035084715055552	24898411.21027342
0.7036257229174727	24938263.64300034
0.7037429938712924	24978122.717799418
0.7038602843702709	25083754.001421697
0.7039775944176659	25200557.2114527
0.7040949240167356	25317379.88868542
0.7042122731707383	25434222.036364287
0.7043296418829335	25551083.657734495
0.7044470301565806	25667964.756041583
0.70456443799494	25784865.334531628
0.7046818654012724	25901785.396451496
0.7047993123788394	25945866.932167083
0.7049167789309024	25989872.207002178
0.7050342650607243	26033884.816049814
0.7051517707715678	26077904.760532267
0.7052692960666963	26121932.041672114
0.705386840949374	26165966.660692133
0.7055044054228656	26210008.618815396
0.7056219894904361	26247836.79388437
0.7057395931553511	26246136.69683384
0.705857216420877	26244436.316433806
0.7059748592902804	26242735.65263704
0.7060925217668288	26241034.705396302
0.70621020385379	26239333.474664357
0.7063279055544321	26237631.96039396
0.7064456268720246	26235930.16253785
0.7065633678098366	26247971.89749463
0.7066811283711383	26297866.361926187
0.7067989085592001	26347769.142101813
0.7069167083772933	26397680.23940744
0.7070345278286895	26447599.655229315
0.707152366916661	26497527.39095384
0.7072702256444803	26547463.44796759
0.7073881040154211	26597407.827657577
0.7075060020327569	26612405.316317383
0.7076239196997625	26576498.369171873
0.7077418570197124	26540585.437535208
0.7078598139958823	26504666.520409938
0.7079777906315483	26468741.616798446
0.7080957869299869	26432810.725703046
0.7082138028944751	26396873.846125815
0.7083318385282908	26360930.97706863
0.7084498938347124	26391145.828262568
0.708567968817018	26477460.661153786
0.7086860634784875	26563789.879850585
0.7088041778224007	26650133.486750573
0.7089223118520377	26736491.484251596
0.7090404655706796	26822863.87475215
0.709158638981608	26909250.660651226
0.709276832088105	26995651.844347965
0.7093950448934531	27055302.14648829
0.7095132774009353	27102197.738732863
0.7096315296138355	27149101.146909498
0.7097498015354378	27196012.372320812
0.7098680931690269	27242931.41626965
0.7099864045178884	27289858.280059207
0.7101047355853081	27336792.964992717
0.7102230863745722	27383735.472373687
0.7103414568889679	27306722.82488993
0.7104598471317828	27201530.0326543
0.7105782571063047	27096319.708286706
0.7106966868158224	26991091.84886506
0.710815136263625	26885846.45146686
0.7109336054530023	26780583.513169028
0.7110520943872445	26675303.031048186
0.7111706030696424	26570005.00218026
0.7112891315034873	26582418.12053587
0.7114076796920712	26600450.482927784
0.7115262476386865	26618485.850713436
0.7116448353466263	26636524.224393707
0.711763442819184	26654565.604469597
0.711882070059654	26672609.991442185
0.7120007170713306	26690657.385812588
0.7121193838575091	26717778.144384157
0.7122380704214853	26839504.917539906
0.7123567767665555	26961251.978491057
0.7124755028960166	27083019.33061909
0.7125942488131658	27204806.97730572
0.7127130145213015	27326614.9219338
0.7128318000237216	27448443.16788561
0.7129506053237256	27570291.71854525
0.7130694304246129	27655400.147405755
0.7131882753296837	27611995.348099153
0.7133071400422386	27568583.314659324
0.7134260245655789	27525164.045880616
0.7135449289030065	27481737.540557098
0.7136638530578235	27438303.797482718
0.7137827970333332	27394862.815451093
0.7139017608328388	27351414.59325581
0.7140207444596443	27333895.076129775
0.7141397479170543	27362639.793433025
0.7142587712083737	27391389.301522456
0.7143778143369084	27420143.601196587
0.7144968773059646	27448902.693254005
0.7146159601188489	27477666.57849342
0.7147350627788687	27506435.257713713
0.7148541852893318	27535208.731713865
0.7149733276535467	27610318.039354082
0.7150924898748222	27732159.04843427
0.715211671956468	27854020.364349328
0.7153308739017941	27975901.990483798
0.715450095714111	28097803.93022257
0.71556933739673	28219726.186951313
0.7156885989529628	28341668.76405616
0.7158078803861218	28463631.664924044
0.7159271816995193	28419486.399208482
0.7160465028964692	28277826.7146281
0.7161658439802853	28136143.420100294
0.7162852049542819	27994436.511690095
0.7164045858217744	27852705.985461738
0.716523986586078	27710951.83747907
0.7166434072505089	27569174.063805144
0.716762847818384	27427372.660502218
0.7168823082930204	27398195.49454689
0.7170017886777359	27402153.989969786
0.7171212889758488	27406113.145141922
0.7172408091906781	27410072.96017325
0.7173603493255433	27414033.43517375
0.7174799093837642	27417994.570253417
0.7175994893686615	27421956.365522265
0.7177190892835562	27425918.821090322
0.7178387091317702	27583055.22489761
0.7179583489166254	27755593.792703215
0.7180780086414448	27928161.116936926
0.7181976883095517	28100757.202391334
0.7183173879242699	28273382.053860005
0.718437107488924	28446035.67613729
0.7185568470068389	28618718.074018355
0.7186766064813399	28787344.774299677
0.7187963859157535	28853878.627621945
0.7189161853134061	28920423.56991976
0.719036004677625	28986979.6030413
0.7191558440117378	29053546.728834983
0.7192757033190732	29120124.949149728
0.7193955826029597	29186714.265834443
0.7195154818667269	29253314.680738665
0.7196354011137046	29301643.532904513
0.7197553403472235	29265803.792273153
0.7198752995706147	29229958.0783517
0.7199952787872098	29194106.390144568
0.720115278000341	29158248.72665607
0.7202352972133411	29122385.08689032
0.7203553364295432	29086515.469851334
0.7204753956522815	29050639.874542788
0.7205954748848902	29009935.841746654
0.7207155741307044	28958593.306938633
0.7208356933930594	28907242.215041567
0.7209558326752915	28855882.56462917
0.7210759919807375	28804514.354274973
0.7211961713127342	28753137.582552448
0.7213163706746197	28701752.24803455
0.7214365900697322	28650358.349294294
0.7215568295014103	28620795.172255937
0.721677088972994	28617285.016943
0.7217973684878227	28613774.276604187
0.7219176680492374	28610262.951141976
0.7220379876605789	28606751.040458858
0.722158327325189	28603238.54445729
0.7222786870464099	28599725.463039726
0.7223990668275843	28596211.79610859
0.7225194666720555	28583196.967217162
0.7226398865831676	28563446.67288304
0.7227603265642646	28543693.086833242
0.722880786618692	28523936.20851906
0.7230012667497951	28504176.037391838
0.7231217669609201	28484412.57290276
0.7232422872554135	28464645.81450295
0.7233628276366229	28444875.761643376
0.7234833881078956	28452614.819957405
0.7236039686725803	28470800.56698895
0.7237245693340255	28488989.3449783
0.7238451900955812	28507181.15443068
0.7239658309605971	28525375.995851286
0.7240864919324239	28543573.86974548
0.7242071730144127	28561774.776618663
0.724327874209915	28579978.716976285
0.7244485955222832	28617550.672023322
0.7245693369548704	28658330.725016616
0.7246900985110294	28699117.574685346
0.7248108801941148	28739911.222162466
0.7249316820074803	28780711.668580696
0.7250525039544815	28821518.91507339
0.7251733460384739	28862332.962773845
0.7252942082628137	28903287.5828522
0.7254150906308574	29021759.624810442
0.7255359931459625	29140251.41210903
0.7256569158114868	29258762.948038865
0.7257778586307888	29377294.235891413
0.7258988216072273	29495845.27895857
0.7260198047441617	29614416.080532774
0.7261408080449525	29733006.643907443
0.72626183151296	29829466.833627798
0.7263828751515454	29778742.71929737
0.7265039389640706	29728010.1509479
0.726625022953898	29677269.12717034
0.7267461271243904	29626519.646555457
0.7268672514789111	29575761.70769384
0.7269883960208241	29524995.30917579
0.7271095607534942	29474220.449591286
0.7272307456802866	29429064.68494241
0.7273519508045666	29399102.78524432
0.7274731761297006	29369135.891896296
0.7275944216590555	29339164.00406605
0.7277156873959987	29309187.120921154
0.7278369733438982	29279205.24162902
0.727958279506122	29249218.365357082
0.7280796058860397	29219226.491272397
0.7282009524870207	29248549.989103165
0.7283223193124353	29365619.808152236
0.7284437063656539	29482709.138837576
0.7285651136500483	29599817.984411553
0.7286865411689898	29716946.34812622
0.7288079889258514	29834094.23323512
0.7289294569240056	29951261.642991275
0.7290509451668262	30068448.580649186
0.7291724536576875	30161148.01776372
0.7292939823999636	30233556.190894734
0.7294155313970303	30305976.432054747
0.7295371006522632	30378408.743254934
0.7296586901690385	30450853.126506932
0.7297802999507332	30523309.583822772
0.7299019300007252	30595778.117215022
0.7300235803223919	30668258.728695974
0.7301452509191123	30676573.812493484
0.7302669417942654	30655267.859055936
0.7303886529512311	30633958.354626138
0.7305103843933897	30612645.298612267
0.7306321361241218	30591328.69042241
0.7307539081468093	30570008.52946448
0.7308757004648336	30548684.81514644
0.7309975130815778	30527357.546875983
0.7311193460004248	30547351.73390484
0.7312411992247582	30576704.707970448
0.7313630727579622	30606062.574198395
0.7314849666034219	30635425.33340407
0.7316068807645224	30664792.986402936
0.7317288152446498	30694165.534010645
0.7318507700471907	30723542.977042973
0.7319727451755319	30752925.316315793
0.732094740633061	30787229.735868517
0.7322167564231665	30821761.245970536
0.7323387925492371	30856298.51132424
0.7324608490146619	30890841.532888826
0.732582925822831	30925390.31162368
0.7327050229771347	30959944.848488286
0.7328271404809642	30994505.144442406
0.7329492783377112	31023250.141717665
0.7330714365507675	30994772.762071777
0.7331936151235259	30966290.636195954
0.7333158140593796	30937803.763299186
0.7334380333617229	30909312.14259022
0.7335602730339499	30880815.773277797
0.7336825330794556	30852314.65457048
0.7338048135016354	30823808.785676762
0.7339271143038857	30793028.75963744
0.734049435489603	30754639.536791515
0.7341717770621846	30716243.91574177
0.7342941390250283	30677841.895421874
0.7344165213815324	30639433.47476527
0.734538924135096	30601018.652705166
0.7346613472891185	30562597.42817477
0.734783790847	30524169.800106943
0.7349062548121412	30501006.664430134
0.7350287391879431	30504831.602345422
0.7351512439778078	30508657.177750368
0.7352737691851374	30512483.39075121
0.735396314813335	30516310.24145422
0.7355188808658037	30520137.72996568
0.7356414673459482	30523965.856391896
0.7357640742571725	30527794.620839182
0.7358867016028818	30567966.080122672
0.7360093493864824	30644035.292988867
0.7361320176113801	30720117.184057105
0.736254706280982	30796211.75544052
0.7363774153986956	30872319.009252597
0.7365001449679286	30948438.94760682
0.7366228949920899	31024571.572617497
0.7367456654745885	31100716.886399012
0.7368684564188344	31131878.76696134
0.7369912678282374	31137614.980095122
0.7371140997062088	31143352.149264425
0.7372369520561599	31149090.274628595
0.7373598248815024	31154829.35634698
0.7374827181856494	31160569.394578993
0.7376056319720137	31166310.389484048
0.7377285662440091	31172052.341221586
0.7378515210050496	31135122.1575124
0.7379744962585505	31085346.78343647
0.738097492007927	31035563.11346487
0.7382205082565949	30985771.146214977
0.738343545007971	30935970.880303882
0.7384666022654723	30886162.314348422
0.7385896800325165	30836345.446965374
0.7387127783125219	30786520.276771035
0.7388358971089073	30888464.880001698
0.7389590364250921	31005650.191908043
0.7390821962644963	31122855.034699798
0.7392053766305403	31240079.41163184
0.7393285775266454	31357323.32596013
0.7394517989562333	31474586.780940916
0.7395750409227259	31591869.779830676
0.7396983034295463	31706378.050906926
0.739821586480118	31758744.680236086
0.7399448900778645	31811120.037336696
0.7400682142262109	31863504.12366365
0.740191558928582	31915896.9406716
0.7403149241884034	31968298.48981568
0.7404383100091014	32020708.77255129
0.7405617163941028	32073127.790333997
0.7406851433468352	32105081.367098298
0.7408085908707264	32043375.83115142
0.7409320589692048	31981660.010948572
0.7410555476456997	31919933.904775646
0.7411790569036406	31858197.5109184
0.7413025867464579	31796450.827662162
0.7414261371775823	31734693.853292033
0.7415497082004452	31672926.58609289
0.7416732998184786	31646116.663855407
0.741796912035115	31694314.744648088
0.7419205448537874	31742520.85845422
0.7420441982779297	31790735.006612655
0.742167872310976	31838957.190462492
0.7422915669563612	31887187.41134297
0.7424152822175206	31935425.670593582
0.7425390180978901	31983671.969554037
0.7426627746009065	32031537.807556264
0.7427865517300065	32078938.0114303
0.7429103494886282	32126346.115338363
0.7430341678802096	32173762.120597042
0.7431580069081896	32221186.028523263
0.7432818665760077	32268617.840434205
0.7434057468871037	32316057.55764709
0.7435296478449182	32363505.181479484
0.7436535694528923	32353636.268604726
0.7437775117144678	32304525.37023374
0.7439014746330868	32255406.286713097
0.7440254582121922	32206279.016678497
0.7441494624552276	32157143.558765534
0.7442734873656368	32107999.911609598
0.7443975329468645	32058848.073845763
0.7445215992023557	32009688.044108972
0.7446456861355559	31980227.46709731
0.7447697937499119	31958021.753522452
0.7448939220488703	31935812.33899534
0.7450180710358784	31913599.222899158
0.7451422407143843	31891382.40461696
0.7452664310878367	31869161.883531693
0.7453906421596846	31846937.65902627
0.7455148739333779	31824709.730483416
0.7456391264123667	31866293.181902874
0.7457633996001021	31918087.243053127
0.7458876935000356	31969889.936547
0.7460120081156189	32021701.26382302
0.7461363434503048	32073521.22632028
0.7462606995075466	32125349.825478002
0.7463850762907978	32177187.062735505
0.7465094738035127	32229095.1287688
0.7466338920491467	32297280.204395246
0.746758331031155	32365476.64420103
0.7468827907529935	32433684.450080033
0.7470072712181189	32501903.623926684
0.7471317724299886	32570134.167635657
0.7472562943920602	32638376.083101865
0.7473808371077922	32706629.372220714
0.7475054005806435	32767667.68522741
0.7476299848140736	32784204.679053746
0.7477545898115426	32800744.429045722
0.7478792155765113	32817286.9356627
0.7480038621124406	32833832.199364103
0.7481285294227926	32850380.22060945
0.7482532175110298	32866930.999858357
0.7483779263806148	32883484.53757045
0.7485026560350116	32896155.302222807
0.7486274064776842	32898312.131873395
0.748752177712097	32900469.320995588
0.7488769697417158	32902626.869649306
0.749001782570006	32904784.777894463
0.7491266162004343	32906943.045790993
0.7492514706364677	32909101.67339884
0.7493763458815739	32911260.66077796
0.7495012419392209	32918682.77041334
0.7496261588128773	32933671.965214357
0.7497510965060128	32948663.658214517
0.7498760550220971	32963657.849830173
0.7500010343646007	32978654.540477768
0.7501260345369949	32993653.730573807
0.750251055542751	33008655.42053485
0.7503760973853414	33023659.61077756
0.7505011600682389	33032482.62337342
0.750626243594917	33036143.876449443
0.7507513479688495	33039805.739734307
0.7508764731935109	33043468.213329718
0.7510016192723765	33047131.297337398
0.7511267862089218	33050794.99185907
0.7512519740066232	33054459.296996504
0.7513771826689577	33058124.21285146
0.7515024121994025	33066637.647438843
0.7516276626014359	33077412.8680386
0.751752933878536	33088189.88450844
0.7518782260341824	33098968.697147693
0.7520035390718548	33109749.306255724
0.7521288729950334	33120531.712131936
0.7522542278071992	33131315.915075794
0.7523796035118337	33142101.91538681
0.7525050001124189	33151564.532369245
0.7526304176124378	33160740.52922494
0.7527558560153731	33169918.055413432
0.752881315324709	33179097.111189634
0.7530067955439299	33188277.696808465
0.7531322966765205	33197459.81252489
0.7532578187259665	33206643.45859393
0.7533833616957542	33215828.635270655
0.75350892558937	33206695.18227834
0.7536345104103016	33196698.740736052
0.7537601161620366	33186700.633120183
0.7538857428480638	33176700.859153032
0.7540113904718717	33166699.418556903
0.7541370590369503	33156696.311054006
0.7542627485467898	33146691.536366522
0.7543884590048808	33140015.48281778
0.7545141904147151	33166549.329098802
0.7546399427797842	33193087.597687494
0.7547657161035808	33219630.289320953
0.754891510389598	33246177.40473635
0.7550173256413296	33272728.944670998
0.7551431618622698	33299284.90986229
0.7552690190559135	33325845.30104778
0.7553948972257561	33341130.384130377
0.7555207963752938	33318556.191504
0.755646716508023	33295978.236512206
0.755772657627441	33273396.5185279
0.7558986197370455	33250811.03692393
0.756024602840335	33228221.791073028
0.7561506069408084	33205628.78034782
0.7562766320419653	33183032.004120804
0.7564026781473054	33161459.03246609
0.75652874526033	33141690.715603333
0.7566548333845401	33121919.104021087
0.7567809425234375	33102144.197170254
0.7569070726805247	33082365.99450162
0.7570332238593047	33062584.49546588
0.7571593960632813	33042799.69951361
0.7572855892959586	33023011.60609535
0.7574118035608413	33024705.68255153
0.7575380388614347	33047419.975777306
0.7576642952012449	33070138.05471863
0.7577905725837782	33092859.92000641
0.7579168710125422	33115585.57227178
0.7580431904910444	33138315.01214587
0.7581695310227928	33161048.24025991
0.7582958926112967	33183785.25724533
0.7584222752600652	33176648.187952187
0.7585486789726085	33152346.229775738
0.7586751037524372	33128040.221272916
0.7588015496030628	33103730.161768626
0.7589280165279966	33079416.050587803
0.7590545045307512	33055097.887055118
0.7591810136148396	33030775.670495175
0.7593075437837755	33006449.400232438
0.7594340950410726	32967016.06853707
0.7595606673902461	32923194.229929123
0.7596872608348112	32879365.087681364
0.7598138753782836	32835528.640576616
0.75994051102418	32791684.887397304
0.7600671677760173	32747833.826925833
0.7601938456373134	32703975.457944248
0.7603205446115863	32660109.779234525
0.7604472647023548	32575179.132245194
0.7605740059131385	32486153.203913607
0.7607007682474575	32397112.437927213
0.7608275517088319	32308056.831813354
0.7609543563007835	32218986.38309828
0.7610811820268336	32129901.089308467
0.7612080288905045	32040800.947969865
0.7613348968953197	31949526.52881386
0.7614617860448022	31813930.20704501
0.7615886963424764	31678311.285889015
0.7617156277918667	31542669.761579625
0.7618425803964988	31407005.6303494
0.7619695541598982	31271318.888430677
0.7620965490855914	31135609.53205507
0.7622235651771058	30999877.55745324
0.7623506024379685	30841601.587989412
0.7624776608717082	30584585.60351576
0.7626047404818536	30327526.78304468
0.7627318412719337	30070425.1194373
0.762858963245479	29813280.60555249
0.7629861064060198	29556093.234248675
0.7631132707570876	29298862.99838271
0.7632404563022137	29041589.890810996
0.7633676630449308	28687286.55250094
0.7634948909887717	28126470.293153826
0.7636221401372697	27565560.56443089
0.7637494104939593	27004557.350752633
0.7638767020623748	26443460.63653957
0.7640040148460518	25882270.40620684
0.7641313488485262	25320986.64416907
0.7642587040733344	24759609.334836993
0.7643860805240132	23875214.603024073
0.7645134782041005	22605327.504481062
0.7646408971171346	21335228.75808777
0.764768337266654	20064918.328570537
0.7648957986561985	18794396.18064798
