#wavelength	surface flux
0.676892	81983.77271655556
0.678297	84586.24337206405
0.679702	87153.37520577802
0.681109	89708.7303771055
0.682517	92274.38807120292
0.683926	94844.82425322036
0.685337	97386.74630412577
0.686749	99951.85471154538
0.688164	102496.69120451053
0.689581	104849.35303544169
0.691	106128.42568567234
0.692422	105845.63396755078
0.693847	109688.58293697148
0.695274	114418.11426734248
0.696705	117682.84879195428
0.698139	119959.18777178867
0.699576	122425.67815622468
0.701017	124592.23985965252
0.702461	126059.3699046532
0.70391	129702.41875541826
0.705362	133204.28028227127
0.706819	135270.70950938598
0.70828	137434.72677704509
0.709745	139439.05081245606
0.711216	142477.65760805208
0.71269	144626.71778696074
0.71417	146195.61466953778
0.715655	145444.2695196981
0.717145	142610.0622622958
0.71864	147100.90086466205
0.72014	149337.2592169633
0.721647	150159.42885756548
0.723158	149873.3793865141
0.724676	148372.3841838964
0.726199	147660.346477339
0.727728	148946.0023961595
0.729264	145988.4925169061
0.730805	146208.67809147286
0.732353	148656.39963661518
0.733907	146923.87516550368
0.735468	145611.31051461442
0.737035	142937.448162375
0.738609	140778.49072909734
0.74019	137194.70119141164
0.741777	130542.65806261152
0.743372	124399.2865230647
0.744973	117989.81650176048
0.746582	109444.21983510583
0.748197	99896.90755275538
0.74982	89278.0792442923
0.751451	77536.08066621445
0.753088	65075.89716347346
0.754734	52376.03385105721
0.756386	39902.49394709342
0.758047	28318.56379427102
0.759715	18422.4380398831
0.76139	10457.244396106522
0.763074	4920.144924200833
0.764765	1708.8386132093995
0.766464	460.7934308267823
0.768172	585.6879707555171
0.769887	558.8682662476875
0.77161	2976.908582922779
0.773341	8807.014093289057
0.775081	18388.08687350071
0.776829	31158.62126282505
0.778585	41009.777831145555
0.780349	50812.95938832868
0.782121	83246.7871484229
0.783902	111926.80594999538
0.785691	137363.67647505546
0.787489	162674.93606611041
0.789295	186758.73873467202
0.79111	206644.7138070039
0.792933	169248.89732983473
0.794764	88139.35724461055
0.796604	234590.9899101605
0.798453	302321.275959478
0.80031	329095.001504493
0.802176	351549.05495589157
0.804051	372819.0711413728
0.805934	393661.42750436295
0.807826	411315.93809039926
0.809727	417561.99417131994
0.811636	423283.63436648826
0.813554	436670.34271726984
0.81548	478620.9372021774
0.817416	501312.6872003499
0.81936	521588.27468468307
0.821313	537290.3698964944
0.823274	540835.1103790331
0.825244	576587.1452877542
0.827223	593979.2393122922
0.829211	599499.7373425328
0.831208	610169.4582569102
0.833213	637757.8781969722
0.835227	651736.7188433274
0.837249	654266.6147520974
0.83928	676025.6890321214
0.841321	719241.1807584038
0.843369	753317.7747722239
0.845427	773477.0489052358
0.847493	797938.710190053
0.849567	808419.4995890005
0.851651	793112.1046320547
0.853742	837474.1888528286
0.855843	886290.9198059698
0.857952	910687.7707865993
0.86007	930771.116664337
0.862196	938513.4055964312
0.864331	960833.5513794542
0.866474	986942.2669014811
0.868626	1010767.5141861713
0.870786	1039060.630065463
0.872955	1063309.0606423966
0.875132	1077222.824824311
0.877317	1097974.8951062434
0.879511	1101748.4646858163
0.881713	1108147.6050280465
0.883923	1116868.6154975381
0.886142	1126337.1273076592
0.888369	1127635.1660859748
0.890604	1130263.473394829
0.892847	1052730.0016569106
0.895099	1051572.637033721
0.897358	1134632.5706399926
0.899626	1243304.6607538427
0.901901	1296768.0294710766
0.904185	1357760.5438838617
0.906476	1366078.3578511511
0.908776	1391671.2740391789
0.911083	1451834.3133032306
0.913398	1429221.401709368
0.915721	1418182.6231463638
0.918051	1373861.9942609023
0.92039	1518051.0408552974
0.922736	1526486.5139939352
0.925089	1346274.7633920216
0.927451	990378.8999423512
0.929819	671292.2304762825
0.932195	887067.2895499173
0.934579	810087.6524106109
0.93697	935260.7340259436
0.939369	1196454.84951704
0.941774	1216003.3286053985
0.944187	911082.087575734
0.946607	804780.9202369177
0.949035	1082293.0586024527
0.951469	1033254.102909008
0.953911	1100159.7122656263
0.956359	1467564.4390602335
0.958814	1076257.041305596
0.961277	912581.3323713944
0.963746	968387.8701935853
0.966222	1020467.1760677672
0.968705	1016515.527436628
0.971194	1517307.4898566443
0.97369	1739386.4638390345
0.976193	1619447.1600291072
0.978702	1803736.1278704088
0.981217	1841467.1314031996
0.983739	1934643.114622771
0.986268	1977073.2000990494
0.988802	2133239.454680363
0.991343	2287048.237122961
0.99389	2317482.017235331
0.996444	2431667.5420444747
0.999003	2498621.847037629
1.00157	2523694.597134181
1.00414	2582393.20584409
1.00672	2677120.0895877765
1.0093	2749559.9462977066
1.01189	2824315.612124065
1.01448	2929672.7915788023
1.01708	2985286.251928125
1.01969	3035081.425938667
1.0223	3067008.909910293
1.02492	3030932.269745708
1.02754	3093634.721050853
1.03017	3048286.198199234
1.0328	3265392.77558542
1.03544	3342456.056526518
1.03808	3396891.9349132595
1.04073	3452732.840680409
1.04339	3502391.1180268247
1.04604	3547278.1047671055
1.04871	3560518.454512301
1.05138	3597343.036454899
1.05405	3676867.283891246
1.05673	3744646.452509799
1.05941	3797866.414106031
1.0621	3841437.18126019
1.06479	3887195.5862379745
1.06749	3930456.5375905163
1.07019	3924410.8762473543
1.07289	3990243.289759352
1.0756	4068926.045128851
1.07832	4096497.0058046007
1.08104	4157262.161774299
1.08376	4221378.244490167
1.08649	4225365.519539716
1.08922	4127353.326758728
1.09195	4018568.426407855
1.09469	3930907.752340516
1.09743	3955425.2280375054
1.10018	2821628.9633354824
1.10293	1900023.4520389172
1.10568	1443162.4017274962
1.10844	2528375.715116292
1.1112	2081206.274747938
1.11396	1469193.3208588471
1.11673	1486937.8001382526
1.1195	1401270.450314414
1.12228	920352.9360575139
1.12505	1551027.5780887657
1.12783	1536463.9807305608
1.13062	1664055.4066855842
1.13341	775755.0688935635
1.1362	1614666.3304806817
1.13899	2395239.7094056807
1.14178	1979394.8829851556
1.14458	2492100.1441160943
1.14738	2977942.1464261482
1.15019	1650267.081499754
1.153	492174.04004530644
1.1558	690945.0258491766
1.15862	788043.1502683412
1.16143	887611.032807385
1.16425	1549271.9245658503
1.16707	2335787.9338780264
1.16989	1859311.5066414042
1.17271	2236438.5522396904
1.17554	3149205.4202908636
1.17837	3842270.485852937
1.1812	4111575.163570724
1.18403	4819127.760167895
1.18686	4768240.898397077
1.1897	4772488.000607858
1.19253	5462466.977115313
1.19537	5793108.474455468
1.19822	5969109.609169966
1.20106	6191539.827973333
1.2039	6092891.938175928
1.20675	6318316.459128003
1.2096	6403887.457002055
1.21245	6386642.6278445115
1.2153	6687943.5553390505
1.21815	6850440.5829236675
1.221	6964650.789031502
1.22385	7126831.239335764
1.22671	7297891.345682147
1.22957	7386294.210698642
1.23242	7385315.320702591
1.23528	7505644.915115317
1.23814	7654684.3291115295
1.241	7742886.518592222
1.24387	7830027.053825235
1.24673	7900413.660713219
1.24959	7941243.831721566
1.25245	7944182.258507565
1.25532	8131732.299831244
1.25818	8244844.3851637915
1.26105	8204891.9375383165
1.26392	8221540.380199138
1.26678	8294921.281162353
1.26965	8293841.578465729
1.27252	8235215.291128139
1.27538	8442444.726460751
1.27825	8435494.874947218
1.28112	8227836.707871364
1.28399	8424623.818480726
1.28686	8262205.455075169
1.28973	7844176.605436191
1.2926	7619307.5145368725
1.29546	7937055.231714503
1.29833	8146756.467189926
1.3012	7520168.224323987
1.30407	7445873.47265962
1.30694	7285202.298359276
1.30981	7578918.067963488
1.31267	7085164.432664712
1.31554	7812447.376427776
1.31841	8578984.699618753
1.32128	7511045.897354145
1.32414	6100200.444025504
1.32701	5804560.318557815
1.32987	4344098.283652653
1.33274	2053221.5848620234
1.3356	1196014.5273189568
1.33847	342997.7480301274
1.34133	88377.71788737038
1.34419	232643.07181473204
1.34705	321486.6759120984
1.34991	128113.60253121574
1.35277	44820.27310966352
1.35563	85910.57535632589
1.35849	87102.26779058509
1.36135	26857.88152109842
1.3642	74376.81182234999
1.36706	79520.79770924425
1.36991	57616.32361136211
1.37277	241057.61937285992
1.37562	582976.3497783387
1.37847	701608.7396856638
1.38132	231694.75826639758
1.38417	17356.495116277238
1.38701	40967.82157644172
1.38986	31783.68747246432
1.39271	41311.63748984909
1.39555	70806.91681162093
1.39839	65234.87023815001
1.40123	152264.91240309254
1.40407	287061.6317214756
1.40691	407186.77110329096
1.40974	182046.64485376506
1.41258	43291.764870484374
1.41541	137674.8856173541
1.41824	174109.375635625
1.42107	79072.8034385965
1.4239	52418.2665898547
1.42673	136871.16445244223
1.42955	248022.0882336071
1.43237	187628.73892225625
1.43519	411669.33195605
1.43801	251728.57862852982
1.44083	308387.4284581953
1.44365	534949.1943633187
1.44646	646895.9977793933
1.44927	1464106.8389860904
1.45208	1972229.4897685084
1.45489	1442311.080584103
1.45769	1876158.7749665575
1.4605	2212035.885559519
1.4633	2380623.8458984694
1.4661	2536313.503856305
1.4689	1586749.6856227615
1.47169	1689212.6720060853
1.47449	1511207.1917690772
1.47728	1389032.8218424069
1.48007	1487690.0368152356
1.48286	2570120.217187713
1.48564	3460443.494333932
1.48842	3515457.4489867473
1.4912	3588261.09053924
1.49398	3307272.37482046
1.49676	2679478.199100513
1.49953	3420224.7117226436
1.5023	4534823.196161233
1.50507	4615395.406956822
1.50784	4214521.975241852
1.51061	4487930.546715794
1.51337	5056666.345174642
1.51613	5871125.025148564
1.51888	6662505.022475323
1.52164	7913545.474099504
1.52439	8820456.205447268
1.52714	8360114.016101758
1.52989	8145561.704683144
1.53263	8745488.243549995
1.53538	9360331.966420764
1.53812	9720596.788927194
1.54086	9944783.33278896
1.54359	10113719.369887969
1.54632	10817345.038369263
1.54905	10751935.77121651
1.55178	11336397.982725674
1.5545	11425568.959052736
1.55723	11030043.079136888
1.55995	11332937.32872066
1.56266	11890815.699976157
1.56538	12729338.049713813
1.56809	13132449.939758126
1.5708	13011658.631262472
1.57351	12430574.937633606
1.57621	11986786.263744023
1.57891	10918735.518587511
1.58161	11778891.479898669
1.5843	13555128.884684863
1.587	13934900.999186525
1.58969	13771880.774586214
1.59238	13442552.216800896
1.59506	12902566.391542621
1.59774	12362250.319141677
1.60042	12050214.754535971
1.6031	11920910.24015711
1.60577	11975691.741917904
1.60844	11971655.966430182
1.61111	11679425.040357638
1.61378	11018772.68034378
1.61644	10441451.855386399
1.6191	9763470.37651339
1.62176	8839186.308497882
1.62441	7981974.936525206
1.62707	7332892.328358198
1.62971	6176523.385896884
1.63236	5632069.040540636
1.635	7880876.5477668
1.63764	11140344.645174207
1.64028	12197467.503689682
1.64292	11844177.943699602
1.64555	10166888.665708585
1.64818	7454357.297601378
1.65081	7271992.043333905
1.65343	9334752.731615517
1.65605	10048772.010458112
1.65867	10332236.95647076
1.66128	9871010.666766958
1.6639	7891653.36175456
1.66651	4298631.984461835
1.66911	3224997.4407575256
1.67172	6077945.217321691
1.67432	8430686.05383003
1.67692	8104670.200457598
1.67951	6780364.441002293
1.68211	6881790.415673319
1.6847	7039135.499415532
1.68728	6109674.147616721
1.68987	5726731.985587676
1.69245	5153254.862180879
1.69503	3617057.580859689
1.6976	2772948.6291016317
1.70018	3498602.233342277
1.70275	3503170.2027601087
1.70531	3934901.0311636887
1.70788	4982611.259336039
1.71044	4962438.874201745
1.713	5694212.109433966
1.71556	6300917.38222598
1.71811	6787375.890671768
1.72066	7680726.13433565
1.72321	7444618.672127052
1.72575	6947705.350429336
1.7283	6665536.871446053
1.73084	6198454.156564363
1.73337	5608031.386032987
1.73591	5249665.073687561
1.73844	5294681.707406726
1.74097	5515433.081441158
1.74349	5172692.932102626
1.74602	4603588.900507946
1.74854	4348413.674426433
1.75105	3872178.2292791978
1.75357	3166193.561923326
1.75608	3883615.891967797
1.75859	5393004.882853939
1.7611	5798259.5704750875
1.7636	5420140.943161456
1.7661	4087171.5127462065
1.7686	3114368.2120453543
1.7711	2232510.5290141264
1.77359	1433366.2359635506
1.77608	815794.8873804517
1.77857	558340.8102892772
1.78105	689858.3725288002
1.78354	838609.0013504474
1.78602	644479.8450980956
1.78849	454227.43096073903
1.79097	616099.3824795204
1.79344	943589.5780091453
1.79591	1516487.8857090198
1.79837	2178439.5353473434
1.80084	1313896.2565051047
1.8033	412882.5730134757
1.80576	160109.7163388303
1.80821	107650.59172401151
1.81067	354628.5086427827
1.81312	556080.979396127
1.81557	288458.17702524806
1.81801	148590.18234017974
1.82046	399176.45641947794
1.8229	604447.9523882462
1.82533	384354.2734470036
1.82777	112336.70280988568
1.8302	58451.86686921022
1.83263	125651.70836563112
1.83506	246634.13523355202
1.83749	443339.8924146085
1.83991	531206.7842775098
1.84233	399853.8165557141
1.84475	365319.9316421436
1.84716	478951.6516334153
1.84957	725111.6726611435
1.85198	764850.8602632866
1.85439	382321.8897472115
1.8568	236818.1505129695
1.8592	308800.5971205576
1.8616	228071.86336251127
1.864	98519.59746243127
1.86639	62824.64597640227
1.86878	102143.04710154468
1.87118	217724.28186765584
1.87356	377683.14580892806
1.87595	538948.1959548072
1.87833	1096808.9357647228
1.88071	1953681.101015079
1.88309	1907119.9385736568
1.88547	1359253.0909063907
1.88784	1139822.4081582252
1.89021	1014629.7582482921
1.89258	1834688.6841001716
1.89494	2556284.806097288
1.89731	1590569.5680187272
1.89967	497822.30422208516
1.90203	95832.5259329188
1.90439	65233.56493932569
1.90674	119476.64895948803
1.90909	131417.327514162
1.91144	81974.07279625215
1.91379	35767.50539647573
1.91613	35839.03514188182
1.91848	75515.73174173494
1.92082	123846.0276749508
1.92315	123393.07945994935
1.92549	86139.65104978281
1.92782	99536.8139716454
1.93015	158704.77666434104
1.93248	215615.58244836822
1.93481	232178.50681636957
1.93713	206505.52459364856
1.93945	218996.70680289099
1.94177	299730.61833806674
1.94409	374633.6582124
1.94641	440491.19875412615
1.94872	618705.3575661952
1.95103	791842.9000973754
1.95334	508454.73066537763
1.95564	321158.93555216875
1.95795	374990.9679304877
1.96025	393490.08406816743
1.96255	414726.41807661945
1.96484	538562.737084562
1.96714	854158.6544752059
1.96943	1292493.3212205148
1.97172	1557981.2851371304
1.97401	1380757.7896673365
1.97629	1396740.7950514005
1.97858	1783189.1902017607
1.98086	2119565.3448300264
1.98314	2516227.3472535536
1.98541	2743758.8147566915
1.98769	2494871.8472963213
1.98996	1912093.6080783596
1.99223	1887229.6692465218
1.9945	2421291.3229255415
1.99677	2293747.0061352123
1.99903	2206924.2895117695
2.00129	2736617.4598501706
2.00355	3569432.6250821473
2.00581	4150089.420191537
2.00806	4499067.886693006
2.01031	5562659.023578491
2.01256	5942986.349287661
2.01481	5177842.295546961
2.01706	4320092.488693888
2.0193	4172747.7515398143
2.02154	4777139.765610992
2.02378	5336693.84829272
2.02602	5602870.155539465
2.02825	6378838.432579301
2.03049	7130132.494486803
2.03272	7558602.055858407
2.03494	7712867.697475076
2.03717	7966324.162674999
2.03939	8829785.170086073
2.04162	9948529.138968652
2.04384	10858771.419743102
2.04605	11743400.101241525
2.04827	12475892.134256043
2.05048	12365654.958529431
2.05269	11095593.19106676
2.0549	10615346.591789264
2.05711	11056454.163220495
2.05931	11915313.295440543
2.06151	12627527.919845287
2.06371	13125199.090553964
2.06591	13447084.486894613
2.06811	13654196.297458181
2.0703	13726531.319781993
2.07249	13626256.681742603
2.07468	13291177.434338279
2.07686	13193735.783514787
2.07905	13345437.11699965
2.08123	13498205.119637094
2.08341	13537168.354554178
2.08559	13498145.32346289
2.08776	13553600.96054869
2.08994	13483748.782440757
2.09211	13270502.398296265
2.09428	13005711.238075234
2.09645	12970634.326212587
2.09861	12885264.591060713
2.10077	12725542.08454809
2.10293	12497716.975573128
2.10509	12215110.70447346
2.10725	11904663.354852602
2.1094	11983064.428887127
2.11155	12063217.05258786
2.1137	11946494.708541835
2.11585	11442519.263924532
2.11799	11060990.628702348
2.12013	10847529.523463016
2.12227	10792798.670706484
2.12441	10869958.19536721
2.12655	10945639.27138297
2.12868	10907595.918510912
2.13081	10880601.428908754
2.13294	10850887.314978348
2.13507	10529790.25282315
2.13719	9978183.288370425
2.13931	9524612.666560909
2.14143	9139884.883884331
2.14355	8499515.975127198
2.14567	8142622.976070335
2.14778	7883077.973894999
2.14989	7605396.35340858
2.152	7093020.753902344
2.1541	7251750.860795976
2.15621	7490050.927846233
2.15831	7544460.396190408
2.16041	6881279.346731967
2.16251	6525349.039720126
2.1646	6311225.412256187
2.1667	6223090.494103814
2.16879	6390569.526809497
2.17087	6602498.797787804
2.17296	6766488.264544232
2.17504	6830825.125948233
2.17713	6680537.157466537
2.1792	6373320.540916218
2.18128	5974892.0716744885
2.18336	5545227.036616882
2.18543	5138759.370676941
2.1875	4733881.481859436
2.18957	4289592.478599634
2.19163	3640921.7236994067
2.1937	2790194.0387184727
2.19576	1970370.6532061812
2.19782	1295550.1857770905
2.19987	1000569.0811041897
2.20193	867649.5907040968
2.20398	867268.4052923721
2.20603	952241.9650038424
2.20808	1082849.7784373285
2.21012	1222581.023553754
2.21217	1354334.2265638674
2.21421	1390084.8116019056
2.21625	1340926.442201802
2.21828	1219962.166647461
2.22032	1144782.2680758622
2.22235	1103315.7501865758
2.22438	1057400.6079308568
2.22641	930597.4216310163
2.22843	779834.8219794556
2.23046	645724.1466314158
2.23248	560633.8041468058
2.2345	530815.705926381
2.23651	508412.59673905093
2.23853	486601.75510465226
2.24054	418019.390825936
2.24255	335503.69855368923
2.24456	246436.2810429477
2.24657	244590.8602184233
2.24857	299103.77307359996
2.25057	385902.2754177475
2.25257	428189.5272294454
2.25457	462829.73409802694
2.25656	493345.16919235827
2.25856	525208.1965002865
2.26055	494709.5439579939
2.26254	434160.92142842984
2.26453	368543.00956831226
2.26651	331603.8439860657
2.2685	319184.3205744046
2.27048	355186.84353478806
2.27246	408169.3349407058
2.27443	458151.6059723141
2.27641	468061.82940456126
2.27838	445076.04817766853
2.28036	409425.0231995219
2.28233	386060.8555553319
2.28429	367797.75975456246
2.28626	350285.40731900657
2.28823	321709.9828159022
2.29019	307195.7258971597
2.29215	303560.1895093242
2.29411	323157.94208398927
2.29607	336342.42125208466
2.29802	344116.7915495725
2.29998	344978.9779552721
2.30193	388896.6712506972
2.30388	482025.685460337
2.30583	708094.6137288519
2.30778	939773.0604226077
2.30972	1159601.349283561
2.31167	1158727.30746317
2.31361	1033058.8248835996
2.31555	691025.1434213839
2.31749	438890.2618823924
2.31943	253014.53919962776
2.32137	251347.73428070525
2.32331	259162.4153712512
2.32524	274447.96889532206
2.32718	268300.32591229404
2.32911	263468.0638997717
2.33104	260973.2945744559
2.33297	254289.55046444907
2.3349	245871.09796556854
2.33683	234846.53684791713
2.33876	224016.05798403686
2.34068	212736.01883660944
2.34261	192259.64751823456
2.34453	173914.47003257053
2.34646	157780.81025190634
2.34838	169452.31979547624
2.3503	195626.5759526241
2.35223	250468.7001409742
2.35415	303086.5082598037
2.35607	353753.941340254
2.35799	389378.54874000966
2.35991	424767.3710663904
2.36183	459871.62520075904
2.36375	439193.5767861489
2.36566	391644.0352718097
2.36758	286055.37217170023
2.3695	203640.7514853596
2.37142	136081.28619247518
2.37334	147637.52661569466
2.37526	166397.4206271423
2.37718	196473.04002807575
2.3791	229312.43959571267
2.38101	264477.96939963335
2.38293	311434.0957325232
2.38485	352391.03852112626
2.38677	387222.49916450144
2.3887	373073.361267553
2.39062	353007.6665757011
2.39254	336915.59412169695
2.39446	342163.4489688661
2.39639	361189.32405737933
2.39831	385667.68140576227
2.40024	398300.6015655831
2.40216	388246.36387193814
2.40409	402903.0742897196
2.40602	433815.24588302395
2.40795	537508.4213425867
2.40989	628927.1570998742
2.41182	704198.9528123653
2.41376	737396.7710534978
2.4157	772059.137561815
2.41764	855613.2304627404
2.41958	914505.0165125278
2.42152	953344.2726927071
2.42347	857637.4547204635
2.42542	788390.8689616172
2.42737	814718.1815113516
