#wavelength	surface flux
0.428837	6220.264250173117
0.43312537	11910.990101045043
0.43745662370000005	13618.813707603658
0.4418311899370001	15621.343516434537
0.44624950183637	17833.640607985468
0.4507119968547338	20158.921299302903
0.45521911682328114	22724.555921387426
0.4597713079915139	26077.72625073651
0.4643690210714291	29485.354386328916
0.4690127112821433	33144.61071726754
0.47370283839496474	37095.03665448009
0.47843986677891437	40686.55124400739
0.48322426544670355	45325.50818308588
0.48805650810117057	51117.26218447243
0.4929370731821824	56323.66797360442
0.49786644391400414	60938.226555413064
0.5028451083531442	65673.04257790571
0.5078735594366757	68243.5065884148
0.5129522950310424	67250.42528986803
0.5180818179813528	66861.45013883713
0.5232626361611664	80643.07957154808
0.5284952625227781	82581.60711058405
0.5337802151480058	80506.56169456399
0.5391180172994858	75781.21093232688
0.5445091974724807	67600.3148736489
0.5499542894472055	56228.90441412577
0.5554538323416777	42567.426966845764
0.5610083706650945	28265.53579880861
0.5666184543717453	15566.777523498276
0.5722846389154628	6513.656931566171
0.5780074853046174	1724.0407131510226
0.5837875601576636	210.6569588886846
0.5896254357592402	11.898356737208044
0.5955216901168326	412.08292713796027
0.6014769070180009	3335.1543647646095
0.607491676088181	13113.223195894303
0.6135665928490629	34126.39552019553
0.6197022587775535	69382.88120060539
0.625899281365329	119786.48942793635
0.6321582741789823	184450.21247495332
0.6384798569207721	261881.22870622342
0.6448646554899798	349166.402954184
0.6513133020448797	445656.2987035592
0.6578264350653285	546798.4288320002
0.6644046994159818	645957.8155616302
0.6710487464101416	460699.86735097144
0.677759233874243	873417.1301145698
0.6845368262129854	1000057.7054007507
0.6913821944751153	1100177.7055129227
0.6982960164198664	1221678.6152550636
0.7052789765840651	1315244.252867086
0.7123317663499058	1384166.4954678928
0.7194550840134049	1397122.554844187
0.7266496348535388	1358767.9655570022
0.7339161312020743	1246418.3203238354
0.741255292514095	1014845.9407521861
0.748667845439236	652569.2174974259
0.7561545238936284	248689.8911914849
0.7637160691325647	18867.240020947993
0.7713532298238903	14217.766773547108
0.7790667621221293	242972.09695893835
0.7868574297433505	945440.0863026984
0.7947260040407841	916876.7412465034
0.8026732640811919	2513704.983317315
0.8106999967220039	3177916.5334406625
0.8188069966892239	3780929.5252284976
0.8269950666561161	4519666.155893027
0.8352650173226772	5076995.782798763
0.8436176674959041	5732812.828386718
0.852053844170863	5814019.820610515
0.8605743826125718	6749572.768572355
0.8691801264386976	7224084.560022981
0.8778719277030844	7827983.804853169
0.8866506469801153	8350620.648755744
0.8955171534499164	8270922.8129879525
0.9044723249844157	9685303.963570494
0.9135170482342599	10240796.65431852
0.9226522187166025	10642485.383280702
0.9318787409037684	8298931.681243143
0.941197528312806	10187392.430630328
0.9506095035959342	9982407.57219212
0.9601155986318936	9929189.637382794
0.9697167546182125	10740368.82746752
0.9794139221643946	13110123.54796874
0.9892080613860387	14409618.705712851
0.9991001419998989	15343268.806464572
1.0090911434198981	16402451.90223588
1.019182054854097	17655921.106183883
1.0293738754026378	18251284.291983128
1.0396676141566643	19442287.246232133
1.050064290298231	20178574.97227794
1.0605649332012133	21089534.697657
1.0711705825332256	21750505.669184085
1.0818822883585577	22602644.415576145
1.0927011112421434	22093951.33484512
1.1036281223545648	15013893.370529983
1.1146644035781104	13871988.312011518
1.1258110476138916	15353800.60107393
1.1370691580900303	15065786.208167663
1.1484398496709307	18171607.06551259
1.1599242481676402	12052362.381451827
1.1715234906493166	16890495.472630635
1.1832387255558097	24883739.658524826
1.1950711128113678	28361397.409081493
1.2070218239394814	29926288.243585475
1.2190920421788762	31799965.4198676
1.2312829626006652	33307972.34493568
1.2435957922266716	34344542.52130925
1.2560317501489384	35280579.1564571
1.2685920676504279	36063360.694916785
1.281277988326932	36385356.75696807
1.2940907682102014	35706086.70535205
1.3070316758923035	35019535.5413392
1.3201019926512265	35775471.82562907
1.3333030125777388	15568889.313497137
1.3466360427035162	4300161.027447218
1.3601024031305513	1860776.8348788298
1.373703427161857	6607403.21502232
1.3874404614334754	1459746.5877498945
1.4013148660478103	3231366.0254647317
1.4153280147082883	2685840.567157107
1.4294812948553712	3941565.2329401723
1.443776107803925	6190801.125885762
1.4582138688819641	13675886.818879912
1.4727960075707838	13611248.84480395
1.4875239676464918	20282095.185613323
1.5023992073229566	24496454.012369193
1.5174231993961862	29288855.019299116
1.532597431390148	35494008.34465346
1.5479234057040496	40781407.26831812
1.5634026397610903	44149208.37225897
1.579036666158701	44830799.78063137
1.594827032820288	46799979.928953044
1.610775303148491	45431810.52759258
1.6268830561799759	39594221.617421776
1.6431518867417756	45555245.6707108
1.6595834056091934	42747322.05995793
1.6761792396652853	39801971.11301394
1.6929410320619382	32851426.6145274
1.7098704423825577	32712284.051026072
1.7269691468063835	34727372.22282971
1.744238838274447	25990410.649744075
1.7616812266571917	26627240.3083195
1.7792980389237634	6888154.578750083
1.7970910193130012	9106692.19596872
1.815061929506131	3748484.8112749923
1.8332125488011928	3073543.528329938
1.8515446742892046	4718304.145389837
1.8700601210320964	3325470.6348593673
1.8887607222424174	9569807.538410597
1.9076483294648416	2764913.574349686
1.92672481275949	2410014.7799369697
1.9459920608870853	4370506.964322223
1.9654519814959561	5156100.084691225
1.9851065013109155	12018406.589041213
2.0049575663240247	15305367.719802396
2.025007141987265	21393966.967106156
2.0452572134071376	31458034.13629607
2.065709785541209	35398841.0543236
2.086366883396621	36050717.447065085
2.107230552230587	34367331.88734431
2.1283028577528933	33611399.59547558
2.1495858863304225	29359063.920452595
2.1710817451937263	26690329.06177655
2.1927925626456637	17512644.94912459
2.2147204882721203	11133438.910303196
2.2368676931548412	7129284.366334963
2.25923637008639	6855434.205761449
2.281828733787254	5610472.992234566
2.3046470211251266	7326681.642407942
2.327693491336378	3646258.056334989
2.3509704262497415	3851178.974570383
2.374480130512239	3064877.9769929713
2.3982249318173614	4727057.726680448
2.4222071811355352	7078163.906841159
2.4464292529468903	6180813.628525098
2.4708935454763594	4209879.074227713
2.4956024809311232	2319140.248055162
2.5205585057404343	1156846.6914705045
2.5457640907978387	1843532.5830747278
2.5712217317058172	750785.8647981294
2.5969339490228753	685533.3570867308
2.622903288513104	1625546.1697137593
2.6491323213982354	2267833.636406103
2.6756236446122177	347387.3776313115
2.7023798810583397	1210918.573235969
2.729403679868923	2780410.4965568664
2.7566977166676123	1492365.3267779336
2.7842646938342885	1182772.5588748578
2.812107340772631	1324028.062308296
2.8402284141803578	2457318.883617258
2.8686306983221614	1609381.8037626564
2.897317005305383	2104595.522879813
2.926290175358437	4420145.761023226
2.9555530771120213	4784220.264082622
2.9851086078831415	4828714.689844277
3.014959693961973	6117104.601286464
3.0451092909015927	5498292.448862244
3.0755603838106085	5109270.567746066
3.1063159876487147	3465816.9546116185
3.137379147525202	2425634.5186203024
3.168752939000454	1788545.6059503418
3.200440468390459	1497285.3067520228
3.232444873074363	1074895.2333937625
3.264769321805107	2808119.110513552
3.297417015023158	2992760.432473358
3.330391185173389	599045.9808650571
3.3636950970251234	2157713.2936642226
3.397332047995375	1856729.016274117
3.4313053684753285	1459738.0444545255
3.465618422160081	1571872.053861672
3.5002746063816828	2108842.7176081883
3.5352773524454997	2811728.0807369654
3.570630125969955	3597677.3792993673
3.606336427229654	4820820.6985678
3.6423997915019504	6316280.983745208
3.67882378941697	8279845.993910691
3.7156120273111397	9597165.509110214
3.7527681475842516	11442819.553284813
3.7902958290600934	11730666.623601358
3.8281987873506953	14153768.961013412
3.8664807752242023	14571430.91271349
3.905145582976444	15084466.400346354
3.9441970388062084	16040788.376931518
3.983639009194271	16362615.161747599
4.023475399286213	16688503.457097167
4.063710153279075	16773061.308778878
4.1043472548118665	15894041.059637649
4.145390727359985	14721004.148882195
4.186844634633585	13896454.718757033
4.2287130809799205	12891455.69831203
4.27100021178972	11823101.713345021
4.313710213907617	11335279.888496352
4.356847316046694	10060782.853884552
4.40041578920716	8845255.691812573
4.444419947099232	7902043.404515958
4.488864146570225	7254898.7592533175
4.533752788035927	6571520.811315279
4.579090315916286	6817546.006784831
4.624881219075449	6503533.276136111
4.671130031266204	6696845.269383594
4.717841331578866	5916520.191132035
4.765019744894654	6066509.100858097
4.812669942343601	5802097.397038225
4.8607966417670365	5989819.460348497
4.9094046081847065	5484582.485510266
4.958498654266554	3440576.2450794205
5.008083640809219	4176809.701110468
5.058164477217312	5094072.113203444
5.108746121989485	4202749.689003805
5.15983358320938	3010372.836146062
5.211431919041474	2225283.150558098
5.263546238231889	2894468.949642921
5.316181700614208	3419218.556844518
5.36934351762035	1921274.5342663233
5.423036952796553	1431546.7697708446
5.4772673223245185	1615320.8111750383
5.532039995547764	1747726.2618897925
5.587360395503242	1313840.9829584283
5.643233999458275	1116279.1629073764
5.6996663394528575	1023526.3633925196
5.756663002847385	1022032.5664454025
5.814229632875859	1117750.9744343634
5.872371929204618	889935.4537824962
5.931095648496664	983456.1936595035
5.990406604981631	1297260.1848728932
6.050310671031448	1024273.9291032574
6.110813777741763	1360922.6843391648
6.17192191551918	1112076.7406438303
6.233641134674372	2398156.121901195
6.295977546021115	2562265.88000197
6.358937321481327	1734145.4220725787
6.42252669469614	681875.1705340063
6.486751961643101	614412.6987862949
6.551619481259532	724316.5098320585
6.617135676072128	599050.184886248
6.683307032832849	908686.4524953935
6.750140103161177	1022393.6610138547
6.81764150419279	987650.5491093552
6.885817919234718	799859.1578234421
6.954676098427065	990966.1993546516
7.024222859411336	689356.0715255036
7.094465088005449	925519.476489167
7.165409738885503	697206.570164326
7.237063836274358	719154.8780577359
7.309434474637103	641567.3373486728
7.382528819383473	586845.5577882659
7.456354107577308	550851.0924231703
7.530917648653081	726432.8637274822
7.606226825139612	711043.1104582007
7.682289093391009	452348.94035171997
7.759111984324918	588851.2964776317
7.836703104168168	665089.1139587201
7.91507013520985	632877.1784510734
7.994220836561947	722802.2006629605
8.074163044927568	690712.7655099585
8.154904675376844	709135.9389132775
8.23645372213061	771235.8979820238
8.318818259351918	840745.2094487925
8.402006441945437	861547.3202371622
8.486026506364892	957674.5875928733
8.57088677142854	1047816.7045392158
8.656595639142825	1113170.1588440852
8.743161595534254	1180764.370911739
8.830593211489598	1259749.2210325617
8.918899143604493	1232609.1401622854
9.00808813504054	1273374.1272739563
9.098169016390944	1353201.4166875987
9.189150706554853	1388226.7318181256
9.281042213620402	1274965.5239435916
9.373852635756606	1190822.9824207763
9.467591162114172	1303923.4775882026
9.562267073735315	1449284.41685692
9.657889744472667	1173808.2941181476
9.754468641917395	1350154.362272313
9.852013328336568	1125890.4390533986
9.950533461619933	1326572.298161979
10.050038796236134	1239171.0521219387
10.150539184198495	1285422.9145214339
10.252044576040479	1137573.3147838784
10.354565021800884	750585.1153559492
10.458110672018893	842931.9187640053
10.562691778739081	978843.2350645801
10.668318696526473	898903.2511227417
10.775001883491738	811475.49646946
10.882751902326655	835441.7959637122
10.991579421349924	644034.1069420696
11.101495215563421	855612.4194976744
11.212510167719055	734283.0755728994
11.324635269396246	748831.8946944643
11.43788162209021	801956.7641138214
11.552260438311112	549012.77020864
11.667783042694223	605888.0146055231
11.784460873121166	557725.1411759804
11.902305481852377	631359.9672033578
12.0213285366709	621142.4856143885
12.14154182203761	651426.0035810046
12.262957240257986	484065.113904843
12.385586812660566	405377.8635500376
12.509442680787172	415678.6589429511
12.634537107595044	467834.324569023
12.760882478670995	441429.3431745321
12.888491303457704	435412.0230483526
13.01737621649228	357913.1597862731
13.147549978657205	372846.08915807033
13.279025478443776	290461.6917275989
13.411815733228213	283653.7390790845
13.545933890560496	333669.09161789407
13.681393229466101	295704.19742117706
13.818207161760762	306098.35850565415
13.956389233378369	285831.2677828316
14.095953125712155	297392.41092364903
14.236912656969274	259973.70225227173
14.379281783538968	207839.94186921374
14.523074601374358	197329.7343602804
14.6683053473881	241371.50703477752
14.814988400861985	216722.6021053539
14.963138284870602	195294.10038890134
15.11276966771931	217091.26761427117
15.263897364396504	234195.07265363884
15.41653633804047	180744.88525886936
15.570701701420873	144067.11931368653
15.726408718435081	130918.41410299155
15.883672805619431	208130.63373532204
16.042509533675627	150011.9531988091
16.202934629012383	142979.98773508047
16.36496397530251	133037.33232737958
16.528613615055534	129513.98849084879
16.69389975120609	111623.45147387219
16.86083874871815	112112.7861005757
17.02944713620533	125827.62597754925
17.199741607567383	94999.30435214081
17.37173902364306	86604.38206063847
17.54545641387949	97553.57880024094
17.720910978018285	88177.60517524646
17.898120087798468	83230.76434625131
18.077101288676452	87900.98299801502
18.257872301563214	83622.28812600533
18.44045102457885	79577.38728949489
18.62485553482464	69290.23713916542
18.811104090172883	104246.65352345725
18.999215131074614	62704.26011702563
19.189207282385357	65151.57250798174
19.381099355209216	52392.8729763261
19.574910348761303	54291.38080208784
19.77065945224892	59002.73771762406
19.968366046771408	70868.69141625999
20.16804970723912	59061.337307938826
20.369730204311512	49143.37580083418
20.573427506354626	44512.19395503366
20.779161781418175	50971.14841546209
20.98695339923236	39882.08163579971
21.19682293322468	40296.79236651708
21.408791162556927	51487.38968909472
21.622879074182496	36067.68429478677
21.839107864924323	34186.93956303135
22.057498943573567	34575.27948838579
22.278073933009303	37081.991180140394
22.500854672339393	29303.584099607233
22.72586321906279	49664.73171101898
22.953121851253417	27254.445937241057
23.18265306976595	45055.73393070382
23.41447960046361	35357.37700133321
23.648624396468247	24017.535521371956
23.88511064043293	22051.486614570826
24.12396174683726	38224.52666538303
24.365201364305634	34688.062455944695
24.608853377948687	32332.777903209557
24.854941911728176	26898.81427310251
25.103491330845458	17796.9792906467
25.354526244153913	17740.801760124592
25.608071506595454	26124.53770668193
25.864152221661406	24065.894431505032
26.122793743878024	21612.48797860697
26.384021681316803	23176.33998545787
26.64786189812997	14024.21548457077
26.91434051711127	19259.00953295024
27.18348392228238	21087.321397834345
27.455318761505207	26089.35658231262
27.72987194912026	19959.40028503404
28.007170668611465	13007.149527327698
28.28724237529758	11563.29978454168
28.57011479905055	11447.364726041811
28.855815947041062	15976.386038225186
29.144374106511474	12148.968239617878
29.435817847576587	13061.58768319136
29.730176026052348	12099.356192351246
30.027477786312875	13525.61697006952
30.327752564176006	9840.229110810824
30.631030089817763	10424.78370200437
30.93734039071594	9430.919013524373
31.246713794623105	10719.232630457664
31.559180932569333	12388.103264533163
31.874772741895026	9531.105755892777
32.19352046931398	11553.161105249628
32.51545567400712	10994.582270771429
32.84061023074719	6783.799153575361
33.169016333054664	7235.468116530274
33.500706496385206	7444.986242689691
33.83571356134906	11080.205982304924
34.17407069696255	7407.065831578242
34.51581140393218	6152.44017798545
34.8609695179715	6466.022021371561
35.209579213151216	5850.116324670144
35.56167500528272	5156.143891626579
35.917291755335555	4859.440279656639
36.27646467288891	6291.459042238143
36.639229319617804	5666.349088396348
37.005621612813975	7279.599319215915
37.37567782894212	4625.103796690148
37.74943460723154	5236.699506429497
38.12692895330385	6710.037717420652
38.5081982428369	6103.034771390368
38.893280225265265	4178.198773817641
39.28221302751791	3464.610435319975
39.6750351577931	4906.921386448148
40.071785509371026	3368.9691387404746
40.47250336446474	3378.9270563482714
40.87722839810939	3339.5868550250607
41.28600068209048	4583.089566374825
41.69886068891139	4506.873750538103
42.1158492958005	3876.2026393912356
42.53700778875851	3645.679302660158
42.962377866646094	2761.435429249505
43.392001645312554	2618.5915899144516
43.825921661765676	2410.4106281633544
44.264180878383335	2451.9985804256758
44.70682268716717	2392.494219044694
45.15389091403884	2505.300989207838
45.60542982317923	2928.071068371013
46.06148412141103	2459.2900152475568
46.52209896262513	2036.117469590588
46.98731995225138	1973.1993304182363
47.4571931517739	2651.228710347067
47.93176508329164	1810.9816531714378
48.411082734124555	2307.71407716673
48.8951935614658	1691.1917036825498
49.38414549708046	1526.376090250754
49.877986952051266	1582.9018117960766
50.37676682157178	1525.8215963852042
50.88053448978749	1470.7542466542525
51.38933983468537	1417.623305659338
51.903233233032225	1366.3737717733238
52.422265565362544	1316.9329456732066
52.946488221016175	1269.2335710432887
53.47595310322633	1223.233944792993
54.010712634258596	1178.8638491605623
54.550819760601186	1136.0653576526227
55.0963279582072	1094.7902552870821
55.647291237789275	1054.9817505109675
56.20376415016716	1016.5909472901538
56.765801791668835	979.5666037582233
57.33345980958552	943.8668422285243
57.906794407681375	909.4430804288713
58.48586235175819	876.2459372581446
59.070720975275776	844.241998957955
59.661428185028534	813.379663667156
60.25804246687882	783.6284089858478
60.860622891547614	754.9425773640506
61.46922912046309	727.287588686602
62.083921411667724	700.629205415774
62.7047606257844	674.926253442807
63.331808232042235	650.1548021414723
63.965126314362664	626.2739838925312
64.60477757750628	603.2550164014996
65.25082535328136	581.0687963152901
65.90333360681416	559.6817178892356
66.56236694288232	539.072935896156
67.22799061231113	519.2082564996376
67.90027051843424	500.06360127273655
68.57927322361859	481.61455957759523
69.26506595585477	463.83355345832297
69.95771661541333	446.70135181749015
70.65729378156746	430.19049855568824
71.36386671938313	414.2810962237413
72.07750538657696	398.9511680968385
72.79828044044274	384.17899924574954
73.52626324484716	369.9475009708283
74.26152587729563	356.23407176353305
75.00414113606858	343.0228700854478
75.75418254742928	330.29428062605894
76.51172437290357	318.0304422108769
77.27684161663261	306.2171236388474
78.04961003279894	294.8349163752807
78.83010613312693	283.87199913133406
79.6184071944582	273.3102217005757
80.41459126640278	263.13585375817814
81.2187371790668	253.33654042028925
82.03092455085748	243.8962381887988
82.85123379636605	234.8042401317236
83.6797461343297	226.0462983172567
84.51654359567301	217.61086531479404
85.36170903162974	209.4868843485569
86.21532612194603	201.6616582700582
87.0774793831655	194.12624459196218
87.94825417699715	186.86829028362533
88.82773671876713	179.87898865572285
89.71601408595481	173.14801334204307
90.61317422681435	166.66547369939798
91.5193059690825	160.42400537150846
92.43449902877332	154.41247871328355
93.35884401906105	148.62457847990487
