#wavelength	surface flux
0.8	1758145.3564315552
0.8002000000000001	1766233.9319169356
0.8004000500000003	1774733.3916921213
0.8006001500125003	1783239.1062424863
0.8008003000500035	1791746.9472214896
0.8010005001250161	1800256.9151607417
0.8012007502500472	1808769.010591966
0.8014010504376099	1816027.746778682
0.8016014007002193	1822867.7477710764
0.8018018010503944	1829709.4587637186
0.8020022515006572	1836552.8801841123
0.8022027520635323	1843398.012459855
0.8024033027515483	1850242.6676875614
0.8026039035772362	1857086.889599874
0.8028045545531306	1863932.8225676648
0.8030052556917691	1870780.4670187011
0.803206007005692	1877629.8233808442
0.8034068085074435	1884653.9846954807
0.8036076602095705	1892165.1060358242
0.8038085621246229	1899678.1051564964
0.8040095142651542	1907192.9825269538
0.8042105166437206	1914709.738616751
0.8044115692728815	1922195.4625936132
0.8046126721651998	1928267.4849188053
0.8048138253332411	1934341.0252495736
0.8050150287895745	1940416.0839654305
0.805216282546772	1946492.6614459646
0.8054175866174087	1952570.7580708656
0.8056189410140631	1958764.155863803
0.8058203457493168	1964991.3095911196
0.8060218008357541	1971220.0201068602
0.8062233062859632	1977450.2878002326
0.8064248621125346	1983682.1130605242
0.806626468328063	1990527.935157997
0.8068281249451449	1997901.479620339
0.8070298319763813	2005276.867468806
0.8072315894343755	2012654.0991642294
0.8074333973317341	2020033.1751675792
0.8076352556810671	2026159.4204001827
0.8078371644949874	2029266.9836622875
0.8080391237861113	2032375.3238152084
0.8082411335670578	2035484.4410531658
0.8084431938504498	2038594.335570436
0.8086453046489125	2041663.5076554883
0.8088474659750746	2043960.7931373797
0.8090496778415686	2046258.6529406444
0.809251940261029	2048557.0872088585
0.8094542532460944	2050856.0960856415
0.8096566168094059	2053155.679714641
0.8098590309636085	2056423.0320907382
0.8100614957213493	2059917.580923208
0.8102640110952797	2063413.0033928864
0.8104665770980536	2066909.2997181837
0.8106691937423283	2070406.4701175636
0.8108718610407639	2074594.0138608646
0.8110745790060241	2079309.8282253616
0.8112773476507757	2084026.8215434537
0.8114801669876885	2088744.9941098741
0.8116830370294355	2093464.3462194335
0.8118859577886929	2097682.283604477
0.8120889292781401	2100857.364590083
0.8122919515104597	2104033.2393459347
0.8124950244983374	2107209.9080704753
0.8126981482544621	2110387.370962197
0.8129013227915257	2113677.267324472
0.8131045481222237	2118246.270979053
0.8133078242592543	2122816.416884548
0.8135111512153191	2127387.705326518
0.813714529003123	2131960.1365905995
0.8139179576353739	2136533.7109624976
0.8141214371247829	2151837.5115147275
0.8143249674840641	2169225.687630677
0.814528548725935	2186618.2107906453
0.8147321808631167	2204015.082081427
0.8149358639083326	2221416.3025900256
0.8151395978743097	2232907.40839737
0.8153433827737784	2240405.326273322
0.8155472186194719	2247905.1186287403
0.8157511054241268	2255406.785932246
0.815955043200483	2262910.328652583
0.8161590319612831	2269348.2440262265
0.8163630717192736	2273831.699328681
0.8165671624872033	2278316.275494956
0.8167713042778252	2282801.972805277
0.8169754971038948	2287288.7915399275
0.8171797409781707	2291044.783097427
0.8173840359134155	2288958.3390377895
0.8175883819223938	2286871.373367139
0.8177927790178745	2284783.88595507
0.8179972272126291	2282695.876671148
0.8182017265194322	2280607.3453849065
0.8184062769510622	2286833.428260631
0.8186108785203001	2294340.6440626527
0.8188155312399301	2301849.7366686147
0.8190202351227402	2309360.706547736
0.819224990181521	2316873.554169323
0.8194297964290664	2327711.7914097365
0.8196346538781738	2340555.9788147127
0.8198395625416434	2353403.377266535
0.8200445224322789	2366253.9875679757
0.820249533562887	2379107.810521988
0.8204545959462778	2389718.032023757
0.8206597095952644	2396714.7181425346
0.8208648745226633	2403713.1534328475
0.8210700907412941	2410713.3383319816
0.8212753582639793	2417715.273277333
0.8214806771035456	2422854.89722695
0.8216860472728215	2416510.9162984514
0.8218914687846397	2410165.34937472
0.822096941651836	2403818.1960592545
0.822302465887249	2397469.4559554635
0.8225080415037209	2391119.1286666435
0.8227136685140968	2399323.8226288385
0.8229193469312254	2409183.047098698
0.8231250767679583	2419044.736374678
0.8233308580371503	2428908.8910729717
0.8235366907516598	2438775.5118099474
0.8237425749243477	2449447.526509622
0.8239485105680789	2460547.7748009646
0.824154497695721	2471650.7981543723
0.824360536320145	2482756.5972636207
0.8245666264542252	2493865.172822646
0.8247727681108388	2503861.9260800527
0.8249789613028664	2512264.862337968
0.8251852060431922	2520669.899329955
0.825391502344703	2529077.0375811863
0.8255978502202894	2537486.277616988
0.8258042496828445	2545366.952830939
0.8260107007452654	2550672.3759162
0.8262172034204517	2555979.1253572265
0.8264237577213068	2561287.201485615
0.8266303636607373	2566596.604633038
0.8268370212516525	2571907.3351312447
0.8270437305069654	2572259.429928888
0.8272504914395923	2572224.023847365
0.8274573040624523	2572188.6089143213
0.8276641683884679	2572153.185127544
0.8278710844305652	2572117.752484821
0.8280780522016729	2576631.2766729803
0.8282850717147234	2583225.253034712
0.8284921429826521	2589820.877890527
0.8286992660183978	2596418.151652561
0.8289064408349024	2603017.074733031
0.8291136674451112	2607660.029843809
0.8293209458619727	2609835.687868033
0.8295282760984382	2612011.8898067605
0.829735658167463	2614188.6357959746
0.8299430920820048	2616365.9259716836
0.8301505778550254	2618781.0212257174
0.8303581154994891	2622143.697408793
0.8305657050283641	2625507.2142609176
0.8307733464546212	2628871.571992253
0.8309810397912352	2632236.7708130265
0.8311887850511829	2635602.8109334987
0.8313965822474458	2648335.5163887437
0.8316044313930077	2661506.122446908
0.8318123325008561	2674680.0211565993
0.8320202855839813	2687857.213340962
0.8322282906553774	2701037.699823371
0.8324363477280413	2707393.4793488234
0.8326444568149735	2711001.918270587
0.8328526179291771	2714611.259302077
0.8330608310836596	2718221.50266883
0.8332690962914304	2721832.64859642
0.8334774135655034	2724823.46723768
0.833685782918895	2727121.0991915255
0.8338942043646247	2729419.3055533576
0.834102677915716	2731718.0864667823
0.834311203585195	2734017.442075433
0.8345197813860912	2738546.4649391244
0.8347284113314379	2750579.9535871595
0.8349370934342709	2762616.4506073496
0.8351458277076294	2774655.9567517806
0.8353546141645565	2786698.472772768
0.8355634528180977	2798743.9994227546
0.8357723436813022	2790262.9381730366
0.8359812867672226	2781526.26841655
0.8361902820889144	2772787.414492629
0.8363993296594368	2764046.3758552247
0.8366084294918518	2755303.151958158
0.8368175815992247	2761613.400758396
0.8370267859946247	2773110.5505483323
0.8372360426911234	2784610.574625713
0.8374453517017962	2796113.473709111
0.8376547130397217	2807619.2485172795
0.8378641267179816	2815641.27694738
0.8380735927496613	2820205.6746948045
0.8382831111478488	2824771.2135416633
0.8384926819256358	2829337.893773231
0.8387023050961173	2833905.715674861
0.8389119806723914	2838441.216004629
0.8391217086675596	2842883.672909014
0.8393314890947265	2847327.240427621
0.8395413219670003	2851771.9188381084
0.8397512072974922	2856217.7084182017
0.8399611450993165	2860849.479975816
0.8401711353855914	2874663.0139335287
0.8403811781694378	2888480.001274727
0.8405912734639802	2902300.4428627635
0.8408014212823464	2916124.3395612044
0.8410116216376671	2929951.6922338177
0.8412218745430766	2941852.3674562317
0.8414321800117124	2953194.423250842
0.8416425380567154	2964539.314559406
0.8418529486912297	2975887.0420908
0.8420634119284025	2987237.6065540677
0.8422739277813847	2994679.1733599952
0.8424844962633302	2998676.1218658825
0.842695117387396	3002674.0696088914
0.8429057911667428	3006673.016838836
0.8431165176145345	3010672.96380559
0.8433272967439382	3014869.504047747
0.8435381285681244	3019544.1996940575
0.8437490131002665	3024220.0640142784
0.8439599503535415	3028897.097300577
0.84417094034113	3033575.2998452
0.8443819830762154	3038376.971990083
0.8445930785719846	3045643.5895078047
0.8448042268416277	3052912.0236799023
0.8450154278983382	3060182.274960542
0.8452266817553128	3067454.3438040013
0.8454379884257517	3074728.2306646723
0.8456493479228583	3082249.104425121
0.845860760259839	3089830.897908025
0.846072225449904	3097414.5868392996
0.8462837435062666	3105000.171692809
0.8464953144421433	3112587.652942536
0.8467069382707537	3118622.3729523118
0.8469186150053215	3123446.7933914773
0.847130344659073	3128272.4199357536
0.8473421272452377	3133099.2528866613
0.8475539627770492	3137927.2925458117
0.8477658512677435	3143298.9308984857
0.8479777927305605	3149823.609477625
0.8481897871787432	3156349.9192264085
0.848401834625538	3162877.8605526322
0.8486139350841944	3169407.4338641833
0.8488260885679657	3175742.979955325
0.8490382950901076	3179695.088700888
0.8492505546638802	3183648.18547364
0.8494628673025462	3187602.2705205833
0.8496752330193721	3191557.3440887947
0.8498876518276269	3195513.4064253923
0.8501001237405839	3188055.626670914
0.8503126487715191	3178317.3817057703
0.850525226933712	3168576.7021793905
0.8507378582404455	3158833.5874831295
0.8509505427050057	3149088.0370081887
0.8511632803406821	3143206.985223031
0.8513760711607672	3139972.6056022607
0.8515889151785576	3136737.4173865793
0.8518018124073523	3133501.4203738472
0.8520147628604541	3130264.6143618636
0.8522277665511693	3135353.651993237
0.8524408234928071	3155843.0998197496
0.8526539336986805	3176337.670008224
0.8528670971821053	3196837.3638392473
0.8530803139564007	3217342.1825937037
0.8532935840348901	3237568.337118926
0.8535069074308987	3255402.792950784
0.8537202841577566	3273241.7073966153
0.8539337142287962	3291085.0815710598
0.8541471976573534	3308932.9165890366
0.8543607344567677	3326785.2135657715
0.8545743246403821	3336899.828326845
0.8547879682215422	3345787.4305812684
0.8550016652135977	3354677.254736254
0.8552154156299011	3363569.301347279
0.8554292194838088	3372463.5709699634
0.8556430767886797	3379818.497456432
0.855856987557877	3386239.2640872826
0.8560709518047664	3392661.635909787
0.8562849695427177	3399085.613325249
0.8564990407851035	3405511.1967350673
0.8567131655452999	3411868.399705516
0.8569273438366862	3418112.516211541
0.8571415756726455	3424358.1937466934
0.8573558610665638	3430605.432701232
0.8575702000318304	3436854.233465502
0.8577845925818384	3443212.895986557
0.857999038729984	3450249.6271016053
0.8582135384896665	3457288.117399431
0.858428091874289	3464328.3673198316
0.8586426988972576	3471370.37730271
0.8588573595719821	3478414.147788087
0.8590720739118751	3484126.157498236
0.8592868419303532	3489682.369015731
0.8595016636408359	3495239.9695861046
0.8597165390567462	3500798.9595566196
0.8599314681915105	3506359.3392746286
0.8601464510585584	3510479.3593993015
0.860361487671323	3513835.1388588385
0.8605765780432408	3517191.7572632395
0.8607917221877518	3520549.214822245
0.8610069201182988	3523907.5117456387
0.8612221718483286	3515097.740342794
0.8614374773912907	3488742.6389389643
0.8616528367606385	3462380.948759791
0.8618682499698288	3436012.6681580567
0.8620837170323213	3409637.7954861755
0.8622992379615795	3387728.1240516324
0.8625148127710699	3387942.175206298
0.8627304414742627	3388156.279873752
0.8629461240846313	3388370.4380673734
0.8631618606156526	3388584.6498005427
0.8633776510808066	3388798.9150866456
0.8635934954935769	3425017.8371509914
0.8638093938674504	3464197.176390349
0.8640253462159173	3503386.3104645144
0.8642413525524714	3542585.241822198
0.8644574128906095	3581793.972912713
0.8646735272438323	3587591.9240397937
0.8648896956256433	3577849.8279162985
0.8651059180495498	3568105.296268772
0.8653221945290621	3558358.3284883425
0.8655385250776946	3548608.9239659547
0.8657549097089641	3550916.7759112227
0.8659713484363913	3568664.263934178
0.8661878412735006	3586416.188829147
0.866404388233819	3604172.551705337
0.8666209893308775	3621933.353672238
0.8668376445782103	3637182.345675234
0.8670543539893549	3642165.055654895
0.8672711175778525	3647149.0113120545
0.8674879353572469	3652134.212958122
0.8677048073410862	3657120.6609046035
0.8679217335429217	3662108.355463075
0.8681387139763074	3670894.6734439507
0.8683557486548015	3679871.8319941126
0.8685728375919655	3688851.234833923
0.8687899808013633	3697832.882524424
0.8690071782965637	3706816.7756268596
0.869224430091138	3712536.1876617456
0.8694417361986609	3716927.8024463407
0.8696590966327107	3721320.5151346303
0.869876511406869	3725714.3260010923
0.8700939805347206	3730109.235320269
0.8703115040298544	3735275.4277517837
0.870529081905862	3741323.455289517
0.8707467141763385	3747372.994834133
0.8709644008548827	3753424.0467636352
0.8711821419550964	3759476.6114561157
0.8713999374905854	3766053.7279501795
0.871617787474958	3774437.6766144545
0.8718356919218269	3782823.721265903
0.8720536508448075	3791211.862428515
0.8722716642575187	3799602.1006264132
0.8724897321735832	3807994.436383864
0.8727078546066265	3815470.637129127
0.8729260315702784	3822934.737587034
0.873144263078171	3830400.704070047
0.8733625491439405	3837868.537044682
0.8735808897812266	3845338.2369775632
0.8737992850036719	3848653.829453303
0.874017734824923	3850498.272859662
0.8742362392586293	3852343.1773768715
0.874454798318444	3854188.54312021
0.8746734120180236	3856034.370204984
0.8748920803710283	3859519.601326525
0.875110803391121	3864652.6848792615
0.8753295810919689	3869787.0517028887
0.875548413487242	3874922.702118222
0.8757673005906139	3880059.6364461593
0.8759862424157616	3887531.1811739304
0.8762052389763657	3901756.183165933
0.8764242902861098	3915984.741408424
0.8766433963586814	3930216.8567904797
0.8768625572077712	3944452.530201385
0.8770817728470732	3958575.7100760015
0.8773010432902849	3963641.337914933
0.8775203685511077	3968708.232160832
0.8777397486432454	3973776.393130286
0.8779591835804065	3978845.8211399885
0.8781786733763015	3983916.516506687
0.8783982180446457	3979733.186455723
0.878617817599157	3972795.5338722044
0.8788374720535569	3965856.1468755435
0.8790571814215703	3958915.025032135
0.8792769457169257	3951972.1679082657
0.879496764953355	3946910.091369447
0.8797166391445934	3943539.2551104883
0.8799365683043796	3940167.5761424648
0.8801565524464557	3936795.0542546995
0.8803765915845676	3933421.689236459
0.8805966857324639	3936737.8942864416
0.880816834903897	3956859.2411684957
0.881037039112623	3976985.618387278
0.8812572983724012	3997117.0272003636
0.8814776126969944	4017253.468865661
0.8816979821001687	4036961.5835607448
0.8819184065956938	4046473.232503798
0.8821388861973429	4055987.259359096
0.8823594209188923	4065503.6647210987
0.882580010774122	4075022.449184438
0.8828006557768155	4084543.613343898
0.8830213559407598	4094563.6645763344
0.8832421112797452	4104711.09731714
0.8834629218075651	4114861.066916125
0.8836837875380171	4125013.5740075125
0.8839047084849018	4135168.6192256743
0.884125684662023	4135213.1669721887
0.8843467160831886	4127153.4188982924
0.8845678027622095	4119091.6558873774
0.8847889447129001	4111027.877435708
0.8850101419490785	4102962.083039427
0.8852313944845657	4104092.915374362
0.885452702333187	4125358.732118263
0.8856740655087704	4146629.8653163463
0.8858954840251476	4167906.3162977234
0.8861169578961539	4189188.0863918364
0.886338487135628	4208158.833569474
0.886560071757412	4196309.800006743
0.8867817117753515	4184457.8041856224
0.8870034072032955	4172602.845365541
0.8872251580550963	4160744.922805769
0.8874469643446101	4148884.0357653494
0.8876688260856963	4159114.2909063525
0.8878907432922178	4173919.762290753
0.8881127159780409	4188728.93504299
0.8883347441570356	4203541.810088432
0.8885568278430749	4218358.388352621
0.8887789670500358	4227029.0552464165
0.8890011617917983	4231339.514636067
0.8892234120822464	4235651.051640567
0.8894457179352669	4239963.6665293155
0.8896680793647509	4244277.359571789
0.8898904963845921	4245623.219863579
0.8901129690086883	4241304.655950225
0.8903354972509405	4236985.012395893
0.8905580811252535	4232664.288930669
0.8907807206455347	4228342.4852845855
0.8910034158256963	4223006.95146416
0.8912261666796527	4208620.0697717955
0.8914489732213227	4194229.5913590044
0.8916718354646282	4179835.5153265954
0.8918947534234944	4165437.8407751927
0.8921177271118502	4151036.566805161
0.8923407565436284	4135806.584404668
0.8925638417327644	4120438.196939785
0.8927869826931977	4105065.9673780305
0.8930101794388711	4089689.8947588867
0.8932334319837308	4074309.978121591
0.8934567403417267	4065896.2888269094
0.8936801045268123	4061811.575575529
0.8939035245529441	4057725.841145839
0.8941270004340824	4053639.08528254
0.894350532184191	4049551.3077302757
0.8945741198172371	4067328.086094309
0.8947977633471915	4121370.7613274064
0.8950214627880284	4175426.94722931
0.8952452181537254	4229496.647177657
0.8954690294582639	4283579.864551024
0.8956928967156286	4331333.760768256
0.8959168199398075	4337936.810636214
0.8961407991447926	4344541.51126664
0.8963648343445789	4351147.863072224
0.896588925553165	4357755.866465756
0.8968130727845534	4364365.521860137
0.8970372760527496	4364151.015468309
0.8972615353717629	4363082.408634168
0.8974858507556059	4362013.534648319
0.8977102222182949	4360944.393443974
0.8979346497738496	4359874.984954326
0.8981591334362931	4382818.827693285
0.8983836732196523	4418900.835061776
0.8986082691379572	4454991.862932086
0.8988329212052417	4491091.913559363
0.8990576294355432	4527200.989199327
0.8992823938429022	4551110.771104184
0.8995072144413631	4556874.30856151
0.8997320912449734	4562639.286903199
0.8999570242677847	4568405.706489472
0.9001820135238516	4574173.567680642
0.9004070590272328	4580295.813295198
0.9006321607919896	4588269.834247396
0.9008573188321878	4596245.84870484
0.9010825331618959	4604223.857165895
0.9013078037951865	4612203.860129067
0.9015331307461353	4620185.858092974
0.9017585140288219	4631905.898148362
0.9019839536573292	4643950.663590552
0.9022094496457435	4655998.440224095
0.9024350020081551	4668049.228801809
0.9026606107586572	4680103.030076665
0.902886275911347	4696414.390167057
0.9031119974803249	4714780.815107262
0.9033377754796951	4733151.831653703
0.903563609923565	4751527.440954272
0.903789500826046	4769907.644157178
0.9040154482012526	4781782.2149806395
0.904241452063303	4785226.323249503
0.9044675124263188	4788671.292545433
0.9046936293044254	4792117.123083687
0.9049198027117517	4795563.815079577
0.9051460326624297	4800551.402601478
0.9053723191705955	4812098.059433654
0.9055986622503881	4823647.602930027
0.9058250619159507	4835200.033812274
0.9060515181814298	4846755.35280225
0.9062780310609752	4858313.560621965
0.9065046005687405	4847710.236737118
0.906731226718883	4835867.774488893
0.9069579095255627	4824022.351625122
0.907184649002944	4812173.967405634
0.907411445165195	4800322.621090079
0.9076382980264862	4813841.196117636
0.907865207600993	4837900.462595986
0.9080921739028933	4861965.743890949
0.9083191969463691	4886037.041506231
0.9085462767456058	4910114.356945928
0.9087734133147922	4926350.5832290705
0.9090006066681211	4933527.361001402
0.909227856819788	4940705.9329681685
0.9094551637839932	4947886.299577936
0.9096825275749393	4955068.461279354
0.9099099482068329	4963165.144893212
0.9101374256938848	4974507.698030482
0.9103649600503083	4985853.086806032
0.9105925512903209	4997201.311928773
0.9108201994281437	5008552.374107807
0.9110479044780008	5019906.274052372
0.9112756664541204	5031001.397014278
0.911503485370734	5042093.305425217
0.9117313612420768	5053187.98681326
0.9119592940823873	5064285.441871647
0.912187283905908	5075385.671293801
0.9124153307268845	5065859.826585786
0.9126434345595664	5048844.533950127
0.9128715954182063	5031824.987491325
0.9130998133170609	5014801.186145899
0.9133280882703902	4997773.128850138
0.913556420292458	4996175.406668834
0.9137848093975312	5010495.207817287
0.9140132555998806	5024818.588916024
0.9142417589137806	5039145.550860037
0.9144703193535092	5053476.094544546
