#wavelength	surface flux
0.7	135112.12418294116
0.7001166666666666	135357.61068551484
0.7002333527777778	135565.53629585548
0.700350058336574	135773.49656046438
0.7004667833462966	135981.49148511712
0.7005835278101878	136189.5210755912
0.7007002917314895	136397.58533766336
0.7008170751134447	136605.6842771125
0.7009338779592968	136813.81789971812
0.7010507002722901	136985.62901261076
0.7011675420556689	137113.2244670635
0.701284403312678	137240.84118742513
0.7014012840465635	137368.4791772403
0.7015181842605713	137496.1384400538
0.701635103957948	137623.81897941098
0.701752043141941	137751.52079885802
0.701869001815798	137879.24390194184
0.7019859799827672	138051.61985392898
0.7021029776460976	138255.08558909618
0.7022199948090387	138458.5852352195
0.7023370314748403	138662.11879795045
0.7024540876467528	138865.68628294178
0.702571163328027	139069.28769584696
0.7026882585219152	139272.9230423215
0.7028053732316688	139476.59232802017
0.7029225074605406	139777.32173002503
0.7030396612117841	140115.5675081185
0.7031568344886527	140453.86966050835
0.7032740272944008	140792.2281965901
0.7033912396322832	141130.64312576133
0.7035084715055552	141469.11445742042
0.7036257229174727	141807.6422009683
0.7037429938712924	142146.22636580703
0.7038602843702709	142447.95414182337
0.7039775944176659	142743.4715214903
0.7040949240167356	143039.038154054
0.7042122731707383	143334.65404772293
0.7043296418829335	143630.31921070768
0.7044470301565806	143926.0336512195
0.70456443799494	144221.7973774712
0.7046818654012724	144517.61039767746
0.7047993123788394	144773.2608670988
0.7049167789309024	145028.90780004545
0.7050342650607243	145284.59734081465
0.7051517707715678	145540.32949650718
0.7052692960666963	145796.10427422557
0.705386840949374	146051.92168107344
0.7055044054228656	146307.7817241562
0.7056219894904361	146553.39927616622
0.7057395931553511	146733.69683014197
0.705857216420877	146914.0244337102
0.7059748592902804	147094.3820918789
0.7060925217668288	147274.7698096575
0.70621020385379	147455.1875920557
0.7063279055544321	147635.63544408407
0.7064456268720246	147816.11337075473
0.7065633678098366	148008.7433366693
0.7066811283711383	148234.78950657402
0.7067989085592001	148460.87335084038
0.7069167083772933	148686.9948757473
0.7070345278286895	148913.1540875752
0.707152366916661	149139.35099260512
0.7072702256444803	149365.58559711894
0.7073881040154211	149591.8579074005
0.7075060020327569	149842.61247240656
0.7076239196997625	150129.00857514553
0.7077418570197124	150415.45241056802
0.7078598139958823	150701.94398662972
0.7079777906315483	150988.48331128768
0.7080957869299869	151275.07039249956
0.7082138028944751	151561.70523822482
0.7083318385282908	151848.38785642458
0.7084498938347124	152048.28551608123
0.708567968817018	152174.5979216413
0.7086860634784875	152300.93137926914
0.7088041778224007	152427.28589247336
0.7089223118520377	152553.6614647629
0.7090404655706796	152680.0580996478
0.709158638981608	152806.47580063864
0.709276832088105	152932.91457124634
0.7093950448934531	153182.104152726
0.7095132774009353	153489.86640174317
0.7096315296138355	153797.67994446863
0.7097498015354378	154105.54478945112
0.7098680931690269	154413.4609452408
0.7099864045178884	154721.4284203902
0.7101047355853081	155029.44722345204
0.7102230863745722	155337.51736298087
0.7103414568889679	155633.21216039147
0.7104598471317828	155926.1326041773
0.7105782571063047	156219.1018680369
0.7106966868158224	156512.1199601071
0.710815136263625	156805.18688852593
0.7109336054530023	157098.30266143303
0.7110520943872445	157391.46728696884
0.7111706030696424	157684.68077327573
0.7112891315034873	157918.31631604806
0.7114076796920712	158149.1458311327
0.7115262476386865	158380.01381780318
0.7116448353466263	158610.9202824713
0.711763442819184	158841.86523155033
0.711882070059654	159072.84867145438
0.7120007170713306	159303.87060859828
0.7121193838575091	159536.07506979883
0.7122380704214853	159780.25007168332
0.7123567767665555	160024.4657694012
0.7124755028960166	160268.72216973547
0.7125942488131658	160513.01927946962
0.7127130145213015	160757.3571053894
0.7128318000237216	161001.73565427942
0.7129506053237256	161246.15493292795
0.7130694304246129	161488.74979891945
0.7131882753296837	161724.86387871607
0.7133071400422386	161961.01731085937
0.7134260245655789	162197.2101019079
0.7135449289030065	162433.44225842162
0.7136638530578235	162669.71378696134
0.7137827970333332	162906.0246940895
0.7139017608328388	163142.37498636876
0.7140207444596443	163377.3248686548
0.7141397479170543	163609.74544590493
0.7142587712083737	163842.20475991763
0.7143778143369084	164074.70281714952
0.7144968773059646	164307.23962405766
0.7146159601188489	164539.8151871002
0.7147350627788687	164772.42951273662
0.7148541852893318	165005.0826074272
0.7149733276535467	165194.44888213076
0.7150924898748222	165340.15815575764
0.715211671956468	165485.8917142635
0.7153308739017941	165631.64956169587
0.715450095714111	165777.43170210277
0.71556933739673	165923.23813953306
0.7156885989529628	166069.06887803625
0.7158078803861218	166214.92392166276
0.7159271816995193	166175.32163424292
0.7160465028964692	166026.8465955467
0.7161658439802853	165878.34681101068
0.7162852049542819	165729.82227651062
0.7164045858217744	165581.27298792137
0.716523986586078	165432.6989411174
0.7166434072505089	165284.1001319724
0.716762847818384	165135.47655635915
0.7168823082930204	165191.9177298653
0.7170017886777359	165308.70477415566
0.7171212889758488	165425.51128295335
0.7172408091906781	165542.3372595025
0.7173603493255433	165659.18270704782
0.7174799093837642	165776.04762883432
0.7175994893686615	165892.9320281078
0.7177190892835562	166009.83590811447
0.7178387091317702	166734.6657312712
0.7179583489166254	167520.63975588206
0.7180780086414448	168306.74477616433
0.7181976883095517	169092.98081394992
0.7183173879242699	169879.34789107525
0.718437107488924	170665.84602938028
0.7185568470068389	171452.47525070864
0.7186766064813399	172216.28526548066
0.7187963859157535	172406.41421806486
0.7189161853134061	172596.5748588078
0.719036004677625	172786.76719299093
0.7191558440117378	172976.99122589626
0.7192757033190732	173167.24696280734
0.7193955826029597	173357.5344090077
0.7195154818667269	173547.85356978257
0.7196354011137046	173721.63743909073
0.7197553403472235	173819.17279086285
0.7198752995706147	173916.7243985269
0.7199952787872098	174014.29226479225
0.720115278000341	174111.87639236866
0.7202352972133411	174209.47678396635
0.7203553364295432	174307.09344229582
0.7204753956522815	174404.7263700685
0.7205954748848902	174593.13266448092
0.7207155741307044	174981.65583321874
0.7208356933930594	175370.24375581738
0.7209558326752915	175758.89644306985
0.7210759919807375	176147.61390577073
0.7211961713127342	176536.3961547149
0.7213163706746197	176925.24320070114
0.7214365900697322	177314.155054528
0.7215568295014103	177549.62599382206
0.721677088972994	177601.97797856448
0.7217973684878227	177654.3386886376
0.7219176680492374	177706.7081254958
0.7220379876605789	177759.08629059343
0.722158327325189	177811.4731853853
0.7222786870464099	177863.86881132622
0.7223990668275843	177916.2731698715
0.7225194666720555	178056.53678521037
0.7226398865831676	178259.08564260846
0.7227603265642646	178461.66825814894
0.722880786618692	178664.28463745912
0.7230012667497951	178866.93478616572
0.7231217669609201	179069.61870989713
0.7232422872554135	179272.33641428233
0.7233628276366229	179475.0879049519
0.7234833881078956	179851.34243329114
0.7236039686725803	180293.51924884296
0.7237245693340255	180735.76976053003
0.7238451900955812	181178.09398063653
0.7239658309605971	181620.49192144585
0.7240864919324239	182062.9635952459
0.7242071730144127	182505.50901432495
0.724327874209915	182948.1281909729
0.7244485955222832	182709.20628839647
0.7245693369548704	182357.5453088248
0.7246900985110294	182005.8257190904
0.7248108801941148	181654.04750942346
0.7249316820074803	181302.21067005605
0.7250525039544815	180950.31519121485
0.7251733460384739	180598.36106312711
0.7252942082628137	180247.91605097282
0.7254150906308574	180805.8310959809
0.7255359931459625	181363.83912682984
0.7256569158114868	181921.94015901745
0.7257778586307888	182480.134208044
0.7258988216072273	183038.42128941193
0.7260198047441617	183596.80141862613
0.7261408080449525	184155.27461119613
0.72626183151296	184678.3849815489
0.7263828751515454	184965.957731248
0.7265039389640706	185253.57840973866
0.726625022953898	185541.24702500924
0.7267461271243904	185828.96358504918
0.7268672514789111	186116.7280978489
0.7269883960208241	186404.54057140055
0.7271095607534942	186692.40101369796
0.7272307456802866	186970.40540083812
0.7273519508045666	187221.70294131915
0.7274731761297006	187473.04236472346
0.7275944216590555	187724.4236780317
0.7277156873959987	187975.84688822555
0.7278369733438982	188227.31200228818
0.727958279506122	188478.81902720247
0.7280796058860397	188730.36796995456
0.7282009524870207	188856.2084374453
0.7283223193124353	188796.07103307356
0.7284437063656539	188735.92360580125
0.7285651136500483	188675.76615395758
0.7286865411689898	188615.59867587208
0.7288079889258514	188555.42116987344
0.7289294569240056	188495.23363429058
0.7290509451668262	188435.03606745173
0.7291724536576875	188459.47973887608
0.7292939823999636	188554.0701749443
0.7294155313970303	188648.6763760854
0.7295371006522632	188743.29834492668
0.7296586901690385	188837.936084096
0.7297802999507332	188932.5895962218
0.7299019300007252	189027.25888393322
0.7300235803223919	189121.943949859
0.7301452509191123	189442.1971549212
0.7302669417942654	189866.61181332055
0.7303886529512311	190291.09720749644
0.7305103843933897	190715.65334923813
0.7306321361241218	191140.28025033645
0.7307539081468093	191564.9779225857
0.7308757004648336	191989.74637777946
0.7309975130815778	192414.5856277162
0.7311193460004248	192996.3522636729
0.7312411992247582	193613.72618789232
0.7313630727579622	194231.20300776564
0.7314849666034219	194848.7827404429
0.7316068807645224	195466.4654030752
0.7317288152446498	196084.25101281828
0.7318507700471907	196702.13958682993
0.7319727451755319	197320.13114227034
0.732094740633061	197456.34420177914
0.7322167564231665	197570.88550596923
0.7323387925492371	197685.44590037668
0.7324608490146619	197800.02538818316
0.732582925822831	197914.623972571
0.7327050229771347	198029.24165672273
0.7328271404809642	198143.87844382197
0.7329492783377112	198250.71154377406
0.7330714365507675	198280.65611241426
0.7331936151235259	198310.60567181587
0.7333158140593796	198340.5602228107
0.7334380333617229	198370.51976623072
0.7335602730339499	198400.48430290798
0.7336825330794556	198430.45383367472
0.7338048135016354	198460.42835936317
0.7339271143038857	198609.12017477694
0.734049435489603	199155.60435848494
0.7341717770621846	199702.1796228903
0.7342941390250283	200248.8459831728
0.7344165213815324	200795.60345451513
0.734538924135096	201342.4520521035
0.7346613472891185	201889.39179112407
0.734783790847	202436.422686768
0.7349062548121412	202763.96615106988
0.7350287391879431	202703.45005711375
0.7351512439778078	202642.92387714185
0.7352737691851374	202582.38760947337
0.735396314813335	202521.84125242688
0.7355188808658037	202461.28480432098
0.7356414673459482	202400.71826347362
0.7357640742571725	202340.1416282028
0.7358867016028818	202415.5614031207
0.7360093493864824	202625.31243808157
0.7361320176113801	202835.098431548
0.736254706280982	203044.91938934667
0.7363774153986956	203254.77531730523
0.7365001449679286	203464.66622125136
0.7366228949920899	203674.592107015
0.7367456654745885	203884.55298042626
0.7368684564188344	204147.33756983912
0.7369912678282374	204440.00103015942
0.7371140997062088	204732.71326772324
0.7372369520561599	205025.47429066026
0.7373598248815024	205318.28410710042
0.7374827181856494	205611.14272517717
0.7376056319720137	205904.05015302362
0.7377285662440091	206197.00639877477
0.7378515210050496	206410.5596549786
0.7379744962585505	206600.24386912383
0.738097492007927	206789.95969730473
0.7382205082565949	206979.70714479018
0.738343545007971	207169.4862168502
0.7384666022654723	207359.29691875575
0.7385896800325165	207549.139255778
0.7387127783125219	207739.01323318997
0.7388358971089073	207993.50145290853
0.7389590364250921	208254.50988207205
0.7390821962644963	208515.56181264063
0.7392053766305403	208776.65725186392
0.7393285775266454	209037.79620699395
0.7394517989562333	209298.9786852834
0.7395750409227259	209560.2046939855
0.7396983034295463	209814.54830853955
0.739821586480118	209914.8618060955
0.7399448900778645	210015.1920225675
0.7400682142262109	210115.53896074256
0.740191558928582	210215.9026234072
0.7403149241884034	210316.28301334885
0.7404383100091014	210416.68013335555
0.7405617163941028	210517.0939862155
0.7406851433468352	210582.93333548235
0.7408085908707264	210490.53705735024
0.7409320589692048	210398.12537983852
0.7410555476456997	210305.69830038046
0.7411790569036406	210213.25581640922
0.7413025867464579	210120.7979253573
0.7414261371775823	210028.32462465685
0.7415497082004452	209935.83591173965
0.7416732998184786	209851.2845066196
0.741796912035115	209783.7791653117
0.7419205448537874	209716.26257311358
0.7420441982779297	209648.7347281501
0.742167872310976	209581.1956285457
0.7422915669563612	209513.64527242474
0.7424152822175206	209446.0836579111
0.7425390180978901	209378.51078312844
0.7426627746009065	209440.01633385752
0.7427865517300065	209658.90170865366
0.7429103494886282	209877.82356434583
0.7430341678802096	210096.7819070138
0.7431580069081896	210315.77674273885
0.7432818665760077	210534.8080776035
0.7434057468871037	210753.87591769043
0.7435296478449182	210972.98026908393
0.7436535694528923	211091.75207062555
0.7437775117144678	211141.83796230887
0.7439014746330868	211191.93220164074
0.7440254582121922	211242.03479001255
0.7441494624552276	211292.14572881575
0.7442734873656368	211342.2650194421
0.7443975329468645	211392.3926632836
0.7445215992023557	211442.5286617324
0.7446456861355559	211389.35575283528
0.7447697937499119	211298.11464524624
0.7448939220488703	211206.85833080596
0.7450180710358784	211115.58680698002
0.7451422407143843	211024.30007123342
0.7452664310878367	210932.9981210308
0.7453906421596846	210841.68095383656
0.7455148739333779	210750.34856711442
0.7456391264123667	210614.42683342667
0.7457633996001021	210471.35529002396
0.7458876935000356	210328.25990136378
0.7460120081156189	210185.1406634724
0.7461363434503048	210041.99757237468
0.7462606995075466	209898.83062409496
0.7463850762907978	209755.63981465742
0.7465094738035127	209612.29943584016
0.7466338920491467	209436.0516357982
0.746758331031155	209259.7744611227
0.7468827907529935	209083.46790691832
0.7470072712181189	208907.13196828822
0.7471317724299886	208730.76664033497
0.7472562943920602	208554.37191816053
0.7473808371077922	208377.94779686557
0.7475054005806435	208193.03790936634
0.7476299848140736	207956.00932887275
0.7477545898115426	207718.9412436157
0.7478792155765113	207481.83364701102
0.7480038621124406	207244.6865324738
0.7481285294227926	207007.49989341752
0.7482532175110298	206770.2737232545
0.7483779263806148	206533.00801539677
0.7485026560350116	206271.41399573514
0.7486274064776842	205944.0397374079
0.748752177712097	205616.61091670487
0.7488769697417158	205289.12752453104
0.749001782570006	204961.58955179222
0.7491266162004343	204633.9969893914
0.7492514706364677	204306.34982822998
0.7493763458815739	203978.6480592081
0.7495012419392209	203597.6919911978
0.7496261588128773	203140.1915478103
0.7497510965060128	202682.6148543486
0.7498760550220971	202224.96189810478
0.7500010343646007	201767.23266636822
0.7501260345369949	201309.4271464261
0.750251055542751	200851.54532556457
0.7503760973853414	200393.5871910659
0.7505011600682389	199864.31869662015
0.750626243594917	199275.48320154983
0.7507513479688495	198686.5495672312
0.7508764731935109	198097.5177773067
0.7510016192723765	197508.38781541702
0.7511267862089218	196919.15966520092
0.7512519740066232	196329.8333102929
0.7513771826689577	195740.4087343254
0.7515024121994025	195061.58471485807
0.7516276626014359	194341.0103173302
0.751752933878536	193620.31582407065
0.7518782260341824	192899.50121506202
0.7520035390718548	192178.5664702849
0.7521288729950334	191457.51156971732
0.7522542278071992	190736.33649333293
0.7523796035118337	190015.04122110215
0.7525050001124189	189155.12416568302
0.7526304176124378	188264.9427973692
0.7527558560153731	187374.61306549516
0.752881315324709	186484.13494533158
0.7530067955439299	185593.50841214767
0.7531322966765205	184702.73344120942
0.7532578187259665	183811.81000777573
0.7533833616957542	182920.73808710318
0.75350892558937	181861.03409456718
0.7536345104103016	180793.23090618107
0.7537601161620366	179725.24975059743
0.7538857428480638	178657.09059815353
0.7540113904718717	177588.75341918555
0.7541370590369503	176520.23818402135
0.7542627485467898	175451.54486298395
0.7543884590048808	174365.00343309704
0.7545141904147151	173102.0737375877
0.7546399427797842	171838.93355379777
0.7547657161035808	170575.58284664372
0.754891510389598	169312.02158103854
0.7550173256413296	168048.2497218886
0.7551431618622698	166784.26723409575
0.7552690190559135	165520.07408255522
0.7553948972257561	164198.33288812393
0.7555207963752938	162683.91152605932
0.755646716508023	161169.23776043524
0.755772657627441	159654.311549183
0.7558986197370455	158139.1328502287
0.756024602840335	156623.7016214916
0.7561506069408084	155108.01782088308
0.7562766320419653	153592.08140630642
0.7564026781473054	151961.09486140474
0.75652874526033	150127.8235577599
0.7566548333845401	148294.2467088968
0.7567809425234375	146460.3642638929
0.7569070726805247	144626.17617181587
0.7570332238593047	142791.68238172372
0.7571593960632813	140956.88284266484
0.7572855892959586	139121.77750368265
0.7574118035608413	137203.46794914114
0.7575380388614347	135203.73650076438
0.7576642952012449	133203.67176381216
0.7577905725837782	131203.27368274
0.7579168710125422	129202.54220198406
0.7580431904910444	127201.4772659806
0.7581695310227928	125200.078819157
0.7582958926112967	123198.34680592308
0.7584222752600652	121025.21205240666
0.7585486789726085	118753.44243002549
0.7586751037524372	116481.29417937306
0.7588015496030628	114208.76723734109
0.7589280165279966	111935.86154082327
0.7590545045307512	109662.57702668938
0.7591810136148396	107388.91363180317
0.7593075437837755	105114.87129301447
0.7594340950410726	102690.23242774334
0.7595606673902461	100221.60585987999
0.7596872608348112	97752.56785425286
0.7598138753782836	95283.11834229418
0.75994051102418	92813.25725541454
0.7600671677760173	90342.98452502234
0.7601938456373134	87872.30008250652
0.7603205446115863	85401.20385925168
0.7604472647023548	82786.69848684622
0.7605740059131385	80157.54344902774
0.7607007682474575	77527.9502187004
0.7608275517088319	74897.91872284049
0.7609543563007835	72267.44888839213
0.7610811820268336	69636.54064230627
0.7612080288905045	67005.19391151777
0.7613348968953197	64368.906713447155
0.7614617860448022	61639.810891935485
0.7615886963424764	58910.26022111651
0.7617156277918667	56180.25462518836
0.7618425803964988	53449.79402832532
0.7619695541598982	50718.87835469686
0.7620965490855914	47987.50752845815
0.7622235651771058	45255.68147374524
0.7623506024379685	42596.82402260942
0.7624776608717082	40259.34843182462
0.7626047404818536	37921.483261774585
0.7627318412719337	35583.22844753356
0.762858963245479	33244.583924155355
0.7629861064060198	30905.54962668971
0.7631132707570876	28566.12549017206
0.7632404563022137	26226.311449633755
0.7633676630449308	24066.164573254428
0.7634948909887717	22288.939526436603
0.7636221401372697	20511.418275446624
0.7637494104939593	18733.600770913134
0.7638767020623748	16955.486963464788
0.7640040148460518	15177.076803713177
0.7641313488485262	13398.37024226834
0.7642587040733344	11619.36722972791
0.7643860805240132	10186.162357577707
0.7645134782041005	9165.713273560483
0.7646408971171346	8145.0941146955
0.764768337266654	7124.304852637746
0.7648957986561985	6103.345459035986
