#wavelength	surface flux
0.676892	1285562.6120317706
0.678297	1326482.2101564452
0.679702	1361163.6532610334
0.681109	1394900.7569736312
0.682517	1434478.6410511436
0.683926	1470990.9736742014
0.685337	1504948.1056880353
0.686749	1538271.2992554859
0.688164	1569267.1854134393
0.689581	1596074.0573389374
0.691	1611897.7495101104
0.692422	1633968.2146147746
0.693847	1675048.7654817982
0.695274	1722851.1797801221
0.696705	1763448.2148093309
0.698139	1794165.8115027312
0.699576	1823190.8537428556
0.701017	1850374.028757864
0.702461	1872657.131335103
0.70391	1902993.939504837
0.705362	1932841.0893568187
0.706819	1954956.357193336
0.70828	1976370.6563249438
0.709745	1995986.968975156
0.711216	2018345.2040029357
0.71269	2035583.24491233
0.71417	2048717.800155209
0.715655	2049442.6885221761
0.717145	2040403.1798806353
0.71864	2061048.0970305477
0.72014	2067899.3893814872
0.721647	2067997.0218103067
0.723158	2062345.33836117
0.724676	2046334.3147722215
0.726199	2030405.6314806305
0.727728	2019231.6377073752
0.729264	1985213.6133317335
0.730805	1958119.9802843705
0.732353	1933559.0637021791
0.733907	1889032.5897707795
0.735468	1840468.729717762
0.737035	1780732.630093128
0.738609	1717320.4425733036
0.74019	1641134.3704531488
0.741777	1547291.2705173723
0.743372	1448334.706509561
0.744973	1342438.8630572536
0.746582	1223667.3245857342
0.748197	1096384.1133497688
0.74982	962155.2512776619
0.751451	822915.0435797218
0.753088	682602.7176234209
0.754734	544088.4944586724
0.756386	411979.2272627128
0.758047	291123.752365562
0.759715	187526.94612949694
0.76139	102771.02632239416
0.763074	43492.71057047087
0.764765	12029.433778883795
0.766464	2119.3243045564604
0.768172	2770.7481358897962
0.769887	3191.8526012009333
0.77161	23220.06793135871
0.773341	80286.45268702705
0.775081	177480.86127356626
0.776829	303256.25241479994
0.778585	393946.6699130188
0.780349	481259.5106857206
0.782121	800806.2177550105
0.783902	1085788.435949748
0.785691	1338080.0439802327
0.787489	1591368.9750004539
0.789295	1840390.740827068
0.79111	2043624.718242126
0.792933	1657261.9334272996
0.794764	846755.4658796631
0.796604	2328109.2038162854
0.798453	3054056.1719516357
0.80031	3349909.6839604415
0.802176	3601945.7462531
0.804051	3840216.367280625
0.805934	4064855.874990276
0.807826	4275273.654900485
0.809727	4440525.731928037
0.811636	4607197.468791984
0.813554	4798035.197429183
0.81548	5062545.17483993
0.817416	5132578.266317033
0.81936	5199631.621484095
0.821313	5623263.798600987
0.823274	5801895.427994677
0.825244	6050466.856228426
0.827223	6228355.832563189
0.829211	6369765.233911244
0.831208	6536634.819020211
0.833213	6737634.971833104
0.835227	6894180.752218007
0.837249	7018537.804858304
0.83928	7196010.928137807
0.841321	7446532.286158848
0.843369	7667054.039581711
0.845427	7834981.370861103
0.847493	8012216.050289928
0.849567	7986530.611249027
0.851651	7536804.200366609
0.853742	8088321.378544028
0.855843	8704478.266598491
0.857952	8927236.942545716
0.86007	9024394.28173432
0.862196	8419130.545549378
0.864331	8618388.718370484
0.866474	9006659.169541594
0.868626	9322706.60880559
0.870786	9444841.16607911
0.872955	9632818.627102386
0.875132	9835335.584783094
0.877317	10117458.538817745
0.879511	10090004.782363392
0.881713	10239699.033040049
0.883923	10553752.853666624
0.886142	10754040.69906784
0.888369	10849656.948150193
0.890604	10772356.352855489
0.892847	10281109.211669814
0.895099	10603520.918814715
0.897358	11367573.855197776
0.899626	11762749.184838323
0.901901	12095729.473765366
0.904185	12424985.924570955
0.906476	12570929.923623623
0.908776	12828322.126250407
0.911083	13070477.073086312
0.913398	13097696.001780853
0.915721	13080710.122685827
0.918051	13101705.745117016
0.92039	13612402.101406336
0.922736	13753223.420721428
0.925089	13191974.249305487
0.927451	11735120.322763694
0.929819	10201024.29558523
0.932195	11589460.687482722
0.934579	11638875.191680182
0.93697	12277741.652897868
0.939369	13312572.864926897
0.941774	13551801.445165278
0.944187	12464410.081385579
0.946607	12198950.994377827
0.949035	13370276.48874872
0.951469	13136198.626036672
0.953911	13607245.621332355
0.956359	14903418.430109432
0.958814	13420240.241572889
0.961277	12756487.320360541
0.963746	12986933.336225571
0.966222	13310064.699328328
0.968705	13187865.722018916
0.971194	15246272.928057788
0.97369	16398437.569011848
0.976193	16112540.839401841
0.978702	16770002.105152013
0.981217	17014335.191931043
0.983739	17344681.92498139
0.986268	17596368.73537536
0.988802	18117090.082618173
0.991343	18624551.696967296
0.99389	18778485.301127996
0.996444	19124803.700535078
0.999003	19105617.313356824
1.00157	19205551.870696973
1.00414	19536526.536298096
1.00672	20009311.91504518
1.0093	20371673.108524308
1.01189	20809659.99983062
1.01448	21321045.924374357
1.01708	21616101.94322148
1.01969	21940892.602132484
1.0223	22014714.046298336
1.02492	22018535.80238703
1.02754	22364695.039542552
1.03017	22539185.78733556
1.0328	23207846.91897915
1.03544	23537031.36284966
1.03808	23808687.354940046
1.04073	24038007.462498944
1.04339	24264671.457538314
1.04604	24535713.32295576
1.04871	24723886.165179495
1.05138	24902239.208749447
1.05405	25267963.00419303
1.05673	25566161.928462006
1.05941	25801084.692998525
1.0621	26012155.649563383
1.06479	26222500.767705273
1.06749	26466899.045243315
1.07019	26572466.692419045
1.07289	26872627.43960487
1.0756	27169934.204123214
1.07832	27346968.344466645
1.08104	27625972.040099185
1.08376	27868884.746851042
1.08649	27977373.677284487
1.08922	27701154.458742775
1.09195	27281545.94575764
1.09469	27079544.986909244
1.09743	27297143.23735217
1.10018	23509668.851986483
1.10293	20069515.2906322
1.10568	17918738.38433584
1.10844	22274121.974350967
1.1112	20669328.46141615
1.11396	18703560.45490051
1.11673	18602620.105453365
1.1195	19196043.019618217
1.12228	17270727.50552027
1.12505	21184428.288689326
1.12783	21202464.01182798
1.13062	20796845.017490458
1.13341	14235129.717273068
1.1362	18339786.302056424
1.13899	23484133.360238764
1.14178	22688681.512302957
1.14458	24276218.798043143
1.14738	26318201.081401523
1.15019	21375966.33305469
1.153	14323935.83423464
1.1558	16562809.146372095
1.15862	16971071.39388066
1.16143	17023849.523875047
1.16425	20541724.231932536
1.16707	23872841.065145016
1.16989	21390790.573394902
1.17271	22726081.573941346
1.17554	25358036.57888655
1.17837	27815825.159486435
1.1812	29574321.008957878
1.18403	32036752.874831554
1.18686	31732602.31815697
1.1897	31626443.391734615
1.19253	33836987.6398891
1.19537	34860491.609609626
1.19822	35228753.66284872
1.20106	36014753.92038965
1.2039	35800650.57607874
1.20675	36314730.261044845
1.2096	36495149.67813817
1.21245	36544083.02195544
1.2153	37681314.26884112
1.21815	38225727.43933262
1.221	38641891.9565733
1.22385	39116850.372975655
1.22671	39578877.32378007
1.22957	39899152.5332853
1.23242	40012926.66146941
1.23528	40407251.627253205
1.23814	40814513.6277732
1.241	40908374.00989022
1.24387	41028264.903521575
1.24673	41583026.01312507
1.24959	41383411.198541425
1.25245	40234269.413519196
1.25532	42041657.00646125
1.25818	42759157.387926266
1.26105	42742939.43356871
1.26392	42782221.5105817
1.26678	43018734.66176717
1.26965	43178612.8024173
1.27252	43071194.35161597
1.27538	43609645.53929027
1.27825	43683202.14443975
1.28112	43317419.57223284
1.28399	43798176.419493176
1.28686	43697810.64075341
1.28973	42854773.44838988
1.2926	42444654.13800764
1.29546	43312128.918789476
1.29833	43820537.882759385
1.3012	42634488.8635032
1.30407	42460588.7447342
1.30694	42158069.22968778
1.30981	43235650.029722
1.31267	42505054.84041262
1.31554	43701764.62341267
1.31841	44754415.704713516
1.32128	42710175.445104755
1.32414	39254529.92729478
1.32701	37558995.46746807
1.32987	33253423.34613348
1.33274	20830913.583072696
1.3356	13923083.593664993
1.33847	6041703.499731768
1.34133	2768987.795344585
1.34419	5905285.113719153
1.34705	7974829.320143952
1.34991	5440604.752835025
1.35277	3004099.5913322438
1.35563	3208321.246561242
1.35849	4031274.3309754087
1.36135	2526790.1846109517
1.3642	4517811.678887966
1.36706	4871225.42527898
1.36991	4271233.12244343
1.37277	8643609.188329708
1.37562	13649443.759145144
1.37847	15105863.472263835
1.38132	6976886.707373593
1.38417	1654844.7132789048
1.38701	3037040.0994249345
1.38986	2447370.924238043
1.39271	2732663.1938488344
1.39555	3892082.680358673
1.39839	2564646.8006044882
1.40123	4430688.163421045
1.40407	8069453.051596066
1.40691	10513056.32192407
1.40974	6143388.713300118
1.41258	2301653.238500325
1.41541	4605349.111304703
1.41824	5989294.473766094
1.42107	4073601.477869606
1.4239	2820165.6448105644
1.42673	5405064.514726545
1.42955	7948023.180089253
1.43237	5001811.01728708
1.43519	7120023.644548786
1.43801	5585707.838553101
1.44083	6834638.001602664
1.44365	10085916.442385007
1.44646	10264843.617861552
1.44927	15963911.31775209
1.45208	19039204.386688817
1.45489	15552756.680530684
1.45769	18729938.060575992
1.4605	20548837.122823626
1.4633	20885582.105051994
1.4661	22417861.598582104
1.4689	17841550.69319046
1.47169	18757932.38424611
1.47449	18812538.365003616
1.47728	19646472.92435074
1.48007	19244484.192644507
1.48286	23738154.03228685
1.48564	27471100.695738953
1.48842	26541903.80558247
1.4912	26873859.190804698
1.49398	26508207.817390624
1.49676	25074276.283142064
1.49953	29186408.833161764
1.5023	33014383.531432983
1.50507	33039898.130870283
1.50784	31202265.68993628
1.51061	31435471.10429416
1.51337	33086125.21086003
1.51613	35063580.05265311
1.51888	37698164.50723408
1.52164	42117188.07791762
1.52439	44029815.24324232
1.52714	41932811.05216583
1.52989	41281530.99011261
1.53263	43116420.67449935
1.53538	45434091.84194688
1.53812	45769982.962876625
1.54086	45708731.62636934
1.54359	46518221.94400519
1.54632	48601231.21573776
1.54905	48953596.62771295
1.55178	50125872.22321655
1.5545	50004852.279374026
1.55723	49332328.259631455
1.55995	50589551.01829016
1.56266	51976999.04816815
1.56538	53270697.4578116
1.56809	53922602.87996763
1.5708	53797961.35527554
1.57351	53046288.532107726
1.57621	52991662.989281684
1.57891	52572182.28757844
1.58161	53773192.80245265
1.5843	55498725.47206472
1.587	55996648.1393838
1.58969	55869921.75827452
1.59238	55695529.42126614
1.59506	55203165.61771412
1.59774	54675894.507019654
1.60042	54903950.133634895
1.6031	54781455.1705263
1.60577	54419138.63528315
1.60844	54401160.56413412
1.61111	54444551.3562417
1.61378	53820946.67170246
1.61644	53111969.18407195
1.6191	52310097.987032555
1.62176	51227416.24834676
1.62441	50159324.771281525
1.62707	49178512.804346845
1.62971	47217298.85118457
1.63236	46659811.10183218
1.635	50057584.76980066
1.63764	54488590.71563584
1.64028	55925395.12256715
1.64292	55700873.92202395
1.64555	53908317.94574556
1.64818	50406231.37141089
1.65081	49900193.27217483
1.65343	52450456.8580869
1.65605	53370124.21991122
1.65867	53482360.159659
1.66128	52480784.521362364
1.6639	47723227.65737916
1.66651	38243478.75761153
1.66911	36975102.760440774
1.67172	44926453.85419012
1.67432	50648677.048262864
1.67692	50950774.690730356
1.67951	49109997.19317642
1.68211	49099613.583160445
1.6847	49199852.23462829
1.68728	47625182.16587907
1.68987	46317306.573556066
1.69245	43931694.02540743
1.69503	39226498.12495611
1.6976	36820012.95129781
1.70018	39749882.69448375
1.70275	39615478.499494545
1.70531	40120628.33054202
1.70788	42764393.49280396
1.71044	41948643.961857885
1.713	42872955.91574998
1.71556	44142564.8413189
1.71811	44864818.38272738
1.72066	46219201.657368414
1.72321	45524597.500879906
1.72575	44573101.80553942
1.7283	43432313.635853715
1.73084	41339566.54954594
1.73337	38961751.93592015
1.73591	37321240.84644361
1.73844	36680598.728212304
1.74097	36509527.75731937
1.74349	34479406.40203123
1.74602	31909036.45247352
1.74854	30611738.805108745
1.75105	27992965.607969362
1.75357	24167315.351938438
1.75608	26805783.77602143
1.75859	33737108.52590044
1.7611	37012123.854803175
1.7636	36007815.21716526
1.7661	29708012.826861605
1.7686	24182198.15440229
1.7711	19965347.18383569
1.77359	15656781.355295349
1.77608	10640118.838775871
1.77857	8234160.539417878
1.78105	9657528.0128502
1.78354	11178393.520932034
1.78602	9141507.027232565
1.78849	7349377.86239381
1.79097	8897038.633886253
1.79344	11242857.544418445
1.79591	13209814.196001982
1.79837	15511058.278983347
1.80084	10726276.86159055
1.8033	6417606.233022126
1.80576	3590299.288642524
1.80821	2507111.1125977337
1.81067	5803875.816390268
1.81312	8789521.967867883
1.81557	5391114.762598223
1.81801	3184659.9126088894
1.82046	6061296.819134782
1.8229	8937206.059163397
1.82533	6521465.036533818
1.82777	2900682.2721056747
1.8302	2460486.02889707
1.83263	4088318.133171404
1.83506	5929000.058171835
1.83749	8225927.10774592
1.83991	9606547.182657134
1.84233	8204530.900312198
1.84475	7549440.214384658
1.84716	8100450.218618277
1.84957	9005886.794853784
1.85198	8162993.278535619
1.85439	4581195.276450401
1.8568	3643565.685130921
1.8592	4600603.5443493035
1.8616	3761125.4144718335
1.864	2490533.2603762075
1.86639	2751342.6239902913
1.86878	4072753.285607541
1.87118	5989393.0160640925
1.87356	8068601.15633103
1.87595	9017372.238622429
1.87833	11283154.783455107
1.88071	15367609.618197273
1.88309	14764411.109557258
1.88547	12118815.676212339
1.88784	11780033.965953933
1.89021	11306393.829029217
1.89258	15831738.713430598
1.89494	19102867.735369157
1.89731	13641780.099614903
1.89967	7009819.610379013
1.90203	3593031.437860762
1.90439	3450283.236335208
1.90674	5267255.608377767
1.90909	5789017.58948282
1.91144	4009207.678198657
1.91379	2161727.191266187
1.91613	1922032.3583663001
1.91848	2943286.421690561
1.92082	4130393.509638733
1.92315	3998437.638845628
1.92549	3055107.45242007
1.92782	3430443.146972804
1.93015	4660843.141785361
1.93248	5555690.219200558
1.93481	5616392.952527068
1.93713	4908997.0289884815
1.93945	4633502.8737585535
1.94177	5369310.355574119
1.94409	6033646.89719197
1.94641	6085150.773649497
1.94872	6911360.710931805
1.95103	8072041.1405727025
1.95334	5783605.772292583
1.95564	4434289.091876453
1.95795	5150563.8112921715
1.96025	5441639.609167696
1.96255	5524982.280249259
1.96484	6207306.659862896
1.96714	8029868.26133637
1.96943	10424103.861809393
1.97172	11659603.607833492
1.97401	10684783.99605773
1.97629	11230882.96236744
1.97858	13509205.50304161
1.98086	14876990.545961564
1.98314	16450119.783378923
1.98541	17513728.67070687
1.98769	16435637.530181218
1.98996	13448018.624636568
1.99223	12679450.519050924
1.9945	14347183.871437915
1.99677	13748327.168744877
1.99903	13622937.960658848
2.00129	16100965.300006606
2.00355	19435683.104937546
2.00581	21055986.97162556
2.00806	21244547.134235848
2.01031	24280145.408584688
2.01256	26106283.995500028
2.01481	24383915.537622694
2.01706	21941769.87414827
2.0193	21658790.863060594
2.02154	24280117.293461386
2.02378	27409605.191661462
2.02602	28423060.50546686
2.02825	29414008.688758485
2.03049	30600521.64489813
2.03272	31927439.79990566
2.03494	33150093.016072027
2.03717	33971116.99974724
2.03939	34681409.66766207
2.04162	36341605.896632396
2.04384	37752711.44330341
2.04605	39354833.52101677
2.04827	41017236.48123431
2.05048	41402609.87549874
2.05269	39253301.02806098
2.0549	38537346.38239106
2.05711	39277866.24512638
2.05931	40652299.9512829
2.06151	41812667.08919352
2.06371	42736958.31921046
2.06591	43424921.216973715
2.06811	43833696.09250151
2.0703	43851885.326474406
2.07249	43464673.27641667
2.07468	42786060.06279252
2.07686	42739599.502148785
2.07905	43090165.63484132
2.08123	43497645.30734785
2.08341	43811848.13980262
2.08559	44092225.68569306
2.08776	44289160.58828497
2.08994	44090675.53905651
2.09211	43623598.894538835
2.09428	43154574.96088278
2.09645	43220352.545131564
2.09861	43162854.253229335
2.10077	42970550.7000184
2.10293	42630348.02505511
2.10509	42163230.228776634
2.10725	41740171.893766254
2.1094	42205023.565604165
2.11155	42712979.10425461
2.1137	42847915.19147165
2.11585	42225210.92517886
2.11799	41758712.86475273
2.12013	41630159.59860861
2.12227	41735160.41818718
2.12441	41948719.46453648
2.12655	41996186.22575134
2.12868	41889426.260002494
2.13081	41807010.57358926
2.13294	41736504.73205289
2.13507	41296658.04448138
2.13719	40510148.15355567
2.13931	39854517.44948495
2.14143	39330796.36761801
2.14355	38599765.75758277
2.14567	38109242.18544684
2.14778	37744786.21000788
2.14989	37369128.63368684
2.152	36678640.567256734
2.1541	36819925.83547904
2.15621	37015144.76047815
2.15831	36947474.36355344
2.16041	36002580.01896048
2.16251	35484681.42892808
2.1646	35085821.722457774
2.1667	34768121.46649421
2.16879	34728066.742871255
2.17087	34642447.50211861
2.17296	34445615.59328963
2.17504	34101394.197408326
2.17713	33572471.455917865
2.1792	32884533.543627795
2.18128	32079332.59896204
2.18336	31193488.78290186
2.18543	30258402.49125834
2.1875	29274955.177587546
2.18957	28119651.203831222
2.19163	26264794.338047955
2.1937	23505293.04283328
2.19576	20573926.2784975
2.19782	17783084.712462053
2.19987	16110052.926104585
2.20193	14948199.024260212
2.20398	14218298.231171297
2.20603	13787002.04726195
2.20808	14027974.080595497
2.21012	14724254.824010348
2.21217	15897850.58181177
2.21421	16743928.270002307
2.21625	16985860.925209936
2.21828	16674907.236824999
2.22032	16534756.945801841
2.22235	16345335.137907103
2.22438	15913673.985982627
2.22641	14703752.240265299
2.22843	13409360.528655697
2.23046	12316100.571968267
2.23248	11689681.440576714
2.2345	11549890.754438687
2.23651	11439529.249217028
2.23853	11289329.748666937
2.24054	10525712.008372338
2.24255	9628376.501697782
2.24456	8683061.548322428
2.24657	8773607.206745218
2.24857	9393659.792822605
2.25057	10301319.093078226
2.25257	10672760.703029614
2.25457	10967874.05925754
2.25656	11223100.380320245
2.25856	11496740.613240272
2.26055	11122664.153602932
2.26254	10374202.876389174
2.26453	9318158.485068081
2.26651	8649096.69729159
2.2685	8315004.163250573
2.27048	8655600.40960916
2.27246	9207410.639708944
2.27443	9729644.070473872
2.27641	9782238.693537772
2.27838	9491853.215422366
2.28036	9054288.659213714
2.28233	8676801.997894729
2.28429	8337355.101336748
2.28626	8016077.274699981
2.28823	7701368.714546028
2.29019	7567306.914083224
2.29215	7567500.312040626
2.29411	7802338.755269268
2.29607	8054466.868176259
2.29802	8319941.486502296
2.29998	8650174.11400525
2.30193	9172038.36054206
2.30388	9914835.726368215
2.30583	11142893.988487303
2.30778	12352723.577998498
2.30972	13451648.527645167
2.31167	13362716.909323603
2.31361	12490173.305076422
2.31555	10120265.299505152
2.31749	8027841.442149684
2.31943	6256191.517468711
2.32137	5876609.961733635
2.32331	5656516.516046365
2.32524	5563902.72589118
2.32718	5454237.165455117
2.32911	5426828.686188558
2.33104	5517678.243699272
2.33297	5572082.56266908
2.3349	5604388.440497827
2.33683	5592257.138006612
2.33876	5543954.58969547
2.34068	5467008.3017426
2.34261	5235958.558120359
2.34453	5030252.034342675
2.34646	4850982.198346742
2.34838	5030014.526033776
2.3503	5407985.991878861
2.35223	6188153.879415033
2.35415	6956594.139862791
2.35607	7705333.815211351
2.35799	8214864.051857997
2.35991	8700977.343510276
2.36183	9158828.804996852
2.36375	8962411.458732035
2.36566	8386730.921504325
2.36758	6909310.360283751
2.3695	5575583.513637699
2.37142	4333968.022488352
2.37334	4376630.374953106
2.37526	4493828.980726472
2.37718	4724048.062401466
2.3791	4878319.123140994
2.38101	5047821.401202236
2.38293	5520864.373198764
2.38485	6058625.533243969
2.38677	6662467.3695071675
2.3887	6817843.071720623
2.39062	6870257.805299355
2.39254	6813768.032395321
2.39446	6871935.764094832
2.39639	7004287.657285826
2.39831	7172504.98838417
2.40024	7226613.124230137
2.40216	7063857.751741724
2.40409	7097210.417609163
2.40602	7261615.445292586
2.40795	8025820.109226648
2.40989	8691594.839042699
2.41182	9228659.48057808
2.41376	9498603.214616375
2.4157	9768768.038446799
2.41764	10309806.826655995
2.41958	10606922.893880341
2.42152	10705709.272079641
2.42347	9895177.494996563
2.42542	9177165.196631206
2.42737	8890660.600401785
