#wavelength	surface flux
0.8	23900914.15693383
0.8002000000000001	23953188.373617586
0.8004000500000003	23965709.47666757
0.8006001500125003	23977832.03239947
0.8008003000500035	23989957.61877031
0.8010005001250161	24002086.23653774
0.8012007502500472	24014217.886459596
0.8014010504376099	24049189.610450596
0.8016014007002193	24091819.78846285
0.8018018010503944	24134460.624019604
0.8020022515006572	24177112.119785268
0.8022027520635323	24219774.278424837
0.8024033027515483	24259360.136680376
0.8026039035772362	24295930.785103362
0.8028045545531306	24332510.57618846
0.8030052556917691	24369099.512221344
0.803206007005692	24405697.5954882
0.8034068085074435	24441039.957875773
0.8036076602095705	24472845.53858547
0.8038085621246229	24504659.070690315
0.8040095142651542	24536480.556178205
0.8042105166437206	24568309.99703746
0.8044115692728815	24599637.484654315
0.8046126721651998	24609040.65072675
0.8048138253332411	24618446.1675907
0.8050150287895745	24627854.035833873
0.805216282546772	24637264.256044105
0.8054175866174087	24646676.82880938
0.8056189410140631	24659377.591369785
0.8058203457493168	24673011.634007744
0.8060218008357541	24686649.085156344
0.8062233062859632	24700289.94566774
0.8064248621125346	24713934.216394253
0.806626468328063	24733906.317167226
0.8068281249451449	24759315.321776606
0.8070298319763813	24784730.678637166
0.8072315894343755	24810152.389336925
0.8074333973317341	24835580.455464367
0.8076352556810671	24862120.989990447
0.8078371644949874	24891330.754447084
0.8080391237861113	24920547.82134484
0.8082411335670578	24949772.19250931
0.8084431938504498	24979003.869766597
0.8086453046489125	25008109.023894243
0.8088474659750746	25034729.759949137
0.8090496778415686	25061357.151188076
0.809251940261029	25087991.19927481
0.8094542532460944	25114631.905873585
0.8096566168094059	25141279.272648983
0.8098590309636085	25158454.532560814
0.8100614957213493	25173415.50307531
0.8102640110952797	25188380.213832434
0.8104665770980536	25203348.665767256
0.8106691937423283	25218320.85981507
0.8108718610407639	25237804.011833303
0.8110745790060241	25260738.465323083
0.8112773476507757	25283678.652426258
0.8114801669876885	25306624.574576203
0.8116830370294355	25329576.233206674
0.8118859577886929	25358429.992096785
0.8120889292781401	25399537.96685236
0.8122919515104597	25440656.21860162
0.8124950244983374	25481784.749913823
0.8126981482544621	25522923.563358843
0.8129013227915257	25564181.995881557
0.8131045481222237	25606702.638314083
0.8133078242592543	25649233.91090722
0.8135111512153191	25691775.816318497
0.813714529003123	25734328.357206132
0.8139179576353739	25776891.536228992
0.8141214371247829	25819001.092395853
0.8143249674840641	25861031.147421014
0.814528548725935	25903071.7099599
0.8147321808631167	25945122.782639477
0.8149358639083326	25987184.368087213
0.8151395978743097	26011134.826146036
0.8153433827737784	26022847.529635116
0.8155472186194719	26034563.16130007
0.8157511054241268	26046281.721872937
0.815955043200483	26058003.21208595
0.8161590319612831	26067155.281069264
0.8163630717192736	26071596.117315445
0.8165671624872033	26076038.063770678
0.8167713042778252	26080481.12071253
0.8169754971038948	26084925.28841862
0.8171797409781707	26074037.825252052
0.8173840359134155	25940741.612822443
0.8175883819223938	25807412.07633988
0.8177927790178745	25674049.207473114
0.8179972272126291	25540652.9978891
0.8182017265194322	25407223.439252824
0.8184062769510622	25384094.020055164
0.8186108785203001	25377937.510646857
0.8188155312399301	25371779.46211121
0.8190202351227402	25365619.874063417
0.819224990181521	25359458.74611862
0.8194297964290664	25493885.90054585
0.8196346538781738	25713086.927987214
0.8198395625416434	25932342.755685356
0.8200445224322789	26151653.39734051
0.820249533562887	26371018.866656017
0.8204545959462778	26529723.3503031
0.8206597095952644	26590747.025568992
0.8208648745226633	26651785.95675375
0.8210700907412941	26712840.147671293
0.8212753582639793	26773909.602136504
0.8214806771035456	26830388.348973427
0.8216860472728215	26858502.797878474
0.8218914687846397	26886624.275395747
0.822096941651836	26914752.783282414
0.822302465887249	26942888.32329604
0.8225080415037209	26971030.897194684
0.8227136685140968	27022916.74196075
0.8229193469312254	27077510.116970863
0.8231250767679583	27132117.14032475
0.8233308580371503	27186737.815434445
0.8235366907516598	27241372.14571296
0.8237425749243477	27289821.256466474
0.8239485105680789	27334996.965128127
0.824154497695721	27380183.967716917
0.824360536320145	27425382.267056365
0.8245666264542252	27470591.86597064
0.8247727681108388	27509892.05203442
0.8249789613028664	27540722.48455223
0.8251852060431922	27571560.6246782
0.825391502344703	27602406.47433918
0.8255978502202894	27633260.03546261
0.8258042496828445	27664062.503066767
0.8260107007452654	27694587.07139036
0.8262172034204517	27725119.270856
0.8264237577213068	27755659.10337152
0.8266303636607373	27786206.57084518
0.8268370212516525	27816761.67518569
0.8270437305069654	27837339.16885892
0.8272504914395923	27857141.524557173
0.8274573040624523	27876948.830844358
0.8276641683884679	27896761.088958096
0.8278710844305652	27916578.300136384
0.8280780522016729	27951125.378259666
0.8282850717147234	27992411.82345314
0.8284921429826521	28033708.590257864
0.8286992660183978	28075015.681254324
0.8289064408349024	28116333.099023506
0.8291136674451112	28158264.406972148
0.8293209458619727	28200967.257704105
0.8295282760984382	28243680.784148686
0.829735658167463	28286404.98897493
0.8299430920820048	28329139.874852326
0.8301505778550254	28368994.915478967
0.8303581154994891	28397322.972281247
0.8305657050283641	28425658.11109776
0.8307733464546212	28454000.33369895
0.8309810397912352	28482349.64185584
0.8311887850511829	28510706.037339713
0.8313965822474458	28560875.392965615
0.8316044313930077	28612069.41675308
0.8318123325008561	28663276.23904654
0.8320202855839813	28714495.86304555
0.8322282906553774	28765728.29195056
0.8324363477280413	28810440.364049483
0.8326444568149735	28852533.38502046
0.8328526179291771	28894636.92924663
0.8330608310836596	28936750.999358922
0.8332690962914304	28978875.597988684
0.8334774135655034	29011244.99892216
0.833685782918895	29032713.852385525
0.8338942043646247	29054188.073062237
0.834102677915716	29075667.66229414
0.834311203585195	29097152.62142333
0.8345197813860912	29126827.23314314
0.8347284113314379	29184058.319904454
0.8349370934342709	29241303.71443743
0.8351458277076294	29298563.420318965
0.8353546141645565	29355837.44112707
0.8355634528180977	29413125.78044035
0.8357723436813022	29395921.446343925
0.8359812867672226	29377792.83961437
0.8361902820889144	29359659.700733136
0.8363993296594368	29341522.02856718
0.8366084294918518	29323379.821983173
0.8368175815992247	29332653.668883093
0.8370267859946247	29351373.766749647
0.8372360426911234	29370098.544640657
0.8374453517017962	29388828.00372614
0.8376547130397217	29407562.145176392
0.8378641267179816	29438879.662960418
0.8380735927496613	29482686.343221977
0.8382831111478488	29526503.975153577
0.8384926819256358	29570332.561493132
0.8387023050961173	29614172.104979314
0.8389119806723914	29651079.28316894
0.8391217086675596	29668454.902287077
0.8393314890947265	29685834.865309983
0.8395413219670003	29703219.173323642
0.8397512072974922	29720607.82741432
0.8399611450993165	29738337.753419843
0.8401711353855914	29772803.674648337
0.8403811781694378	29807278.21235713
0.8405912734639802	29841761.36870036
0.8408014212823464	29876253.145832688
0.8410116216376671	29910753.545909297
0.8412218745430766	29942551.752154797
0.8414321800117124	29973569.16424977
0.8416425380567154	30004594.330697786
0.8418529486912297	30035627.25343742
0.8420634119284025	30066667.934407707
0.8422739277813847	30122487.10403917
0.8424844962633302	30200144.201460265
0.842695117387396	30277820.713155616
0.8429057911667428	30355516.643978897
0.8431165176145345	30433231.99878492
0.8433272967439382	30490961.58641612
0.8435381285681244	30499907.385923386
0.8437490131002665	30508855.42188053
0.8439599503535415	30517805.694846652
0.84417094034113	30526758.205381025
0.8443819830762154	30534576.14093728
0.8445930785719846	30519494.833779003
0.8448042268416277	30504409.75629395
0.8450154278983382	30489320.907539524
0.8452266817553128	30474228.28657291
0.8454379884257517	30459131.892451055
0.8456493479228583	30498099.728289362
0.845860760259839	30550097.531277403
0.846072225449904	30602108.333716188
0.8462837435062666	30654132.138855595
0.8464953144421433	30706168.949946314
0.8467069382707537	30751558.931258157
0.8469186150053215	30791769.120114766
0.847130344659073	30831989.361518603
0.8473421272452377	30872219.657982748
0.8475539627770492	30912460.012021054
0.8477658512677435	30948775.839612186
0.8479777927305605	30976746.169766337
0.8481897871787432	31004723.492503017
0.848401834625538	31032707.809570402
0.8486139350841944	31060699.122717034
0.8488260885679657	31087888.163723648
0.8490382950901076	31105219.288368516
0.8492505546638802	31122554.745794553
0.8494628673025462	31139894.537084945
0.8496752330193721	31157238.66332318
0.8498876518276269	31174587.125592954
0.8501001237405839	31203549.7714829
0.8503126487715191	31234837.187298514
0.850525226933712	31266132.42496806
0.8507378582404455	31297435.486447025
0.8509505427050057	31328746.37369138
0.8511632803406821	31380121.59763173
0.8513760711607672	31445244.701341994
0.8515889151785576	31510384.08582829
0.8518018124073523	31575539.755160652
0.8520147628604541	31640711.713410307
0.8522277665511693	31706432.051759224
0.8524408234928071	31773152.850984935
0.8526539336986805	31839890.330410473
0.8528670971821053	31906644.494205866
0.8530803139564007	31973415.346542135
0.8532935840348901	32036948.577258844
0.8535069074308987	32073013.343785297
0.8537202841577566	32109087.12650341
0.8539337142287962	32145169.927667208
0.8541471976573534	32181261.749531277
0.8543607344567677	32217362.594350815
0.8545743246403821	32244126.86926518
0.8547879682215422	32269413.64792897
0.8550016652135977	32294706.74828742
0.8552154156299011	32320006.171920963
0.8554292194838088	32345311.920410432
0.8556430767886797	32359573.025930453
0.855856987557877	32367127.83997659
0.8560709518047664	32374684.542726234
0.8562849695427177	32382243.134651564
0.8564990407851035	32389803.61622488
0.8567131655452999	32404295.08651023
0.8569273438366862	32430143.73894938
0.8571415756726455	32455998.85355164
0.8573558610665638	32481860.431932565
0.8575702000318304	32507728.475708056
0.8577845925818384	32546441.1431614
0.857999038729984	32665355.34494012
0.8582135384896665	32784299.275269255
0.858428091874289	32903272.94158098
0.8586426988972576	33022276.35130925
0.8588573595719821	33141309.511889994
0.8590720739118751	33138474.437858745
0.8592868419303532	33121266.5174659
0.8595016636408359	33104054.29509295
0.8597165390567462	33086837.769664418
0.8599314681915105	33069616.940104526
0.8601464510585584	33047393.301363297
0.860361487671323	33022510.93569587
0.8605765780432408	32997622.349437032
0.8607917221877518	32972727.54103161
0.8610069201182988	32947826.50892409
0.8612221718483286	32774265.952334307
0.8614374773912907	32386358.15750686
0.8616528367606385	31998353.385730814
0.8618682499698288	31610251.612761576
0.8620837170323213	31222052.81434916
0.8622992379615795	30890388.14816482
0.8625148127710699	30838886.58871605
0.8627304414742627	30787372.15387741
0.8629461240846313	30735844.840430055
0.8631618606156526	30684304.645154335
0.8633776510808066	30632751.564829804
0.8635934954935769	31077198.337455064
0.8638093938674504	31562415.283277687
0.8640253462159173	32047753.533336755
0.8642413525524714	32533213.117958322
0.8644574128906095	33018794.067475945
0.8646735272438323	33045246.62590357
0.8648896956256433	32858141.921621084
0.8651059180495498	32670990.44116252
0.8653221945290621	32483792.17283402
0.8655385250776946	32296547.104938176
0.8657549097089641	32256567.202257376
0.8659713484363913	32405169.017407574
0.8661878412735006	32553807.983011622
0.866404388233819	32702484.108357057
0.8666209893308775	32851197.402733754
0.8668376445782103	32974412.792431425
0.8670543539893549	32993437.349601187
0.8672711175778525	33012466.662910253
0.8674879353572469	33031500.733547624
0.8677048073410862	33050539.562702667
0.8679217335429217	33069583.151565004
0.8681387139763074	33064283.51668169
0.8683557486548015	33057773.01104456
0.8685728375919655	33051260.877781007
0.8687899808013633	33044747.116484158
0.8690071782965637	33038231.726746973
0.869224430091138	32999634.35342656
0.8694417361986609	32947973.87497503
0.8696590966327107	32896300.4814039
0.869876511406869	32844614.169484373
0.8700939805347206	32792914.93598689
0.8703115040298544	32755928.32771369
0.870529081905862	32735768.03641871
0.8707467141763385	32715602.70505091
0.8709644008548827	32695432.332350273
0.8711821419550964	32675256.91705647
0.8713999374905854	32683997.08681429
0.871617787474958	32792554.566299777
0.8718356919218269	32901139.185155235
0.8720536508448075	33009750.950165413
0.8722716642575187	33118389.868116777
0.8724897321735832	33227055.94579768
0.8727078546066265	33297725.518941842
0.8729260315702784	33367834.294710215
0.873144263078171	33437960.59767245
0.8733625491439405	33508104.432210438
0.8735808897812266	33578265.80270708
0.8737992850036719	33591085.41568969
0.874017734824923	33583592.51342055
0.8742362392586293	33576097.73792584
0.874454798318444	33568601.088737264
0.8746734120180236	33561102.56538639
0.8748920803710283	33567832.52287559
0.875110803391121	33588864.31413841
0.8753295810919689	33609901.36334906
0.875548413487242	33630943.67182201
0.8757673005906139	33651991.240872085
0.8759862424157616	33706526.78336117
0.8762052389763657	33857959.76573646
0.8764242902861098	34009430.60635725
0.8766433963586814	34160939.31468822
0.8768625572077712	34312485.90019633
0.8770817728470732	34463227.04189593
0.8773010432902849	34548160.754886106
0.8775203685511077	34633115.70130465
0.8777397486432454	34718091.88645969
0.8779591835804065	34803089.315661125
0.8781786733763015	34888107.99421974
0.8783982180446457	34777365.98128564
0.878617817599157	34608354.813309915
0.8788374720535569	34439301.39254227
0.8790571814215703	34270205.70841949
0.8792769457169257	34101067.75037566
0.879496764953355	34003806.608245246
0.8797166391445934	33971181.14582301
0.8799365683043796	33938547.52703517
0.8801565524464557	33905905.74984263
0.8803765915845676	33873255.81220576
0.8805966857324639	33907132.74478045
0.880816834903897	34108134.20233461
0.881037039112623	34309185.91025326
0.8812572983724012	34510287.88109885
0.8814776126969944	34711440.12743725
0.8816979821001687	34905236.44070581
0.8819184065956938	34924737.51101336
0.8821388861973429	34944243.45658849
0.8823594209188923	34963754.27865001
0.882580010774122	34983269.97841703
0.8828006557768155	35002790.557109006
0.8830213559407598	35122865.41320601
0.8832421112797452	35268259.48207652
0.8834629218075651	35413689.89946415
0.8836837875380171	35559156.67445618
0.8839047084849018	35704659.81614198
0.884125684662023	35667302.00980297
0.8843467160831886	35483366.01765484
0.8845678027622095	35299384.041508675
0.8847889447129001	35115356.06986843
0.8850101419490785	34931282.09123532
0.8852313944845657	34898516.96682689
0.885452702333187	35197040.90374363
0.8856740655087704	35495639.47164456
0.8858954840251476	35794312.689187385
0.8861169578961539	36093060.575034454
0.886338487135628	36357773.27025757
0.886560071757412	36168638.12570373
0.8867817117753515	35979455.69736376
0.8870034072032955	35790225.97341661
0.8872251580550963	35600948.94203871
0.8874469643446101	35411624.591402836
0.8876688260856963	35462089.40802647
0.8878907432922178	35562204.077871434
0.8881127159780409	35662343.77638379
0.8883347441570356	35762508.509820886
0.8885568278430749	35862698.28444125
0.8887789670500358	35892429.143042594
0.8890011617917983	35872167.96830979
0.8892234120822464	35851901.72828329
0.8894457179352669	35831630.42169681
0.8896680793647509	35811354.047283664
0.8898904963845921	35816181.37751883
0.8901129690086883	35868918.115821764
0.8903354972509405	35921668.038309254
0.8905580811252535	35974431.1482774
0.8907807206455347	36027207.44902298
0.8910034158256963	36073768.818835534
0.8912261666796527	36064681.30083043
0.8914489732213227	36055591.510945834
0.8916718354646282	36046499.44861375
0.8918947534234944	36037405.113266096
0.8921177271118502	36028308.504334606
0.8923407565436284	36098226.220692165
0.8925638417327644	36181051.17241014
0.8927869826931977	36263896.83036606
0.8930101794388711	36346763.19973647
0.8932334319837308	36429650.28569921
0.8934567403417267	36525686.251091674
0.8936801045268123	36629903.830078594
0.8939035245529441	36734147.463460185
0.8941270004340824	36838417.15775016
0.894350532184191	36942712.91946369
0.8945741198172371	37031680.34090226
0.8947977633471915	37095206.53975169
0.8950214627880284	37158748.62015083
0.8952452181537254	37222306.58607003
0.8954690294582639	37285880.44148075
0.8956928967156286	37341234.15847321
0.8959168199398075	37343152.80088813
0.8961407991447926	37345071.92296366
0.8963648343445789	37346991.524819694
0.896588925553165	37348911.6065762
0.8968130727845534	37350832.16835315
0.8970372760527496	37439041.33899535
0.8972615353717629	37538068.944517165
0.8974858507556059	37637121.30694037
0.8977102222182949	37736198.432454154
0.8979346497738496	37835300.32724938
0.8981591334362931	37914653.532116994
0.8983836732196523	37983212.93200227
0.8986082691379572	38051789.471737474
0.8988329212052417	38120383.15560761
0.8990576294355432	38188993.98789877
0.8992823938429022	38191377.62470032
0.8995072144413631	38095264.93000824
0.8997320912449734	37999128.20714252
0.8999570242677847	37902967.4500961
0.9001820135238516	37806782.65286042
0.9004070590272328	37734987.41006182
0.9006321607919896	37791158.642011106
0.9008573188321878	37847343.91676843
0.9010825331618959	37903543.23784442
0.9013078037951865	37959756.60875069
0.9015331307461353	38015984.03299966
0.9017585140288219	38096220.92448173
0.9019839536573292	38178544.66207848
0.9022094496457435	38260888.98060957
0.9024350020081551	38343253.885220386
0.9026606107586572	38425639.38105733
0.902886275911347	38506588.37718422
0.9031119974803249	38586855.188824385
0.9033377754796951	38667142.06716747
0.903563609923565	38747449.0172301
0.903789500826046	38827776.0440303
0.9040154482012526	38879933.334578894
0.904241452063303	38895586.21660598
0.9044675124263188	38911243.011853576
0.9046936293044254	38926903.721299976
0.9049198027117517	38942568.345923744
0.9051460326624297	38959299.27356019
0.9053723191705955	38980558.27431303
0.9055986622503881	39001822.58981604
0.9058250619159507	39023092.22139793
0.9060515181814298	39044367.17038773
0.9062780310609752	39065647.438114755
0.9065046005687405	39112023.280526444
0.906731226718883	39159810.42802411
0.9069579095255627	39207609.522308595
0.907184649002944	39255420.56636665
0.907411445165195	39303243.563185774
0.9076382980264862	39269507.250915185
0.907865207600993	39201886.10935603
0.9080921739028933	39134248.0625115
0.9083191969463691	39066593.10615528
0.9085462767456058	38998921.23605993
0.9087734133147922	39054870.06767294
0.9090006066681211	39253635.86973697
0.909227856819788	39452451.363251254
0.9094551637839932	39651316.56063919
0.9096825275749393	39850231.47432641
0.9099099482068329	39997020.45256205
0.9101374256938848	39958412.91284113
0.9103649600503083	39919795.72123528
0.9105925512903209	39881168.87533155
0.9108201994281437	39842532.3727163
0.9110479044780008	39803886.210975446
0.9112756664541204	39856230.50194151
0.911503485370734	39910670.85555252
0.9117313612420768	39965124.81925193
0.9119592940823873	40019592.39644226
0.912187283905908	40074073.59052689
0.9124153307268845	40088442.31847609
0.9126434345595664	40088251.21466448
0.9128715954182063	40088060.06307692
0.9130998133170609	40087868.863701455
0.9133280882703902	40087677.61652616
0.913556420292458	40107044.151743956
0.9137848093975312	40146585.807665005
0.9140132555998806	40186137.34900003
0.9142417589137806	40225698.778220385
