#wavelength	surface flux
0.428837	553.3828083494838
0.43312537	1078.818548798478
0.43745662370000005	1264.4977084863121
0.4418311899370001	1481.3637977941412
0.44624950183637	1731.4826846244036
0.4507119968547338	2014.6422449648217
0.45521911682328114	2341.8142659392647
0.4597713079915139	2728.7356097925253
0.4643690210714291	3163.8687660841356
0.4690127112821433	3658.3139571241804
0.47370283839496474	4222.243006066473
0.47843986677891437	4843.997511174339
0.48322426544670355	5567.940603201545
0.48805650810117057	6402.2735230601265
0.4929370731821824	7317.753443883117
0.49786644391400414	8322.013138190641
0.5028451083531442	9429.792770073549
0.5078735594366757	10593.608506479264
0.5129522950310424	11659.949408718945
0.5180818179813528	12674.565779163475
0.5232626361611664	14892.896651450399
0.5284952625227781	16502.336957947085
0.5337802151480058	17941.886327144563
0.5391180172994858	19220.203907765306
0.5445091974724807	20089.39420754982
0.5499542894472055	20267.897612829594
0.5554538323416777	19357.528314564166
0.5610083706650945	16923.56018980744
0.5666184543717453	12671.79927643952
0.5722846389154628	7267.527721826205
0.5780074853046174	2535.882114229801
0.5837875601576636	328.8036449438077
0.5896254357592402	9.337787523875361
0.5955216901168326	652.0062602768896
0.6014769070180009	4791.678949465372
0.607491676088181	14848.213179728884
0.6135665928490629	30112.310771576813
0.6197022587775535	48550.70168274137
0.625899281365329	68594.32580782186
0.6321582741789823	89468.81472491269
0.6384798569207721	111147.06924526813
0.6448646554899798	133184.74062704717
0.6513133020448797	156515.61459808357
0.6578264350653285	180190.64379342573
0.6644046994159818	205166.31888801884
0.6710487464101416	181706.4283273034
0.677759233874243	260720.4253673059
0.6845368262129854	291416.10992022976
0.6913821944751153	318564.9703985838
0.6982960164198664	354080.89204438083
0.7052789765840651	387229.4056679586
0.7123317663499058	419993.257997417
0.7194550840134049	443244.15326903906
0.7266496348535388	463354.7777309357
0.7339161312020743	479222.9574940689
0.741255292514095	470518.3580412031
0.748667845439236	403195.3289198925
0.7561545238936284	230634.20808236318
0.7637160691325647	26269.964926431076
0.7713532298238903	19891.399915245423
0.7790667621221293	246158.83200506988
0.7868574297433505	607764.9571165597
0.7947260040407841	507590.8612134688
0.8026732640811919	1032089.3109179701
0.8106999967220039	1153610.245163749
0.8188069966892239	1310344.9561224724
0.8269950666561161	1448776.5515321742
0.8352650173226772	1567141.3161416661
0.8436176674959041	1733509.8146130426
0.852053844170863	1850871.3577942315
0.8605743826125718	2031387.9281879533
0.8691801264386976	2181090.156977779
0.8778719277030844	2327570.5661709625
0.8866506469801153	2450037.602028069
0.8955171534499164	2467998.7303238646
0.9044723249844157	2831908.4810031294
0.9135170482342599	3000024.4293276207
0.9226522187166025	3130935.7005436383
0.9318787409037684	2320751.1037730235
0.941197528312806	2943353.80966188
0.9506095035959342	2849432.523229491
0.9601155986318936	2863076.5917320433
0.9697167546182125	3202797.7550937356
0.9794139221643946	3998847.536032795
0.9892080613860387	4487364.586550938
0.9991001419998989	4929101.6910706945
1.0090911434198981	5302224.098194221
1.019182054854097	5715923.198388499
1.0293738754026378	5854930.56036526
1.0396676141566643	6376652.799456082
1.050064290298231	6652947.452583443
1.0605649332012133	7034470.086509016
1.0711705825332256	7316462.3988427725
1.0818822883585577	7678040.336798507
1.0927011112421434	7631112.404421439
1.1036281223545648	5067466.287487573
1.1146644035781104	4549464.222320283
1.1258110476138916	4901030.967115505
1.1370691580900303	5115004.396272844
1.1484398496709307	6199486.994717955
1.1599242481676402	3776169.4632580504
1.1715234906493166	6125187.463007386
1.1832387255558097	9336843.464088816
1.1950711128113678	10740708.467110625
1.2070218239394814	11416326.876309495
1.2190920421788762	12203055.366866548
1.2312829626006652	12859883.38992618
1.2435957922266716	13431215.384257153
1.2560317501489384	13880473.78540286
1.2685920676504279	14208427.8478355
1.281277988326932	14460097.745965865
1.2940907682102014	14206891.069345396
1.3070316758923035	13974730.194908557
1.3201019926512265	14499550.183153702
1.3333030125777388	6377363.101197254
1.3466360427035162	1530756.5002940418
1.3601024031305513	522542.81689990085
1.373703427161857	2266391.0049956953
1.3874404614334754	373872.3579069756
1.4013148660478103	1109318.0094505853
1.4153280147082883	877299.33514827
1.4294812948553712	1337543.9595562152
1.443776107803925	2451155.5654814704
1.4582138688819641	6206110.866878011
1.4727960075707838	5916535.706077536
1.4875239676464918	9717093.10257049
1.5023992073229566	11530893.304344865
1.5174231993961862	14299559.58770547
1.532597431390148	17544079.795985017
1.5479234057040496	19721935.807551272
1.5634026397610903	20976506.849765908
1.579036666158701	20389060.2321136
1.594827032820288	22546166.79903071
1.610775303148491	21680549.943199966
1.6268830561799759	18219798.15535752
1.6431518867417756	22104142.31557631
1.6595834056091934	20826648.445783988
1.6761792396652853	19089757.815064404
1.6929410320619382	15207125.825110568
1.7098704423825577	15519671.682167916
1.7269691468063835	17818976.451641936
1.744238838274447	13678864.688800218
1.7616812266571917	14265613.517277587
1.7792980389237634	3096279.887155384
1.7970910193130012	4658638.481007151
1.815061929506131	1595010.730796823
1.8332125488011928	1134491.0971106798
1.8515446742892046	2134086.94482629
1.8700601210320964	1190705.224164492
1.8887607222424174	4859050.522879076
1.9076483294648416	841990.4636402158
1.92672481275949	797295.8725103606
1.9459920608870853	2009820.2650471202
1.9654519814959561	2512562.0032736706
1.9851065013109155	7099689.423039264
2.0049575663240247	9673492.985522393
2.025007141987265	14512986.450968385
2.0452572134071376	22094738.88475988
2.065709785541209	25105438.395434096
2.086366883396621	25875739.34112606
2.107230552230587	24817919.2962589
2.1283028577528933	23998826.598744404
2.1495858863304225	20197878.750709504
2.1710817451937263	18385266.13068967
2.1927925626456637	10889921.776334431
2.2147204882721203	5882596.643273749
2.2368676931548412	2946581.270123656
2.25923637008639	2812327.684084958
2.281828733787254	2233406.319265768
2.3046470211251266	3128368.7909952095
2.327693491336378	1355267.0688273446
2.3509704262497415	1383230.6101510983
2.374480130512239	1076060.6534037704
2.3982249318173614	1868194.4038239666
2.4222071811355352	3378337.493772458
2.4464292529468903	3189485.776772142
2.4708935454763594	2203321.4171023583
2.4956024809311232	1083823.8625328431
2.5205585057404343	460827.09163885517
2.5457640907978387	857585.3208297767
2.5712217317058172	288712.0190145943
2.5969339490228753	222356.4622222138
2.622903288513104	693283.0909211294
2.6491323213982354	1080860.8009778254
2.6756236446122177	103641.60186952472
2.7023798810583397	510308.52768921555
2.729403679868923	1434715.8067828435
2.7566977166676123	574357.5923734916
2.7842646938342885	446330.3390724951
2.812107340772631	544236.9537193383
2.8402284141803578	1201605.0366060352
2.8686306983221614	753905.7506965077
2.897317005305383	1035466.7631524196
2.926290175358437	2475952.8899601526
2.9555530771120213	2795735.720049839
2.9851086078831415	2891328.940751108
3.014959693961973	3589793.1144933095
3.0451092909015927	3177023.933429716
3.0755603838106085	3147546.4462988623
3.1063159876487147	2018714.9601198721
3.137379147525202	1368867.742982242
3.168752939000454	935703.0048055459
3.200440468390459	738234.4459461769
3.232444873074363	495255.7335561348
3.264769321805107	1434188.607686437
3.297417015023158	1490352.7549640273
3.330391185173389	268056.89959879254
3.3636950970251234	1096496.2601352888
3.397332047995375	898121.2364015011
3.4313053684753285	678696.5542947435
3.465618422160081	773951.4153167326
3.5002746063816828	1133428.3335010454
3.5352773524454997	1515480.4594334986
3.570630125969955	2067722.5593360306
3.606336427229654	2820022.354364831
3.6423997915019504	3904667.304816304
3.67882378941697	5316404.497122206
3.7156120273111397	6067172.456735536
3.7527681475842516	7510227.81016995
3.7902958290600934	7635439.782151469
3.8281987873506953	9707537.806566736
3.8664807752242023	9860371.963860814
3.905145582976444	10231627.522364005
3.9441970388062084	11116674.779206606
3.983639009194271	11279024.977418069
4.023475399286213	11768553.356641363
4.063710153279075	11898888.945279382
4.1043472548118665	11689180.396264095
4.145390727359985	11040228.081398223
4.186844634633585	10452276.052313736
4.2287130809799205	9593234.946571598
4.27100021178972	8815188.654898807
4.313710213907617	8625594.99621727
4.356847316046694	7274411.510164879
4.40041578920716	6065191.3753433125
4.444419947099232	5211593.107141002
4.488864146570225	4672676.400940869
4.533752788035927	4169000.122363979
4.579090315916286	4356479.545862888
4.624881219075449	4224847.238741636
4.671130031266204	4447946.238893831
4.717841331578866	3894470.103974684
4.765019744894654	3939237.452901436
4.812669942343601	3891722.5846610763
4.8607966417670365	4175319.198912128
4.9094046081847065	3751459.095533527
4.958498654266554	2328786.577265567
5.008083640809219	2906935.5559015814
5.058164477217312	3748742.292848455
5.108746121989485	2969104.644876056
5.15983358320938	2064493.3333382248
5.211431919041474	1480678.6268741644
5.263546238231889	2006586.0989663734
5.316181700614208	2477944.672170503
5.36934351762035	1239675.6571777842
5.423036952796553	887262.422691992
5.4772673223245185	983405.7686462346
5.532039995547764	1103031.5970481283
5.587360395503242	778749.5346514785
5.643233999458275	623664.2609725054
5.6996663394528575	585644.555726672
5.756663002847385	567323.0302523202
5.814229632875859	664061.4002406021
5.872371929204618	481758.0599319458
5.931095648496664	576239.4230703078
5.990406604981631	775658.0890792069
6.050310671031448	618978.0457161035
6.110813777741763	849115.9404625684
6.17192191551918	671437.0877977737
6.233641134674372	1694779.3128527836
6.295977546021115	1846589.8424477822
6.358937321481327	1141825.4100027746
6.42252669469614	379729.045020703
6.486751961643101	338751.5044627439
6.551619481259532	413842.06540971453
6.617135676072128	349200.2800979274
6.683307032832849	581264.4695400647
6.750140103161177	692261.8657903204
6.81764150419279	678736.3416018253
6.885817919234718	498753.2651647174
6.954676098427065	688167.958394403
7.024222859411336	427619.4497123298
7.094465088005449	640388.0655489928
7.165409738885503	445047.8589484599
7.237063836274358	478027.58930267283
7.309434474637103	403104.61881106434
7.382528819383473	353572.06753350905
7.456354107577308	337290.53449811647
7.530917648653081	460785.2444197221
7.606226825139612	481123.16399224155
7.682289093391009	266619.70214396075
7.759111984324918	388181.5003464451
7.836703104168168	428242.37035783415
7.91507013520985	404229.9874894584
7.994220836561947	471767.79852686235
8.074163044927568	465861.0970530828
8.154904675376844	496296.29068222234
8.23645372213061	563196.7790073764
8.318818259351918	620211.5673117246
8.402006441945437	643519.9615455575
8.486026506364892	771692.2062850529
8.57088677142854	826141.1601919101
8.656595639142825	905325.0150613998
8.743161595534254	971020.1734285989
8.830593211489598	1056564.7922240563
8.918899143604493	1039078.3753572805
9.00808813504054	1066913.1265302938
9.098169016390944	1161971.9844668123
9.189150706554853	1199623.364645997
9.281042213620402	1173456.851316923
9.373852635756606	1046261.5621027634
9.467591162114172	1162406.3010804057
9.562267073735315	1291499.2911392942
9.657889744472667	1090621.7392729581
9.754468641917395	1251394.504800451
9.852013328336568	961381.6722009624
9.950533461619933	1187652.10559503
10.050038796236134	1093384.934034231
10.150539184198495	1141451.212902184
10.252044576040479	991475.0620311359
10.354565021800884	725225.5343526225
10.458110672018893	783224.6052409543
10.562691778739081	887970.1913091816
10.668318696526473	857502.4737617944
10.775001883491738	816708.837523958
10.882751902326655	735633.4391184404
10.991579421349924	546818.3022218224
11.101495215563421	777698.1114080057
11.212510167719055	641890.998404812
11.324635269396246	662580.3272634051
11.43788162209021	713798.9325785162
11.552260438311112	474010.6412002342
11.667783042694223	520234.06330183445
11.784460873121166	495712.3170574269
11.902305481852377	558285.434108728
12.0213285366709	567817.6657257334
12.14154182203761	594243.464085879
12.262957240257986	427366.28339691745
12.385586812660566	347384.7466269326
12.509442680787172	352154.9624823384
12.634537107595044	421665.6565349946
12.760882478670995	391968.8574216338
12.888491303457704	378458.0917436307
13.01737621649228	309570.8075837751
13.147549978657205	329884.91197488346
13.279025478443776	244793.66949207766
13.411815733228213	238783.7442304674
13.545933890560496	297683.1356832685
13.681393229466101	254510.84393604664
13.818207161760762	275476.1307623939
13.956389233378369	251298.56183381716
14.095953125712155	265688.96107647417
14.236912656969274	229678.37581825606
14.379281783538968	172993.85077728156
14.523074601374358	164057.26118817044
14.6683053473881	213105.46705382058
14.814988400861985	191203.97812584662
14.963138284870602	170446.34077504108
15.11276966771931	190304.75130824983
15.263897364396504	210127.0663797983
15.41653633804047	160274.28634569034
15.570701701420873	122319.87560827984
15.726408718435081	108580.31829857104
15.883672805619431	191385.44094268125
16.042509533675627	133103.57950850503
16.202934629012383	123258.21633044245
16.36496397530251	117248.61356274724
16.528613615055534	111718.68971636226
16.69389975120609	94924.64264615285
16.86083874871815	91464.95261675646
17.02944713620533	110575.31625773705
17.199741607567383	79807.57154917906
17.37173902364306	72792.51373410357
17.54545641387949	80511.7730849758
17.720910978018285	76450.67481129899
17.898120087798468	71973.3431397484
18.077101288676452	76421.99166135136
18.257872301563214	68488.56705182593
18.44045102457885	69245.07257741585
18.62485553482464	59521.570085018735
18.811104090172883	93176.6825329971
18.999215131074614	52461.41546753739
19.189207282385357	54576.222339714186
19.381099355209216	43551.41478711588
19.574910348761303	45868.18095015462
19.77065945224892	49042.92175766745
19.968366046771408	61343.27319321796
20.16804970723912	51746.355393390986
20.369730204311512	41873.306311065855
20.573427506354626	36960.70372462671
20.779161781418175	43639.914504880886
20.98695339923236	33539.29505564816
21.19682293322468	33114.0099775499
21.408791162556927	44115.739119176236
21.622879074182496	30522.850389225023
21.839107864924323	27608.316081060748
22.057498943573567	28621.473876179043
22.278073933009303	31927.291218671176
22.500854672339393	24095.056962614246
22.72586321906279	43667.36512148758
22.953121851253417	22607.892931166447
23.18265306976595	38378.20653133862
23.41447960046361	30548.51395226917
23.648624396468247	19530.643217553294
23.88511064043293	17777.221479530097
24.12396174683726	33852.61815292755
24.365201364305634	30809.377037353937
24.608853377948687	28849.036234166822
24.854941911728176	23442.818499626417
25.103491330845458	14279.763794707953
25.354526244153913	14433.166616972605
25.608071506595454	23290.140206463282
25.864152221661406	19661.472344031583
26.122793743878024	18403.47069389819
26.384021681316803	20129.123003503275
26.64786189812997	11219.528908508479
26.91434051711127	16150.51106412273
27.18348392228238	18353.53474287195
27.455318761505207	22944.97806255085
27.72987194912026	17480.23286407872
28.007170668611465	10573.008260111143
28.28724237529758	9257.929149703943
28.57011479905055	9219.93976088093
28.855815947041062	13799.510804011577
29.144374106511474	9968.542565272088
29.435817847576587	11236.585412310671
29.730176026052348	9840.02173248864
30.027477786312875	11762.329517935857
30.327752564176006	8083.212342463886
30.631030089817763	8770.093509968008
30.93734039071594	7831.753127977886
31.246713794623105	9386.006542152252
31.559180932569333	10901.421271565383
31.874772741895026	8064.944415452888
32.19352046931398	10227.783081696385
32.51545567400712	9930.737319989408
32.84061023074719	5454.695103267701
33.169016333054664	5950.8133789789945
33.500706496385206	6212.329935847748
33.83571356134906	9842.36989188136
34.17407069696255	6352.75653714824
34.51581140393218	4971.68820040579
34.8609695179715	5545.055407167839
35.209579213151216	4878.414121431716
35.56167500528272	4143.3563211899955
35.917291755335555	3881.0954258026063
36.27646467288891	5230.623170243477
36.639229319617804	4859.885350074264
37.005621612813975	6578.825898763715
37.37567782894212	3854.252371388822
37.74943460723154	4449.167995741258
38.12692895330385	5980.192614309225
38.5081982428369	5411.679152886573
38.893280225265265	3428.431187785718
39.28221302751791	2767.1096693570225
39.6750351577931	4252.129437005692
40.071785509371026	2746.6356017156736
40.47250336446474	2746.723076091286
40.87722839810939	2756.4078869270975
41.28600068209048	4108.176830629301
41.69886068891139	4126.326355770179
42.1158492958005	3380.6214125791053
42.53700778875851	3136.737997601368
42.962377866646094	2309.499185952831
43.392001645312554	2182.601319436895
43.825921661765676	1941.9720683939984
44.264180878383335	1995.594456794088
44.70682268716717	1963.991634499646
45.15389091403884	2075.6240648423895
45.60542982317923	2584.6661902668266
46.06148412141103	2115.3500770006885
46.52209896262513	1687.846529631086
46.98731995225138	1645.4052285301484
47.4571931517739	2311.1796746346695
47.93176508329164	1468.112558387082
48.411082734124555	2012.8882700657396
48.8951935614658	1389.5548444803196
49.38414549708046	1234.047754456531
49.877986952051266	1296.3922749142412
50.37676682157178	1250.319344267951
50.88053448978749	1205.8437491915236
51.38933983468537	1162.902113279425
51.903233233032225	1121.4512494878509
52.422265565362544	1081.428619957989
52.946488221016175	1042.795333747894
53.47595310322633	1005.51294687468
54.010712634258596	969.5227266040127
54.550819760601186	934.788254658156
55.0963279582072	901.2662050747565
55.647291237789275	868.9134844640047
56.20376415016716	837.696289070376
56.765801791668835	807.5691853913347
57.33345980958552	778.5012160920625
57.906794407681375	750.4545257212181
58.48586235175819	723.3920693524243
59.070720975275776	697.2859032492014
59.661428185028534	672.0959665413386
60.25804246687882	647.798484415889
60.860622891547614	624.3571553844858
61.46922912046309	601.7458039378918
62.083921411667724	579.9366090024996
62.7047606257844	558.8974831280932
63.331808232042235	538.609345880569
63.965126314362664	519.0400182590481
64.60477757750628	500.1664105860172
65.25082535328136	481.9660284170062
65.90333360681416	464.4119165042498
66.56236694288232	447.48758065310045
67.22799061231113	431.166116470345
67.90027051843424	415.4282528549817
68.57927322361859	400.25430121667273
69.26506595585477	385.6227184885364
69.95771661541333	371.5178569757254
70.65729378156746	357.9177846138708
71.36386671938313	344.8069493555649
72.07750538657696	332.16754609725507
72.79828044044274	319.9826425168446
73.52626324484716	308.23789832709497
74.26152587729563	296.9155808273966
75.00414113606858	286.00304073334854
75.75418254742928	275.4841641354619
76.51172437290357	265.34506945817327
77.27684161663261	255.57405432128914
78.04961003279894	246.15557026172814
78.83010613312693	237.08009985831598
79.6184071944582	228.33299471307873
80.41459126640278	219.90323175937613
81.2187371790668	211.78074923042186
82.03092455085748	203.95266420294828
82.85123379636605	196.41043740337096
83.6797461343297	189.14229378819132
84.51654359567301	182.13903841169093
85.36170903162974	175.39186103648638
86.21532612194603	168.89015079476016
87.0774793831655	162.626788406164
87.94825417699715	156.59195555314983
88.82773671876713	150.77809817837414
89.71601408595481	145.1772706206764
90.61317422681435	139.78102804984127
91.5193059690825	134.583577436228
92.43449902877332	129.57597583745633
93.35884401906105	124.7527395448762
