#wavelength	surface flux
0.8	1627760.3828489322
0.8002000000000001	1631606.7193937062
0.8004000500000003	1635710.4649783236
0.8006001500125003	1639817.826871136
0.8008003000500035	1643926.2156044221
0.8010005001250161	1648035.6314348932
0.8012007502500472	1652146.0746193163
0.8014010504376099	1655801.77419759
0.8016014007002193	1659305.7182673987
0.8018018010503944	1662810.538323225
0.8020022515006572	1666316.2345840668
0.8022027520635323	1669822.8072689706
0.8024033027515483	1673348.6791318946
0.8026039035772362	1676893.4858289545
0.8028045545531306	1680439.178727689
0.8030052556917691	1683985.7580496497
0.803206007005692	1687533.2240164378
0.8034068085074435	1691174.8056103596
0.8036076602095705	1695078.631490977
0.8038085621246229	1698983.4333280616
0.8040095142651542	1702889.2113656076
0.8042105166437206	1706795.965847662
0.8044115692728815	1710691.357990008
0.8046126721651998	1714057.0006322179
0.8048138253332411	1717423.4846850855
0.8050150287895745	1720790.8103589695
0.805216282546772	1724158.977864271
0.8054175866174087	1727527.987411447
0.8056189410140631	1730994.4672679869
0.8058203457493168	1734489.1657517692
0.8060218008357541	1737984.7379101678
0.8062233062859632	1741481.183961608
0.8064248621125346	1744978.5041245583
0.806626468328063	1748739.7416383165
0.8068281249451449	1752727.8415948644
0.8070298319763813	1756716.9385764063
0.8072315894343755	1760707.0328321906
0.8074333973317341	1764698.1246115402
0.8076352556810671	1768229.482665357
0.8078371644949874	1770652.6659082044
0.8080391237861113	1773076.454946863
0.8082411335670578	1775500.8499327798
0.8084431938504498	1777925.8510174456
0.8086453046489125	1780333.5715236946
0.8088474659750746	1782408.8732557208
0.8090496778415686	1784484.693813183
0.809251940261029	1786561.0333257832
0.8094542532460944	1788637.8919232632
0.8096566168094059	1790715.2697353903
0.8098590309636085	1793210.397881775
0.8100614957213493	1795803.8061301664
0.8102640110952797	1798397.8627306202
0.8104665770980536	1800992.567845225
0.8106691937423283	1803587.9216361095
0.8108718610407639	1806460.9327383023
0.8110745790060241	1809546.4759333045
0.8112773476507757	1812632.790514108
0.8114801669876885	1815719.876673556
0.8116830370294355	1818807.7346045421
0.8118859577886929	1821738.8291399658
0.8120889292781401	1824343.448617525
0.8122919515104597	1826948.7192499533
0.8124950244983374	1829554.64120004
0.8126981482544621	1832161.2146306138
0.8129013227915257	1834811.9445777799
0.8131045481222237	1837961.4746572026
0.8133078242592543	1841111.7921191456
0.8135111512153191	1844262.897160453
0.813714529003123	1847414.7899780213
0.8139179576353739	1850567.4707687947
0.8141214371247829	1857561.1627428555
0.8143249674840641	1865301.2869740038
0.814528548725935	1873043.3462362052
0.8147321808631167	1880787.3410132325
0.8149358639083326	1888533.2717889517
0.8151395978743097	1894159.5138691014
0.8153433827737784	1898353.7035236289
0.8155472186194719	1902548.9417255686
0.8157511054241268	1906745.2287370581
0.815955043200483	1910942.564820303
0.8161590319612831	1914846.0406294558
0.8163630717192736	1918210.1063986977
0.8165671624872033	1921575.0131843784
0.8167713042778252	1924940.7611967586
0.8169754971038948	1928307.3506461435
0.8171797409781707	1931530.8369001474
0.8173840359134155	1933605.9727650776
0.8175883819223938	1935681.6274139713
0.8177927790178745	1937757.8009765288
0.8179972272126291	1939834.4935824773
0.8182017265194322	1941911.7053615754
0.8184062769510622	1946284.0149446833
0.8186108785203001	1951010.5192750373
0.8188155312399301	1955738.2052314675
0.8190202351227402	1960467.073109392
0.819224990181521	1965197.1232042832
0.8194297964290664	1969746.5527617596
0.8196346538781738	1974187.5382107573
0.8198395625416434	1978629.6339061155
0.8200445224322789	1983072.8401253994
0.820249533562887	1987517.1571462366
0.8204545959462778	1991784.3586867335
0.8206597095952644	1995765.7761914283
0.8208648745226633	1999748.1890505024
0.8210700907412941	2003731.5975127905
0.8212753582639793	2007716.0018271902
0.8214806771035456	2011063.982803486
0.8216860472728215	2010485.5204326627
0.8218914687846397	2009906.9134462464
0.822096941651836	2009328.1618080833
0.822302465887249	2008749.265482011
0.8225080415037209	2008170.2244318568
0.8227136685140968	2012846.786722282
0.8229193469312254	2018121.1554073286
0.8231250767679583	2023396.8426845483
0.8233308580371503	2028673.8488835841
0.8235366907516598	2033952.174334174
0.8237425749243477	2039481.4430573785
0.8239485105680789	2045144.3990423756
0.824154497695721	2050808.7707663656
0.824360536320145	2056474.5585832873
0.8245666264542252	2062141.7628471632
0.8247727681108388	2067405.7675121773
0.8249789613028664	2072091.6013396918
0.8251852060431922	2076778.6066256673
0.825391502344703	2081466.7836629623
0.8255978502202894	2086156.1327445207
0.8258042496828445	2090684.7190146942
0.8260107007452654	2094427.987977907
0.8262172034204517	2098172.1927583567
0.8264237577213068	2101917.3335900027
0.8266303636607373	2105663.410706858
0.8268370212516525	2109410.424342991
0.8270437305069654	2111477.066315343
0.8272504914395923	2113412.841622456
0.8274573040624523	2115349.1008733963
0.8276641683884679	2117285.8441891475
0.8278710844305652	2119223.07169073
0.8280780522016729	2122688.2257849094
0.8282850717147234	2126852.437207847
0.8284921429826521	2131017.6896836353
0.8286992660183978	2135183.983472546
0.8289064408349024	2139351.3188349013
0.8291136674451112	2142867.991234898
0.8293209458619727	2145563.7757114936
0.8295282760984382	2148260.234134204
0.829735658167463	2150957.3666715235
0.8299430920820048	2153655.173491974
0.8301505778550254	2156431.8079098132
0.8303581154994891	2159521.068576863
0.8305657050283641	2162611.101559083
0.8307733464546212	2165701.907049546
0.8309810397912352	2168793.4852413866
0.8311887850511829	2171885.836327769
0.8313965822474458	2178217.5482278694
0.8316044313930077	2184701.1630436177
0.8318123325008561	2191186.398763076
0.8320202855839813	2197673.255791461
0.8322282906553774	2204161.7345341034
0.8324363477280413	2208375.795158094
0.8326444568149735	2211674.583526847
0.8328526179291771	2214974.1965926886
0.8330608310836596	2218274.6345618013
0.8332690962914304	2221575.897640402
0.8334774135655034	2224661.3003801974
0.833685782918895	2227505.4294787147
0.8338942043646247	2230350.269609505
0.834102677915716	2233195.82095033
0.834311203585195	2236042.083678988
0.8345197813860912	2239642.241887745
0.8347284113314379	2245778.587626768
0.8349370934342709	2251916.4674522225
0.8351458277076294	2258055.881747626
0.8353546141645565	2264196.830896613
0.8355634528180977	2270339.3152828855
0.8357723436813022	2269355.2689481885
0.8359812867672226	2268282.9631449855
0.8361902820889144	2267210.389265333
0.8363993296594368	2266137.5472422093
0.8366084294918518	2265064.43700858
0.8368175815992247	2269273.4556798274
0.8370267859946247	2275302.8384516835
0.8372360426911234	2281333.7285692315
0.8374453517017962	2287366.1264093076
0.8376547130397217	2293400.0323488433
0.8378641267179816	2298246.591548339
0.8380735927496613	2301914.7089689136
0.8382831111478488	2305583.7434188416
0.8384926819256358	2309253.6951273796
0.8387023050961173	2312924.564323848
0.8389119806723914	2316581.6349197524
0.8391217086675596	2320198.2032561377
0.8393314890947265	2323815.6757346042
0.8395413219670003	2327434.052581191
0.8397512072974922	2331053.334021992
0.8399611450993165	2334737.491506261
0.8401711353855914	2341599.35810756
0.8403811781694378	2348462.9401755077
0.8405912734639802	2355328.238138974
0.8408014212823464	2362195.252426935
0.8410116216376671	2369063.9834684664
0.8412218745430766	2375285.4006023454
0.8414321800117124	2381319.5300884396
0.8416425380567154	2387355.1681069084
0.8418529486912297	2393392.315034883
0.8420634119284025	2399430.9712495846
0.8422739277813847	2404103.5303935744
0.8424844962633302	2407572.3430757797
0.842695117387396	2411042.022961151
0.8429057911667428	2414512.5702664936
0.8431165176145345	2417983.985208664
0.8433272967439382	2421509.4400950973
0.8435381285681244	2425165.4778186753
0.8437490131002665	2428822.429551684
0.8439599503535415	2432480.295522623
0.84417094034113	2436139.075960058
0.8443819830762154	2439853.373962334
0.8445930785719846	2444668.58001774
0.8448042268416277	2449484.9898746572
0.8450154278983382	2454302.6038340386
0.8452266817553128	2459121.422196909
0.8454379884257517	2463941.4452643706
0.8456493479228583	2468770.018833618
0.845860760259839	2473601.5684299762
0.846072225449904	2478434.325913734
0.8462837435062666	2483268.2915868633
0.8464953144421433	2488103.465751414
0.8467069382707537	2492426.279688493
0.8469186150053215	2496349.8630498075
0.847130344659073	2500274.4273069636
0.8473421272452377	2504199.9727051803
0.8475539627770492	2508126.4994897502
0.8477658512677435	2512260.6857378236
0.8479777927305605	2516834.7586925365
0.8481897871787432	2521409.9751654873
0.848401834625538	2525986.335442559
0.8486139350841944	2530563.8398096967
0.8488260885679657	2535098.519498122
0.8490382950901076	2539098.3656874034
0.8492505546638802	2543099.2118382338
0.8494628673025462	2547101.0582006006
0.8496752330193721	2551103.905024564
0.8498876518276269	2555107.7525602276
0.8501001237405839	2557433.2736970303
0.8503126487715191	2559424.1529791583
0.850525226933712	2561415.529981106
0.8507378582404455	2563407.404827304
0.8509505427050057	2565399.7776422147
0.8511632803406821	2568184.676013945
0.8513760711607672	2571512.6643893234
0.8515889151785576	2574841.4847618006
0.8518018124073523	2578171.1373393685
0.8520147628604541	2581501.622330079
0.8522277665511693	2585948.416549474
0.8524408234928071	2592459.261617406
0.8526539336986805	2598971.734396606
0.8528670971821053	2605485.835294002
0.8530803139564007	2612001.5647166143
0.8532935840348901	2618476.9640585203
0.8535069074308987	2624599.616943751
0.8537202841577566	2630723.8004922085
0.8539337142287962	2636849.5150865535
0.8541471976573534	2642976.761109543
0.8543607344567677	2649105.5389440395
0.8545743246403821	2654339.697195097
0.8547879682215422	2659432.844840882
0.8550016652135977	2664527.265773577
0.8552154156299011	2669622.960311506
0.8554292194838088	2674719.928773073
0.8556430767886797	2679444.0153599987
0.855856987557877	2683942.105256532
0.8560709518047664	2688441.3196755364
0.8562849695427177	2692941.6588981473
0.8564990407851035	2697443.123205565
0.8567131655452999	2701954.4564700606
0.8569273438366862	2706481.244233527
0.8571415756726455	2711009.163693936
0.8573558610665638	2715538.2151342114
0.8575702000318304	2720068.398837342
0.8577845925818384	2724639.9464715566
0.857999038729984	2729463.937045733
0.8582135384896665	2734289.1336175515
0.858428091874289	2739115.536488514
0.8586426988972576	2743943.145960192
0.8588573595719821	2748771.9623342403
0.8590720739118751	2753200.085451137
0.8592868419303532	2757581.9303335585
0.8595016636408359	2761964.8706772006
0.8597165390567462	2766348.9067559275
0.8599314681915105	2770734.038843675
0.8601464510585584	2774770.5073419292
0.860361487671323	2778622.3348585316
0.8605765780432408	2782475.1253320123
0.8607917221877518	2786328.8790031145
0.8610069201182988	2790183.5961126336
0.8612221718483286	2789378.854631023
0.8614374773912907	2781855.282565803
0.8616528367606385	2774329.8296075687
0.8618682499698288	2766802.49528609
0.8620837170323213	2759273.279131032
0.8622992379615795	2753317.7192998026
0.8625148127710699	2755157.407629812
0.8627304414742627	2756997.555881904
0.8629461240846313	2758838.164171059
0.8631618606156526	2760679.232612287
0.8633776510808066	2762520.7613206245
0.8635934954935769	2779326.143120715
0.8638093938674504	2797362.302629986
0.8640253462159173	2815402.9711791337
0.8642413525524714	2833448.149895419
0.8644574128906095	2851497.8399063786
0.8646735272438323	2856172.0874853474
0.8648896956256433	2854625.45387792
0.8651059180495498	2853078.4336120905
0.8653221945290621	2851531.0265911967
0.8655385250776946	2849983.232718545
0.8657549097089641	2853000.479699434
0.8659713484363913	2861863.2321754955
0.8661878412735006	2870728.2003396805
0.866404388233819	2879595.384745905
0.8666209893308775	2888464.785948227
0.8668376445782103	2896405.2333291685
0.8670543539893549	2900547.0835701423
0.8672711175778525	2904689.9692736794
0.8674879353572469	2908833.8906986373
0.8677048073410862	2912978.848103953
0.8679217335429217	2917124.841748623
0.8681387139763074	2922698.7182172835
0.8683557486548015	2928344.8702453063
0.8685728375919655	2933992.433811343
0.8687899808013633	2939641.4092682586
0.8690071782965637	2945291.796969046
0.869224430091138	2949935.902454749
0.8694417361986609	2954171.139221687
0.8696590966327107	2958407.4347978155
0.869876511406869	2962644.789447838
0.8700939805347206	2966883.2034365213
0.8703115040298544	2971340.110880478
0.870529081905862	2976046.7223451473
0.8707467141763385	2980754.5104626818
0.8709644008548827	2985463.475527245
0.8711821419550964	2990173.617833072
0.8713999374905854	2995081.5589288357
0.871617787474958	3000669.3351785606
0.8718356919218269	3006258.5083723525
0.8720536508448075	3011849.0788594433
0.8722716642575187	3017441.046989153
0.8724897321735832	3023034.4131108974
0.8727078546066265	3028192.3001732933
0.8729260315702784	3033344.830369068
0.873144263078171	3038498.648697386
0.8733625491439405	3043653.755480286
0.8735808897812266	3048810.1510398844
0.8737992850036719	3052676.4380320627
0.874017734824923	3056086.2997767427
0.8742362392586293	3059497.0139868576
0.874454798318444	3062908.5808755253
0.8746734120180236	3066321.000655914
0.8748920803710283	3070308.770102567
0.875110803391121	3074874.850793803
0.8753295810919689	3079442.073005215
0.875548413487242	3084010.4370221794
0.8757673005906139	3088579.943130148
0.8759862424157616	3093917.9012283348
0.8762052389763657	3101477.44039469
0.8764242902861098	3109038.8694458306
0.8766433963586814	3116602.1888542366
0.8768625572077712	3124167.399092497
0.8770817728470732	3131695.0612353706
0.8773010432902849	3136145.2766170697
0.8775203685511077	3140596.6045526206
0.8777397486432454	3145049.0453201495
0.8779591835804065	3149502.599197876
0.8781786733763015	3153957.2664640658
0.8783982180446457	3155160.177507764
0.878617817599157	3155395.721287951
0.8788374720535569	3155631.3239540826
0.8790571814215703	3155866.9855208807
0.8792769457169257	3156102.706003071
0.879496764953355	3157110.4699602625
0.8797166391445934	3158812.550669148
0.8799365683043796	3160515.056898211
0.8801565524464557	3162217.988753831
0.8803765915845676	3163921.3463424165
0.8805966857324639	3168019.870200492
0.880816834903897	3178134.2887361464
0.881037039112623	3188251.2358764387
0.8812572983724012	3198370.7122535156
0.8814776126969944	3208492.7184996908
0.8816979821001687	3218477.3231808734
0.8819184065956938	3225170.39961343
0.8821388861973429	3231865.1493151016
0.8823594209188923	3238561.5727041927
0.882580010774122	3245259.6701991274
0.8828006557768155	3251959.44221844
0.8830213559407598	3258200.200210834
0.8832421112797452	3264326.65044047
0.8834629218075651	3270454.63228266
0.8836837875380171	3276584.146120312
0.8839047084849018	3282715.1923364247
0.884125684662023	3285185.9643562827
0.8843467160831886	3284722.8834590316
0.8845678027622095	3284259.686791556
0.8847889447129001	3283796.3743249136
0.8850101419490785	3283332.9460301544
0.8852313944845657	3286295.3727148403
0.885452702333187	3296757.569969731
0.8856740655087704	3307222.3827739335
0.8858954840251476	3317689.811781334
0.8861169578961539	3328159.857645982
0.886338487135628	3337873.1991735576
0.886560071757412	3337484.3642860283
0.8867817117753515	3337095.4321897775
0.8870034072032955	3336706.402860502
0.8872251580550963	3336317.2762738946
0.8874469643446101	3335928.0524056405
0.8876688260856963	3342148.107667996
0.8878907432922178	3349737.613101824
0.8881127159780409	3357329.0159120057
0.8883347441570356	3364922.3165728995
0.8885568278430749	3372517.5155589497
0.8887789670500358	3378143.8534897286
0.8890011617917983	3382373.5929039596
0.8892234120822464	3386604.3897530464
0.8894457179352669	3390836.244301342
0.8896680793647509	3395069.156813278
0.8898904963845921	3398389.8393959966
0.8901129690086883	3399968.7743047657
0.8903354972509405	3401548.103947262
0.8905580811252535	3403127.8284221697
0.8907807206455347	3404707.947828194
0.8910034158256963	3405945.459879761
0.8912261666796527	3404117.881394348
0.8914489732213227	3402289.8460143134
0.8916718354646282	3400461.3536254317
0.8918947534234944	3398632.4041134547
0.8921177271118502	3396802.997364101
0.8923407565436284	3396798.0683566816
0.8925638417327644	3397090.8346531023
0.8927869826931977	3397383.6741410973
0.8930101794388711	3397676.5868389644
0.8932334319837308	3397969.5727650058
0.8934567403417267	3399567.060531673
0.8936801045268123	3401975.49649068
0.8939035245529441	3404384.5345586757
0.8941270004340824	3406794.174886189
0.894350532184191	3409204.4176237835
0.8945741198172371	3418209.2283635815
0.8947977633471915	3438151.595438097
0.8950214627880284	3458098.94810438
0.8952452181537254	3478051.287608818
0.8954690294582639	3498008.6151981447
0.8956928967156286	3515895.49432501
0.8959168199398075	3520317.9932160676
0.8961407991447926	3524741.5977318487
0.8963648343445789	3529166.308148759
0.896588925553165	3533592.1247432707
0.8968130727845534	3538019.047791932
0.8970372760527496	3540431.069268485
0.8972615353717629	3542591.450513035
0.8974858507556059	3544752.3718528966
0.8977102222182949	3546913.833423092
0.8979346497738496	3549075.8353586816
0.8981591334362931	3559447.671618381
0.8983836732196523	3574311.5705996896
0.8986082691379572	3589179.1855557333
0.8988329212052417	3604050.5174155165
0.8990576294355432	3618925.567108277
0.8992823938429022	3629777.626683002
0.8995072144413631	3634645.1948837005
0.8997320912449734	3639513.9799764478
0.8999570242677847	3644383.982265467
0.9001820135238516	3649255.2020550584
0.9004070590272328	3654261.681354899
0.9006321607919896	3659972.104623816
0.9008573188321878	3665683.9554985557
0.9010825331618959	3671397.2343360116
0.9013078037951865	3677111.941493178
0.9015331307461353	3682828.0773271304
0.9017585140288219	3689837.497621493
0.9019839536573292	3696959.941127295
0.9022094496457435	3704084.1652439684
0.9024350020081551	3711210.170416679
0.9026606107586572	3718337.95709068
0.902886275911347	3726872.964598725
0.9031119974803249	3736087.62522996
0.9033377754796951	3745304.5895263525
0.903563609923565	3754523.858063815
0.903789500826046	3763745.431418418
0.9040154482012526	3770915.8289553192
0.904241452063303	3775427.9134818083
0.9044675124263188	3779941.126029428
0.9046936293044254	3784455.466880184
0.9049198027117517	3788970.936316155
0.9051460326624297	3793972.8096984285
0.9053723191705955	3801042.3477276345
0.9055986622503881	3808113.6531413407
0.9058250619159507	3815186.726381401
0.9060515181814298	3822261.5678897756
0.9062780310609752	3829338.1781085227
0.9065046005687405	3829042.684698971
0.906731226718883	3828335.750854608
0.9069579095255627	3827628.640276785
0.907184649002944	3826921.352921318
0.907411445165195	3826213.8887440106
0.9076382980264862	3833812.50261676
0.907865207600993	3844862.588425732
0.9080921739028933	3855915.4367561536
0.9083191969463691	3866971.048298656
0.9085462767456058	3878029.423744049
0.9087734133147922	3886652.7630016855
0.9090006066681211	3892462.567974269
0.909227856819788	3898273.825398088
0.9094551637839932	3904086.535636271
0.9096825275749393	3909900.6990520116
0.9099099482068329	3915968.6970530795
0.9101374256938848	3922935.1786619266
0.9103649600503083	3929903.4018911733
0.9105925512903209	3936873.3671762254
0.9108201994281437	3943845.0749526066
0.9110479044780008	3950818.5256559234
0.9112756664541204	3957830.449246564
0.911503485370734	3964844.9665504447
0.9117313612420768	3971861.2374836514
0.9119592940823873	3978879.2624845896
0.912187283905908	3985899.04199178
0.9124153307268845	3986322.8951943796
0.9126434345595664	3984352.281711546
0.9128715954182063	3982381.1755753434
0.9130998133170609	3980409.576662606
0.9133280882703902	3978437.4848501408
0.913556420292458	3981409.5655992054
0.9137848093975312	3989481.8959956854
