#wavelength	surface flux
0.8	1755226.0933358606
0.8002000000000001	1762750.6070084872
0.8004000500000003	1770714.2295468263
0.8006001500125003	1778684.2594214373
0.8008003000500035	1786656.2818035176
0.8010005001250161	1794630.297191197
0.8012007502500472	1802606.306082712
0.8014010504376099	1809359.390041639
0.8016014007002193	1815703.8518510323
0.8018018010503944	1822049.899775878
0.8020022515006572	1828397.5342127078
0.8022027520635323	1834746.755558141
0.8024033027515483	1841093.4323002596
0.8026039035772362	1847437.646602115
0.8028045545531306	1853783.446957546
0.8030052556917691	1860130.8337630692
0.803206007005692	1866479.8074152882
0.8034068085074435	1873012.7735747613
0.8036076602095705	1880058.6816863527
0.8038085621246229	1887106.3512749663
0.8040095142651542	1894155.7827809816
0.8042105166437206	1901206.9766448708
0.8044115692728815	1908227.279599224
0.8046126721651998	1913844.8441165085
0.8048138253332411	1919463.813024918
0.8050150287895745	1925084.1866755597
0.805216282546772	1930705.9654196126
0.8054175866174087	1936329.1496083485
0.8056189410140631	1942079.3057748699
0.8058203457493168	1947866.442853904
0.8060218008357541	1953655.0267172006
0.8062233062859632	1959445.057726466
0.8064248621125346	1965236.5362434797
0.806626468328063	1971652.5668386829
0.8068281249451449	1978605.372577141
0.8070298319763813	1985559.9165170423
0.8072315894343755	1992516.1990929232
0.8074333973317341	1999474.2207394508
0.8076352556810671	2005194.2191669368
0.8078371644949874	2007931.3316988014
0.8080391237861113	2010669.1285087992
0.8082411335670578	2013407.609767998
0.8084431938504498	2016146.7756475145
0.8086453046489125	2018846.7918597683
0.8088474659750746	2020805.836821369
0.8090496778415686	2022765.3715442123
0.809251940261029	2024725.3961507352
0.8094542532460944	2026685.9107634113
0.8096566168094059	2028646.9155047385
0.8098590309636085	2031602.5566302445
0.8100614957213493	2034791.6246859403
0.8102640110952797	2037981.4900086506
0.8104665770980536	2041172.1527976927
0.8106691937423283	2044363.613252433
0.8108718610407639	2048227.9553118735
0.8110745790060241	2052607.170617271
0.8112773476507757	2056987.4807264984
0.8114801669876885	2061368.8859132521
0.8116830370294355	2065751.3864513
0.8118859577886929	2069656.4809964166
0.8120889292781401	2072568.683030598
0.8122919515104597	2075481.6131152879
0.8124950244983374	2078395.271432499
0.8126981482544621	2081309.658164289
0.8129013227915257	2084334.751350424
0.8131045481222237	2088619.8640940206
0.8133078242592543	2092906.0481158032
0.8135111512153191	2097193.30368359
0.813714529003123	2101481.6310652695
0.8139179576353739	2105771.0305287954
0.8141214371247829	2120515.922597937
0.8143249674840641	2137291.7888191445
0.814528548725935	2154071.8490068973
0.8147321808631167	2170856.1042097197
0.8149358639083326	2187644.5554763377
0.8151395978743097	2198653.1312748655
0.8153433827737784	2205756.497102943
0.8155472186194719	2212861.6387724746
0.8157511054241268	2219968.556727423
0.815955043200483	2227077.2514118645
0.8161590319612831	2233185.800909688
0.8163630717192736	2237459.976948969
0.8165671624872033	2241735.2215322554
0.8167713042778252	2246011.5349266916
0.8169754971038948	2250288.917399478
0.8171797409781707	2253911.6888137134
0.8173840359134155	2252300.8661840367
0.8175883819223938	2250689.640848704
0.8177927790178745	2249078.012707037
0.8179972272126291	2247465.981658334
0.8182017265194322	2245853.54760187
0.8184062769510622	2252015.8294977825
0.8186108785203001	2259376.1277101063
0.8188155312399301	2266738.2659969735
0.8190202351227402	2274102.2448184206
0.819224990181521	2281468.064634568
0.8194297964290664	2291448.6858978006
0.8196346538781738	2303006.7593167177
0.8198395625416434	2314567.7222539852
0.8200445224322789	2326131.575431992
0.820249533562887	2337698.3195732892
0.8204545959462778	2347361.2698201574
0.8206597095952644	2353957.8768365732
0.8208648745226633	2360556.133004748
0.8210700907412941	2367156.0387369636
0.8212753582639793	2373757.5944456058
0.8214806771035456	2378555.233597928
0.8216860472728215	2372229.5799733
0.8218914687846397	2365902.344935265
0.822096941651836	2359573.5280884677
0.822302465887249	2353243.1290374617
0.8225080415037209	2346911.14738669
0.8227136685140968	2354781.1659257454
0.8229193469312254	2364265.5555144064
0.8231250767679583	2373752.3162004678
0.8233308580371503	2383241.4485766958
0.8235366907516598	2392732.9532360244
0.8237425749243477	2402965.4916302366
0.8239485105680789	2413592.0913994107
0.824154497695721	2424221.3478185204
0.824360536320145	2434853.261551737
0.8245666264542252	2445487.833263386
0.8247727681108388	2455063.5537640653
0.8249789613028664	2463121.386294388
0.8251852060431922	2471181.2332828506
0.825391502344703	2479243.0952330567
0.8255978502202894	2487306.9726487575
0.8258042496828445	2494858.543839751
0.8260107007452654	2499914.1609675344
0.8262172034204517	2504971.0419995952
0.8264237577213068	2510029.187251915
0.8266303636607373	2515088.5970405503
0.8268370212516525	2520149.2716816305
0.8270437305069654	2520398.9330934333
0.8272504914395923	2520272.608639494
0.8274573040624523	2520146.2526044413
0.8276641683884679	2520019.86498038
0.8278710844305652	2519893.4457594124
0.8280780522016729	2524169.2244030163
0.8282850717147234	2530458.322929527
0.8284921429826521	2536748.993730663
0.8286992660183978	2543041.237199504
0.8289064408349024	2549335.053729208
0.8291136674451112	2553742.3726727525
0.8293209458619727	2555770.0304742386
0.8295282760984382	2557798.1951901726
0.829735658167463	2559826.8669472877
0.8299430920820048	2561856.0458723395
0.8301505778550254	2564114.331102362
0.8303581154994891	2567285.586495978
0.8305657050283641	2570457.6347034452
0.8307733464546212	2573630.475922962
0.8309810397912352	2576804.110352789
0.8311887850511829	2579978.5381912175
0.8313965822474458	2592251.011336215
0.8316044313930077	2604948.804173048
0.8318123325008561	2617649.7714581024
0.8320202855839813	2630353.913984972
0.8322282906553774	2643061.232547474
0.8324363477280413	2649168.8784093177
0.8326444568149735	2652619.7672556858
0.8328526179291771	2656071.5188242616
0.8330608310836596	2659524.1333307344
0.8332690962914304	2662977.6109908298
0.8334774135655034	2665822.139374005
0.833685782918895	2667986.198137516
0.8338942043646247	2670150.7979157167
0.834102677915716	2672315.9388438636
0.834311203585195	2674481.6210572403
0.8345197813860912	2678807.6959544825
0.8347284113314379	2690405.113703504
0.8349370934342709	2702005.4308069563
0.8351458277076294	2713608.6479896703
0.8353546141645565	2725214.7659766995
0.8355634528180977	2736823.7854932207
0.8357723436813022	2728477.9060036894
0.8359812867672226	2719883.5120514343
0.8361902820889144	2711286.969500696
0.8363993296594368	2702688.2778143166
0.8366084294918518	2694087.436455013
0.8368175815992247	2700124.251816971
0.8370267859946247	2711204.6762577067
0.8372360426911234	2722287.870804549
0.8374453517017962	2733373.8361500273
0.8376547130397217	2744462.5729868403
0.8378641267179816	2752174.0519118397
0.8380735927496613	2756533.590209598
0.8382831111478488	2760894.2183919284
0.8384926819256358	2765255.9367313017
0.8387023050961173	2769618.7455002638
0.8389119806723914	2773947.8552584443
0.8391217086675596	2778180.1376738697
0.8393314890947265	2782413.478159896
0.8395413219670003	2786647.876981044
0.8397512072974922	2790883.334401901
0.8399611450993165	2795299.202510795
0.8401711353855914	2808622.722054205
0.8403811781694378	2821949.572477497
0.8405912734639802	2835279.7546133986
0.8408014212823464	2848613.2692948403
0.8410116216376671	2861950.117354951
0.8412218745430766	2873422.7404862544
0.8414321800117124	2884354.8441299754
0.8416425380567154	2895289.6807996123
0.8418529486912297	2906227.2511784197
0.8420634119284025	2917167.5559498123
0.8422739277813847	2924239.3895464777
0.8424844962633302	2927902.308177237
0.842695117387396	2931566.142537649
0.8429057911667428	2935230.892856651
0.8431165176145345	2938896.559363235
0.8433272967439382	2942816.8957081186
0.8435381285681244	2947357.1870984114
0.8437490131002665	2951898.6135615506
0.8439599503535415	2956441.175381303
0.84417094034113	2960984.8728415133
0.8443819830762154	2965648.685396396
0.8445930785719846	2972710.509461501
0.8448042268416277	2979774.0989826187
0.8450154278983382	2986839.4544011154
0.8452266817553128	2993906.5761584663
0.8454379884257517	3000975.4646962574
0.8456493479228583	3008224.706475394
0.845860760259839	3015518.766224722
0.846072225449904	3022814.6494889874
0.8462837435062666	3030112.356724071
0.8464953144421433	3037411.888385967
0.8467069382707537	3043207.886487523
0.8469186150053215	3047831.952914344
0.847130344659073	3052457.1753577725
0.8473421272452377	3057083.554106808
0.8475539627770492	3061711.0894505344
0.8477658512677435	3066889.6637542197
0.8479777927305605	3073237.1348805088
0.8481897871787432	3079586.1928745783
0.848401834625538	3085936.83813315
0.8486139350841944	3092289.071053032
0.8488260885679657	3098467.092806318
0.8490382950901076	3102503.72892331
0.8492505546638802	3106541.3741993336
0.8494628673025462	3110580.0288866744
0.8496752330193721	3114619.6932376935
0.8498876518276269	3118660.3675047946
0.8501001237405839	3112871.5695359353
0.8503126487715191	3105118.9874284635
0.850525226933712	3097364.4671754693
0.8507378582404455	3089608.0082924124
0.8509505427050057	3081849.61029463
0.8511632803406821	3077523.7854199037
0.8513760711607672	3075548.891387009
0.8515889151785576	3073573.503630603
0.8518018124073523	3071597.6220272593
0.8520147628604541	3069621.246453516
0.8522277665511693	3074735.708950574
0.8524408234928071	3092966.0117228813
0.8526539336986805	3111200.872070886
0.8528670971821053	3129440.29113398
0.8530803139564007	3147684.2700518174
0.8532935840348901	3165683.0019324184
0.8535069074308987	3181576.477013598
0.8537202841577566	3197473.9254635614
0.8539337142287962	3213375.348275639
0.8541471976573534	3229280.74644341
0.8543607344567677	3245190.1209607255
0.8545743246403821	3254599.4672189737
0.8547879682215422	3262978.2553870054
0.8550016652135977	3271359.1382520776
0.8552154156299011	3279742.1163378665
0.8554292194838088	3288127.1901681833
0.8556430767886797	3295104.0712447804
0.855856987557877	3301226.4062953307
0.8560709518047664	3307350.2719296394
0.8562849695427177	3313475.6685303594
0.8564990407851035	3319602.5964802313
0.8567131655452999	3325684.624514726
0.8569273438366862	3331692.0932524693
0.8571415756726455	3337701.0638573985
0.8573558610665638	3343711.536704981
0.8575702000318304	3349723.5121707683
0.8577845925818384	3355840.737838225
0.857999038729984	3362607.5360928127
0.8582135384896665	3369376.0260469625
0.858428091874289	3376146.208123601
0.8586426988972576	3382918.082745757
0.8588573595719821	3389691.6503365706
0.8590720739118751	3395218.117953487
0.8592868419303532	3400598.7307181004
0.8595016636408359	3405980.6886359053
0.8597165390567462	3411363.992043188
0.8599314681915105	3416748.6412763232
0.8601464510585584	3420807.3833713997
0.860361487671323	3424162.6433652695
0.8605765780432408	3427518.7421741365
0.8607917221877518	3430875.6800077087
0.8610069201182988	3434233.4570757383
0.8612221718483286	3425676.3235616833
0.8614374773912907	3399938.884541538
0.8616528367606385	3374195.011161645
0.8618682499698288	3348444.7018133905
0.8620837170323213	3322687.9548878036
0.8622992379615795	3301256.762637213
0.8625148127710699	3301257.590542919
0.8627304414742627	3301258.4186556013
0.8629461240846313	3301259.246975312
0.8631618606156526	3301260.0755021027
0.8633776510808066	3301260.904236025
0.8635934954935769	3336936.0872429674
0.8638093938674504	3375544.480370352
0.8640253462159173	3414162.5255960175
0.8642413525524714	3452790.2253329884
0.8644574128906095	3491427.5819948856
0.8646735272438323	3496964.6580808917
0.8648896956256433	3487106.0789425336
0.8651059180495498	3477245.035159391
0.8653221945290621	3467381.5261153113
0.8655385250776946	3457515.551193957
0.8657549097089641	3459536.672205385
0.8659713484363913	3476779.5520304576
0.8661878412735006	3494026.7425754946
0.866404388233819	3511278.2449181657
0.8666209893308775	3528534.0601364146
0.8668376445782103	3543315.2043436123
0.8670543539893549	3547982.0477621807
0.8672711175778525	3552650.057891607
0.8674879353572469	3557319.2350235605
0.8677048073410862	3561989.5794497984
0.8679217335429217	3566661.091462146
0.8681387139763074	3575007.3044182323
0.8683557486548015	3583538.0956911147
0.8685728375919655	3592071.0196618256
0.8687899808013633	3600606.076863511
0.8690071782965637	3609143.2678295076
0.869224430091138	3614719.0902953516
0.8694417361986609	3619090.461174641
0.8696590966327107	3623462.924896649
0.869876511406869	3627836.4817345883
0.8700939805347206	3632211.1319617345
0.8703115040298544	3637299.471475069
0.870529081905862	3643203.7860173313
0.8707467141763385	3649109.5766382273
0.8709644008548827	3655016.843706778
0.8711821419550964	3660925.5875920923
0.8713999374905854	3667339.88166531
0.871617787474958	3675495.510135379
0.8718356919218269	3683653.177512573
0.8720536508448075	3691812.8843066124
0.8722716642575187	3699974.631027345
0.8724897321735832	3708138.4181847614
0.8727078546066265	3715278.8788358
0.8729260315702784	3722405.5253994456
0.873144263078171	3729533.9536247244
0.8733625491439405	3736664.16395706
0.8735808897812266	3743796.1568419817
0.8737992850036719	3746837.265311516
0.874017734824923	3748429.5785550657
0.8742362392586293	3750022.2898769258
0.874454798318444	3751615.399376616
0.8746734120180236	3753208.9071536814
0.8748920803710283	3756437.2951724976
0.875110803391121	3761308.9888180164
0.8753295810919689	3766181.9003869495
0.875548413487242	3771056.030183775
0.8757673005906139	3775931.37851305
0.8759862424157616	3783111.3352937065
0.8762052389763657	3796958.05361575
0.8764242902861098	3810808.233617364
0.8766433963586814	3824661.8761639823
0.8768625572077712	3838518.9821212413
0.8770817728470732	3852265.8293957836
0.8773010432902849	3857136.9116772283
0.8775203685511077	3862009.2117292504
0.8777397486432454	3866882.7298562797
0.8779591835804065	3871757.4663628465
0.8781786733763015	3876633.4215535335
0.8783982180446457	3872405.975376442
0.878617817599157	3865469.0179601163
0.8788374720535569	3858530.32630444
0.8790571814215703	3851589.8999758516
0.8792769457169257	3844647.7385406806
0.879496764953355	3839475.131286832
0.8797166391445934	3835893.7366813635
0.8799365683043796	3832311.4467272437
0.8801565524464557	3828728.261200635
0.8803765915845676	3825144.1798776416
0.8805966857324639	3828380.0121444683
0.880816834903897	3848748.48231508
0.881037039112623	3869122.044603242
0.8812572983724012	3889500.7002819744
0.8814776126969944	3909884.4506246354
0.8816979821001687	3929830.90888862
0.8819184065956938	3939368.465402273
0.8821388861973429	3948908.406305064
0.8823594209188923	3958450.7321930714
0.882580010774122	3967995.4436625466
0.8828006557768155	3977542.541309894
0.8830213559407598	3987261.1079467842
0.8832421112797452	3997024.6301187486
0.8834629218075651	4006790.5931712505
0.8836837875380171	4016558.9977145186
0.8839047084849018	4026329.844358924
0.884125684662023	4026043.180757323
0.8843467160831886	4017694.6779980995
0.8845678027622095	4009344.088113187
0.8847889447129001	4000991.410580801
0.8850101419490785	3992636.644879034
0.8852313944845657	3993450.065064556
0.885452702333187	4014336.2949176272
0.8856740655087704	4035227.746328159
0.8858954840251476	4056124.4206015375
0.8861169578961539	4077026.3190434743
0.886338487135628	4095688.284931084
0.886560071757412	4084477.6850301838
0.8867817117753515	4073264.282479308
0.8870034072032955	4062048.0765777896
0.8872251580550963	4050829.066624809
0.8874469643446101	4039607.2519193334
0.8876688260856963	4049560.06672502
0.8878907432922178	4063898.3113050614
0.8881127159780409	4078240.140446239
0.8883347441570356	4092585.555044719
0.8885568278430749	4106934.5559968334
0.8887789670500358	4115236.018157107
0.8890011617917983	4119247.0463483883
0.8892234120822464	4123259.07729672
0.8894457179352669	4127272.1112527847
0.8896680793647509	4131286.148467342
0.8898904963845921	4132546.1287577404
0.8901129690086883	4128549.6962150033
0.8903354972509405	4124552.264564132
0.8905580811252535	4120553.8335553445
0.8907807206455347	4116554.40293881
0.8910034158256963	4111559.260305711
0.8912261666796527	4097673.1622644444
0.8914489732213227	4083783.5926986635
0.8916718354646282	4069890.550740477
0.8918947534234944	4055994.0355218146
0.8921177271118502	4042094.0461743567
0.8923407565436284	4028232.8470033705
0.8925638417327644	4014375.077131701
0.8927869826931977	4000513.842817559
0.8930101794388711	3986649.1431948394
0.8932334319837308	3972780.9773972165
0.8934567403417267	3965527.893883787
0.8936801045268123	3962385.6464025537
0.8939035245529441	3959242.613359452
0.8941270004340824	3956098.7945580888
0.894350532184191	3952954.1898020254
0.8945741198172371	3970326.6496466473
0.8947977633471915	4021729.860632644
0.8950214627880284	4073145.9224213846
0.8952452181537254	4124574.838225542
0.8954690294582639	4176016.6112586814
0.8956928967156286	4221368.463380307
0.8959168199398075	4227126.776456261
0.8961407991447926	4232886.529110487
0.8963648343445789	4238647.721702876
0.896588925553165	4244410.354593408
0.8968130727845534	4250174.428142166
0.8970372760527496	4249702.869955952
0.8972615353717629	4248450.810475624
0.8974858507556059	4247198.437980426
0.8977102222182949	4245945.752392104
0.8979346497738496	4244692.753632385
0.8981591334362931	4266586.394565772
0.8983836732196523	4301144.033206886
0.8986082691379572	4335710.311257636
0.8988329212052417	4370285.2308779
0.8990576294355432	4404868.794228098
0.8992823938429022	4427691.31040516
0.8995072144413631	4433019.494324033
0.8997320912449734	4438349.010288884
0.8999570242677847	4443679.858632725
0.9001820135238516	4449012.039688651
0.9004070590272328	4454726.201700418
0.9006321607919896	4462437.2784629455
0.9008573188321878	4470150.28299467
0.9010825331618959	4477865.215777525
0.9013078037951865	4485582.077293576
0.9015331307461353	4493300.868025002
0.9017585140288219	4504814.109987666
0.9019839536573292	4516656.88997071
0.9022094496457435	4528502.6306487415
0.9024350020081551	4540351.332761955
0.9026606107586572	4552202.997050694
0.902886275911347	4567958.637155697
0.9031119974803249	4585598.775924236
0.9033377754796951	4603243.324727467
0.903563609923565	4620892.284667892
0.903789500826046	4638545.656848313
0.9040154482012526	4650036.952952609
0.904241452063303	4653542.973263593
0.9044675124263188	4657049.870079653
0.9046936293044254	4660557.643619917
0.9049198027117517	4664066.294103568
0.9051460326624297	4669043.673682175
0.9053723191705955	4680272.752608716
0.9055986622503881	4691504.638804978
0.9058250619159507	4702739.332972789
0.9060515181814298	4713976.835814149
0.9062780310609752	4725217.148031212
0.9065046005687405	4715062.896228891
0.906731226718883	4703712.40962443
0.9069579095255627	4692359.085398332
0.907184649002944	4681002.922841177
0.907411445165195	4669643.921243372
0.9076382980264862	4682527.174111519
0.907865207600993	4705482.59051691
0.9080921739028933	4728443.745776395
0.9083191969463691	4751410.6413246915
0.9085462767456058	4774383.2785968855
0.9087734133147922	4790025.031130849
0.9090006066681211	4797196.797942076
0.909227856819788	4804370.3576949965
0.9094551637839932	4811545.710837865
0.9096825275749393	4818722.857819018
0.9099099482068329	4826720.9926018305
0.9101374256938848	4837632.554874891
0.9103649600503083	4848546.8450385155
0.9105925512903209	4859463.863774679
0.9108201994281437	4870383.611765537
0.9110479044780008	4881306.0896933805
0.9112756664541204	4892076.069796466
0.911503485370734	4902845.189242852
0.9117313612420768	4913617.0009691
0.9119592940823873	4924391.505648276
0.912187283905908	4935168.703953625
0.9124153307268845	4926151.689466782
0.9126434345595664	4909947.3006122885
0.9128715954182063	4893738.860660597
0.9130998133170609	4877526.368598908
0.9133280882703902	4861309.823414206
0.913556420292458	4859852.190290423
0.9137848093975312	4873619.457778613
0.9140132555998806	4887390.167083674
0.9142417589137806	4901164.319066062
