#wavelength	surface flux
0.7	1370996.0727489353
0.7001166666666666	1372939.6465743927
0.7002333527777778	1374689.0271143494
0.700350058336574	1376438.6992177288
0.7004667833462966	1378188.662933123
0.7005835278101878	1379938.9183091414
0.7007002917314895	1381689.4653943863
0.7008170751134447	1383440.3042374784
0.7009338779592968	1385191.4348870437
0.7010507002722901	1386772.5185738741
0.7011675420556689	1388146.5747579543
0.701284403312678	1389520.8599513962
0.7014012840465635	1390895.3741923724
0.7015181842605713	1392270.1175190553
0.701635103957948	1393645.0899696248
0.701752043141941	1395020.2915822694
0.701869001815798	1396395.7223951844
0.7019859799827672	1397845.008027941
0.7021029776460976	1399345.7744672506
0.7022199948090387	1400846.791034302
0.7023370314748403	1402348.0577707803
0.7024540876467528	1403849.5747183813
0.702571163328027	1405351.3419188044
0.7026882585219152	1406853.3594137651
0.7028053732316688	1408355.6272449726
0.7029225074605406	1410467.7590789294
0.7030396612117841	1412815.6427129833
0.7031568344886527	1415163.9176609765
0.7032740272944008	1417512.5839881264
0.7033912396322832	1419861.6417596652
0.7035084715055552	1422211.0910408301
0.7036257229174727	1424560.9318968763
0.7037429938712924	1426911.1643930674
0.7038602843702709	1429174.7120459115
0.7039775944176659	1431423.8681368148
0.7040949240167356	1433673.3990870672
0.7042122731707383	1435923.3049591437
0.7043296418829335	1438173.5858155335
0.7044470301565806	1440424.2417187325
0.70456443799494	1442675.2727312467
0.7046818654012724	1444926.6789155977
0.7047993123788394	1446859.4215438196
0.7049167789309024	1448792.1201846388
0.7050342650607243	1450725.1409419011
0.7051517707715678	1452658.4838692888
0.7052692960666963	1454592.1490204965
0.705386840949374	1456526.136449229
0.7055044054228656	1458460.4462092025
0.7056219894904361	1460339.4287159361
0.7057395931553511	1461865.0768598425
0.705857216420877	1463390.9792784406
0.7059748592902804	1464917.1360141074
0.7060925217668288	1466443.5471092318
0.70621020385379	1467970.2126062054
0.7063279055544321	1469497.1325474263
0.7064456268720246	1471024.3069753065
0.7065633678098366	1472612.398183371
0.7066811283711383	1474367.8190252625
0.7067989085592001	1476123.5324372947
0.7069167083772933	1477879.5384682275
0.7070345278286895	1479635.8371668335
0.707152366916661	1481392.4285818895
0.7072702256444803	1483149.3127621794
0.7073881040154211	1484906.4897565017
0.7075060020327569	1486792.3875135907
0.7076239196997625	1488865.6352206103
0.7077418570197124	1490939.2284689127
0.7078598139958823	1493013.1673160894
0.7079777906315483	1495087.4518197426
0.7080957869299869	1497162.0820374785
0.7082138028944751	1499237.0580269159
0.7083318385282908	1501312.3798456865
0.7084498938347124	1502948.62250211
0.708567968817018	1504212.5843299923
0.7086860634784875	1505476.7568181807
0.7088041778224007	1506741.1400017848
0.7089223118520377	1508005.7339159178
0.7090404655706796	1509270.5385957025
0.709158638981608	1510535.5540762686
0.709276832088105	1511800.7803927483
0.7093950448934531	1513697.6975927467
0.7095132774009353	1515896.0905759742
0.7096315296138355	1518094.8499580333
0.7097498015354378	1520293.9757999887
0.7098680931690269	1522493.468162916
0.7099864045178884	1524693.327107906
0.7101047355853081	1526893.5526960534
0.7102230863745722	1529094.144988464
0.7103414568889679	1531191.6305983006
0.7104598471317828	1533265.9541838644
0.7105782571063047	1535340.6234900241
0.7106966868158224	1537415.6385744014
0.710815136263625	1539490.9994946257
0.7109336054530023	1541566.7063083379
0.7110520943872445	1543642.759073185
0.7111706030696424	1545719.1578468278
0.7112891315034873	1547494.072967295
0.7114076796920712	1549254.8827417684
0.7115262476386865	1551015.9859845373
0.7116448353466263	1552777.3827445123
0.711763442819184	1554539.0730706146
0.711882070059654	1556301.057011773
0.7120007170713306	1558063.3346169207
0.7121193838575091	1559832.4485383863
0.7122380704214853	1561670.0949907543
0.7123567767665555	1563508.0477175293
0.7124755028960166	1565346.3067697596
0.7125942488131658	1567184.8721984974
0.7127130145213015	1569023.7440548115
0.7128318000237216	1570862.9223897627
0.7129506053237256	1572702.407254439
0.7130694304246129	1574519.7948611716
0.7131882753296837	1576259.1536531
0.7133071400422386	1577998.8023381603
0.7134260245655789	1579738.7409646674
0.7135449289030065	1581478.9695809458
0.7136638530578235	1583219.488235326
0.7137827970333332	1584960.2969761514
0.7139017608328388	1586701.3958517662
0.7140207444596443	1588444.6710063322
0.7141397479170543	1590191.6013144865
0.7142587712083737	1591938.8227776897
0.7143778143369084	1593686.3354444713
0.7144968773059646	1595434.1393633648
0.7146159601188489	1597182.2345829105
0.7147350627788687	1598930.6211516599
0.7148541852893318	1600679.2991181698
0.7149733276535467	1602138.3265368778
0.7150924898748222	1603305.2261005167
0.715211671956468	1604472.3201474163
0.7153308739017941	1605639.6087099914
0.715450095714111	1606807.0918206598
0.71556933739673	1607974.7695118466
0.7156885989529628	1609142.6418159818
0.7158078803861218	1610310.708765503
0.7159271816995193	1610509.7363422723
0.7160465028964692	1610139.9171716382
0.7161658439802853	1609770.0363644757
0.7162852049542819	1609400.0939105123
0.7164045858217744	1609030.0897994726
0.716523986586078	1608660.0240210814
0.7166434072505089	1608289.8965650608
0.716762847818384	1607919.7074211305
0.7168823082930204	1608836.8972213815
0.7170017886777359	1610132.9994447571
0.7171212889758488	1611429.3176851692
0.7172408091906781	1612725.8519786217
0.7173603493255433	1614022.6023611233
0.7174799093837642	1615319.568868688
0.7175994893686615	1616616.751537338
0.7177190892835562	1617914.1504030987
0.7178387091317702	1622176.6860830446
0.7179583489166254	1626737.5594297787
0.7180780086414448	1631299.192922074
0.7181976883095517	1635861.586686618
0.7183173879242699	1640424.740850123
0.718437107488924	1644988.655539323
0.7185568470068389	1649553.3308809733
0.7186766064813399	1653999.4665107052
0.7187963859157535	1655463.5679685548
0.7189161853134061	1656927.9134433137
0.719036004677625	1658392.502975652
0.7191558440117378	1659857.3366062448
0.7192757033190732	1661322.414375778
0.7193955826029597	1662787.7363249378
0.7195154818667269	1664253.3024944237
0.7196354011137046	1665603.2108699947
0.7197553403472235	1666419.7104517592
0.7198752995706147	1667236.346116787
0.7199952787872098	1668053.1178877596
0.720115278000341	1668870.0257873605
0.7202352972133411	1669687.0698382782
0.7203553364295432	1670504.2500632033
0.7204753956522815	1671321.5664848336
0.7205954748848902	1672673.1814113478
0.7207155741307044	1675202.649805705
0.7208356933930594	1677732.5397781236
0.7209558326752915	1680262.8513988717
0.7210759919807375	1682793.5847382266
0.7211961713127342	1685324.739866468
0.7213163706746197	1687856.3168539014
0.7214365900697322	1690388.3157708303
0.7215568295014103	1692084.6755770175
0.721677088972994	1692783.7563596112
0.7217973684878227	1693482.9536556676
0.7219176680492374	1694182.2674846074
0.7220379876605789	1694881.6978658517
0.722158327325189	1695581.2448188264
0.7222786870464099	1696280.9083629595
0.7223990668275843	1696980.6885176837
0.7225194666720555	1698393.3929438835
0.7226398865831676	1700311.5174413812
0.7227603265642646	1702229.9616262903
0.722880786618692	1704148.7255519012
0.7230012667497951	1706067.8092714981
0.7231217669609201	1707987.212838382
0.7232422872554135	1709906.9363058587
0.7233628276366229	1711826.97972725
0.7234833881078956	1714246.133881758
0.7236039686725803	1716855.0628180166
0.7237245693340255	1719464.4265757604
0.7238451900955812	1722074.2252274686
0.7239658309605971	1724684.458845616
0.7240864919324239	1727295.1275027029
0.7242071730144127	1729906.231271233
0.724327874209915	1732517.770223719
0.7244485955222832	1731775.1303555241
0.7245693369548704	1730477.709617792
0.7246900985110294	1729180.072643272
0.7248108801941148	1727882.2193959197
0.7249316820074803	1726584.1498396972
0.7250525039544815	1725285.8639385465
0.7251733460384739	1723987.361656412
0.7252942082628137	1722696.3565768208
0.7254150906308574	1725874.6518326974
0.7255359931459625	1729053.4768044504
0.7256569158114868	1732232.8315803665
0.7257778586307888	1735412.7162487465
0.7258988216072273	1738593.1308979038
0.7260198047441617	1741774.0756161658
0.7261408080449525	1744955.550491886
0.72626183151296	1747980.9691752316
0.7263828751515454	1749966.2853709317
0.7265039389640706	1751951.9324526642
0.726625022953898	1753937.9104755782
0.7267461271243904	1755924.21949483
0.7268672514789111	1757910.859565584
0.7269883960208241	1759897.8307430143
0.7271095607534942	1761885.1330823093
0.7272307456802866	1763735.353938641
0.7273519508045666	1765214.6982946254
0.7274731761297006	1766694.289208002
0.7275944216590555	1768174.1267198639
0.7277156873959987	1769654.2108713116
0.7278369733438982	1771134.5417034535
0.727958279506122	1772615.119257397
0.7280796058860397	1774095.943574268
0.7282009524870207	1774960.4615239135
0.7283223193124353	1774913.1727602854
0.7284437063656539	1774865.8761151969
0.7285651136500483	1774818.571587334
0.7286865411689898	1774771.259175383
0.7288079889258514	1774723.93887803
0.7289294569240056	1774676.6106939611
0.7290509451668262	1774629.2746218613
0.7291724536576875	1775009.349114519
0.7292939823999636	1775743.6491527741
0.7294155313970303	1776478.0715743701
0.7295371006522632	1777212.616399703
0.7296586901690385	1777947.2836491729
0.7297802999507332	1778682.073343184
0.7299019300007252	1779416.985502146
0.7300235803223919	1780152.0201464659
0.7301452509191123	1781827.5138986842
0.7302669417942654	1783937.317547451
0.7303886529512311	1786047.4728301598
0.7305103843933897	1788157.9798054164
0.7306321361241218	1790268.8385318338
0.7307539081468093	1792380.0490680428
0.7308757004648336	1794491.6114726698
0.7309975130815778	1796603.525804367
0.7311193460004248	1799413.9012336172
0.7312411992247582	1802382.7880496029
0.7313630727579622	1805352.1696800573
0.7314849666034219	1808322.0462074531
0.7316068807645224	1811292.4177142684
0.7317288152446498	1814263.2842830026
0.7318507700471907	1817234.6459961669
0.7319727451755319	1820206.5029362817
0.732094740633061	1820851.316616448
0.7322167564231665	1821391.4512420336
0.7323387925492371	1821931.6758900569
0.7324608490146619	1822471.9905755215
0.732582925822831	1823012.3953134336
0.7327050229771347	1823552.8901188015
0.7328271404809642	1824093.4750066374
0.7329492783377112	1824604.1424159303
0.7330714365507675	1824819.8887069647
0.7331936151235259	1825035.6709557138
0.7333158140593796	1825251.489168171
0.7334380333617229	1825467.3433503308
0.7335602730339499	1825683.2335081873
0.7336825330794556	1825899.1596477372
0.7338048135016354	1826115.1217749766
0.7339271143038857	1826895.9503663448
0.734049435489603	1829569.4784784317
0.7341717770621846	1832243.4521785378
0.7342941390250283	1834917.8715409262
0.7344165213815324	1837592.7366398736
0.734538924135096	1840268.047549675
0.7346613472891185	1842943.8043446243
0.734783790847	1845620.0070990406
0.7349062548121412	1847106.705330261
0.7350287391879431	1846490.3651365782
0.7351512439778078	1845873.9222195286
0.7352737691851374	1845257.3765619935
0.735396314813335	1844640.7281468483
0.7355188808658037	1844023.9769569682
0.7356414673459482	1843407.122975222
0.7357640742571725	1842790.1661844791
0.7358867016028818	1842884.7242198868
0.7360093493864824	1843682.0846205247
0.7361320176113801	1844479.5779145616
0.736254706280982	1845277.2041241475
0.7363774153986956	1846074.963271436
0.7365001449679286	1846872.8553785807
0.7366228949920899	1847670.880467744
0.7367456654745885	1848469.038561089
0.7368684564188344	1849499.3055081933
0.7369912678282374	1850660.852015342
0.7371140997062088	1851822.592113576
0.7372369520561599	1852984.5258351606
0.7373598248815024	1854146.653212363
0.7374827181856494	1855308.9742774633
0.7376056319720137	1856471.4890627414
0.7377285662440091	1857634.197600484
0.7378515210050496	1858467.182732907
0.7379744962585505	1859201.0446502636
0.738097492007927	1859935.0288779396
0.7382205082565949	1860669.1354363197
0.738343545007971	1861403.364345793
0.7384666022654723	1862137.7156267518
0.7385896800325165	1862872.1892995895
0.7387127783125219	1863606.7853847072
0.7388358971089073	1864231.6298613984
0.7389590364250921	1864845.557839798
0.7390821962644963	1865459.588139528
0.7392053766305403	1866073.7207776404
0.7393285775266454	1866687.955771193
0.7394517989562333	1867302.2931372449
0.7395750409227259	1867916.732892857
0.7396983034295463	1868499.4475757985
0.739821586480118	1868374.2334145787
0.7399448900778645	1868248.9983843323
0.7400682142262109	1868123.7424815805
0.740191558928582	1867998.465702845
0.7403149241884034	1867873.1680446465
0.7404383100091014	1867747.849503505
0.7405617163941028	1867622.51007594
0.7406851433468352	1867278.2665910681
0.7408085908707264	1865932.6278808252
0.7409320589692048	1864586.7648974645
0.7410555476456997	1863240.6776036057
0.7411790569036406	1861894.3659618653
0.7413025867464579	1860547.829934851
0.7414261371775823	1859201.0694851652
0.7415497082004452	1857854.0845754053
0.7416732998184786	1856546.68891278
0.741796912035115	1855324.483671825
0.7419205448537874	1854102.0747299965
0.7420441982779297	1852879.4620533446
0.742167872310976	1851656.645607912
0.7422915669563612	1850433.6253597385
0.7424152822175206	1849210.4012748576
0.7425390180978901	1847986.9733192963
0.7426627746009065	1847231.5836791599
0.7427865517300065	1847046.8889370428
0.7429103494886282	1846862.1634124685
0.7430341678802096	1846677.407100307
0.7431580069081896	1846492.6199954269
0.7432818665760077	1846307.8020926956
0.7434057468871037	1846122.9533869806
0.7435296478449182	1845938.073873148
0.7436535694528923	1845125.4104196585
0.7437775117144678	1843882.8952521028
0.7439014746330868	1842640.1729986877
0.7440254582121922	1841397.243624896
0.7441494624552276	1840154.107096208
0.7442734873656368	1838910.763378099
0.7443975329468645	1837667.212436036
0.7445215992023557	1836423.4542354827
0.7446456861355559	1834619.6389543233
0.7447697937499119	1832609.2892406478
0.7448939220488703	1830598.604468687
0.7450180710358784	1828587.5845825996
0.7451422407143843	1826576.2295265307
0.7452664310878367	1824564.5392446173
0.7453906421596846	1822552.5136809924
0.7455148739333779	1820540.1527797729
0.7456391264123667	1817960.971001945
0.7457633996001021	1815290.7814641986
0.7458876935000356	1812620.146894858
0.7460120081156189	1809949.067219761
0.7461363434503048	1807277.5423647168
0.7462606995075466	1804605.5722555276
0.7463850762907978	1801933.1568179908
0.7465094738035127	1799259.0582901244
0.7466338920491467	1796260.7418469207
0.746758331031155	1793261.9256843065
0.7468827907529935	1790262.6097190024
0.7470072712181189	1787262.7938677038
0.7471317724299886	1784262.4780470962
0.7472562943920602	1781261.6621738537
0.7473808371077922	1778260.34616463
0.7475054005806435	1775151.8172528588
0.7476299848140736	1771385.461974394
0.7477545898115426	1767618.478970049
0.7478792155765113	1763850.868135202
0.7480038621124406	1760082.629365219
0.7481285294227926	1756313.7625554418
0.7482532175110298	1752544.2676011925
0.7483779263806148	1748774.1443977891
0.7485026560350116	1744785.3045760705
0.7486274064776842	1740205.5522275239
0.748752177712097	1735625.0365869275
0.7488769697417158	1731043.7575270478
0.749001782570006	1726461.7149206635
0.7491266162004343	1721878.9086405132
0.7492514706364677	1717295.338559314
0.7493763458815739	1712711.0045497632
0.7495012419392209	1707695.885406525
0.7496261588128773	1702061.7238649994
0.7497510965060128	1696426.6232965458
0.7498760550220971	1690790.5835446664
0.7500010343646007	1685153.6044528277
0.7501260345369949	1679515.6858644707
0.750251055542751	1673876.827623022
0.7503760973853414	1668237.029571863
0.7505011600682389	1661989.9813072847
0.750626243594917	1655235.636675594
0.7507513479688495	1648480.166319808
0.7508764731935109	1641723.5700522938
0.7510016192723765	1634965.8476854
0.7511267862089218	1628206.9990314513
0.7512519740066232	1621447.0239027247
0.7513771826689577	1614685.9221114726
0.7515024121994025	1607182.1505132406
0.7516276626014359	1599331.3792875614
0.751752933878536	1591479.299600025
0.7518782260341824	1583625.9112325378
0.7520035390718548	1575771.2139669862
0.7521288729950334	1567915.2075852274
0.7522542278071992	1560057.8918690712
0.7523796035118337	1552199.266600292
0.7525050001124189	1543133.799390534
0.7526304176124378	1533804.6449835778
0.7527558560153731	1524473.9357175657
0.752881315324709	1515141.6713333337
0.7530067955439299	1505807.851571701
0.7531322966765205	1496472.4761734537
0.7532578187259665	1487135.5448793038
0.7533833616957542	1477797.0574299386
0.75350892558937	1467018.8800969047
0.7536345104103016	1456171.2812550208
0.7537601161620366	1445321.8744800023
0.7538857428480638	1434470.6594705107
0.7540113904718717	1423617.6359251982
0.7541370590369503	1412762.8035426305
0.7542627485467898	1401906.1620213257
0.7543884590048808	1390921.215968822
0.7545141904147151	1378673.015711534
0.7546399427797842	1366422.7740875564
0.7547657161035808	1354170.4907566397
0.754891510389598	1341916.1653785016
0.7550173256413296	1329659.7976127958
0.7551431618622698	1317401.3871191319
0.7552690190559135	1305140.933557055
0.7553948972257561	1292443.7422727253
0.7555207963752938	1278285.3296346306
0.755646716508023	1264124.5572611045
0.755772657627441	1249961.4247588443
0.7558986197370455	1235795.9317344984
0.756024602840335	1221628.0777946522
0.7561506069408084	1207457.862545816
0.7562766320419653	1193285.2855944256
0.7564026781473054	1178279.7678664438
0.75652874526033	1161810.1523329415
0.7566548333845401	1145337.7918635085
0.7567809425234375	1128862.6860006698
0.7569070726805247	1112384.8342868632
0.7570332238593047	1095904.23626444
0.7571593960632813	1079420.891475664
0.7572855892959586	1062934.7994627554
0.7574118035608413	1046036.7526832098
0.7575380388614347	1028735.5489170089
0.7576642952012449	1011431.4616168406
0.7577905725837782	994124.4903021471
0.7579168710125422	976814.6344922037
0.7580431904910444	959501.8937062855
0.7581695310227928	942186.2674635915
0.7582958926112967	924867.7552831686
0.7584222752600652	906622.4688325991
0.7585486789726085	887843.4031897205
0.7586751037524372	869061.207702561
0.7588015496030628	850275.8818494503
0.7589280165279966	831487.4251087345
0.7590545045307512	812695.8369585621
0.7591810136148396	793901.1168770316
0.7593075437837755	775103.2643421266
0.7594340950410726	755727.1357004411
0.7595606673902461	736180.907647521
0.7596872608348112	716631.4218899058
0.7598138753782836	697078.6778846859
0.75994051102418	677522.6750887802
0.7600671677760173	657963.4129590906
0.7601938456373134	638400.8909523642
0.7603205446115863	618835.1085253145
0.7604472647023548	599101.2748923367
0.7605740059131385	579347.7721566891
0.7607007682474575	559590.9771705662
0.7608275517088319	539830.8893853228
0.7609543563007835	520067.5082520714
0.7610811820268336	500300.83322197635
0.7612080288905045	480530.8637460809
0.7613348968953197	460767.9824566772
0.7614617860448022	441214.8473107096
0.7615886963424764	421658.4533088576
0.7617156277918667	402098.7999080243
0.7618425803964988	382535.88656494144
0.7619695541598982	362969.7127363066
0.7620965490855914	343400.2778787147
0.7622235651771058	323827.5814486239
0.7623506024379685	304874.8448692377
0.7624776608717082	288650.5994108452
0.7626047404818536	272423.6499115422
0.7627318412719337	256193.9959206839
0.762858963245479	239961.63698748357
0.7629861064060198	223726.57266112627
0.7631132707570876	207488.80249069768
0.7632404563022137	191248.32602525526
0.7633676630449308	176202.14400512134
0.7634948909887717	163701.472396777
0.7636221401372697	151198.7173431809
0.7637494104939593	138693.87849706408
0.7638767020623748	126186.9555111576
0.7640040148460518	113677.94803807259
0.7641313488485262	101166.85573040917
0.7642587040733344	88653.67824068028
0.7643860805240132	78269.44625093942
0.7645134782041005	70426.44239476953
0.7646408971171346	62582.13137128702
0.764768337266654	54736.5129626368
