#wavelength	surface flux
0.7	665174.9111148632
0.7001166666666666	666084.4525280776
0.7002333527777778	666969.9065826744
0.700350058336574	667855.5082129465
0.7004667833462966	668741.257443489
0.7005835278101878	669627.1542989059
0.7007002917314895	670513.1988037972
0.7008170751134447	671399.3909827726
0.7009338779592968	672285.730860444
0.7010507002722901	673160.011017647
0.7011675420556689	674019.5812407125
0.701284403312678	674879.2947254807
0.7014012840465635	675739.1514958309
0.7015181842605713	676599.1515756425
0.701635103957948	677459.2949888003
0.701752043141941	678319.5817591933
0.701869001815798	679180.0119107161
0.7019859799827672	680033.5180251279
0.7021029776460976	680882.2478487849
0.7022199948090387	681731.1191274136
0.7023370314748403	682580.1318845884
0.7024540876467528	683429.2861438892
0.702571163328027	684278.5819288985
0.7026882585219152	685128.0192632074
0.7028053732316688	685977.5981704043
0.7029225074605406	686906.5655462262
0.7030396612117841	687866.288601633
0.7031568344886527	688826.1716108827
0.7032740272944008	689786.2146006332
0.7033912396322832	690746.4175975493
0.7035084715055552	691706.7806282971
0.7036257229174727	692667.3037195505
0.7037429938712924	693627.9868979866
0.7038602843702709	694595.3390132404
0.7039775944176659	695563.9562978499
0.7040949240167356	696532.7350186738
0.7042122731707383	697501.6752026173
0.7043296418829335	698470.7768765921
0.7044470301565806	699440.0400675124
0.70456443799494	700409.4648022971
0.7046818654012724	701379.0511078715
0.7047993123788394	702317.0864828205
0.7049167789309024	703255.2418054632
0.7050342650607243	704193.5534873278
0.7051517707715678	705132.0215544723
0.7052692960666963	706070.6460329609
0.705386840949374	707009.426948862
0.7055044054228656	707948.3643282508
0.7056219894904361	708881.3873590723
0.7057395931553511	709775.9863636893
0.705857216420877	710670.7344681411
0.7059748592902804	711565.6316972765
0.7060925217668288	712460.678075951
0.70621020385379	713355.8736290216
0.7063279055544321	714251.21838135
0.7064456268720246	715146.7123578052
0.7065633678098366	716050.1503592795
0.7066811283711383	716975.2058898582
0.7067989085592001	717900.4155963587
0.7069167083772933	718825.7795044763
0.7070345278286895	719751.2976399126
0.707152366916661	720676.9700283717
0.7072702256444803	721602.796695561
0.7073881040154211	722528.7776671962
0.7075060020327569	723466.7117648597
0.7076239196997625	724421.9853301424
0.7077418570197124	725377.4181076852
0.7078598139958823	726333.0101240241
0.7079777906315483	727288.7614057
0.7080957869299869	728244.6719792554
0.7082138028944751	729200.7418712393
0.7083318385282908	730156.9711082058
0.7084498938347124	731083.3499917483
0.708567968817018	731984.4404137516
0.7086860634784875	732885.6810174929
0.7088041778224007	733787.0718280022
0.7089223118520377	734688.6128703121
0.7090404655706796	735590.3041694617
0.709158638981608	736492.1457504957
0.709276832088105	737394.13763846
0.7093950448934531	738347.5520904101
0.7095132774009353	739325.577725337
0.7096315296138355	740303.7663645367
0.7097498015354378	741282.1180351761
0.7098680931690269	742260.6327644263
0.7099864045178884	743239.3105794658
0.7101047355853081	744218.1515074745
0.7102230863745722	745197.1555756371
0.7103414568889679	746171.1703184936
0.7104598471317828	747144.1766294189
0.7105782571063047	748117.3451080619
0.7106966868158224	749090.6757814514
0.710815136263625	750064.1686766195
0.7109336054530023	751037.8238206042
0.7110520943872445	752011.6412404459
0.7111706030696424	752985.6209631914
0.7112891315034873	753950.2259122457
0.7114076796920712	754914.536586111
0.7115262476386865	755879.0079784218
0.7116448353466263	756843.6401159641
0.711763442819184	757808.4330255298
0.711882070059654	758773.3867339146
0.7120007170713306	759738.5012679169
0.7121193838575091	760707.6245541186
0.7122380704214853	761717.0419705946
0.7123567767665555	762726.6276233054
0.7124755028960166	763736.3815402923
0.7125942488131658	764746.3037495979
0.7127130145213015	765756.3942792745
0.7128318000237216	766766.6531573696
0.7129506053237256	767777.0804119458
0.7130694304246129	768786.6086816592
0.7131882753296837	769792.5732367005
0.7133071400422386	770798.7054525012
0.7134260245655789	771805.0053570038
0.7135449289030065	772811.4729781576
0.7136638530578235	773818.1083439143
0.7137827970333332	774824.9114822333
0.7139017608328388	775831.8824210753
0.7140207444596443	776842.968802735
0.7141397479170543	777861.2658509613
0.7142587712083737	778879.7326153611
0.7143778143369084	779898.3691242223
0.7144968773059646	780917.1754058353
0.7146159601188489	781936.1514884948
0.7147350627788687	782955.2974005016
0.7148541852893318	783974.6131701599
0.7149733276535467	784973.1736032775
0.7150924898748222	785950.7999364665
0.715211671956468	786928.5892073778
0.7153308739017941	787906.5414431682
0.715450095714111	788884.6566709976
0.71556933739673	789862.9349180317
0.7156885989529628	790841.3762114402
0.7158078803861218	791819.980578399
0.7159271816995193	792699.4102352855
0.7160465028964692	793520.6813663772
0.7161658439802853	794342.0893759907
0.7162852049542819	795163.6342869389
0.7164045858217744	795985.3161220396
0.716523986586078	796807.1349041123
0.7166434072505089	797629.0906559817
0.716762847818384	798451.1834004766
0.7168823082930204	799412.8937727283
0.7170017886777359	800415.7990326073
0.7171212889758488	801418.8714433624
0.7172408091906781	802422.1110328529
0.7173603493255433	803425.5178289419
0.7174799093837642	804429.0918594964
0.7175994893686615	805432.8331523899
0.7177190892835562	806436.7417354982
0.7178387091317702	807691.6430167672
0.7179583489166254	808971.9320203543
0.7180780086414448	810252.434405443
0.7181976883095517	811533.1502075959
0.7183173879242699	812814.0794623826
0.718437107488924	814095.2222053787
0.7185568470068389	815376.5784721659
0.7186766064813399	816647.7427171125
0.7187963859157535	817658.9563603904
0.7189161853134061	818670.3385392755
0.719036004677625	819681.8892818571
0.7191558440117378	820693.6086162286
0.7192757033190732	821705.4965704904
0.7193955826029597	822717.5531727435
0.7195154818667269	823729.7784510978
0.7196354011137046	824729.5245533842
0.7197553403472235	825671.204178393
0.7198752995706147	826613.0407500055
0.7199952787872098	827555.0342943806
0.720115278000341	828497.1848376797
0.7202352972133411	829439.4924060695
0.7203553364295432	830381.9570257193
0.7204753956522815	831324.5787228071
0.7205954748848902	832325.6429639413
0.7207155741307044	833455.3716613399
0.7208356933930594	834585.2886468527
0.7209558326752915	835715.3939518634
0.7210759919807375	836845.6876077597
0.7211961713127342	837976.1696459306
0.7213163706746197	839106.8400977764
0.7214365900697322	840237.6989946961
0.7215568295014103	841292.436587914
0.721677088972994	842256.2995476016
0.7217973684878227	843220.3231511142
0.7219176680492374	844184.5074252285
0.7220379876605789	845148.8523967213
0.722158327325189	846113.3580923763
0.7222786870464099	847078.0245389801
0.7223990668275843	848042.8517633254
0.7225194666720555	849063.6799872341
0.7226398865831676	850124.2536933499
0.7227603265642646	851185.0041617475
0.722880786618692	852245.9314218921
0.7230012667497951	853307.0355032461
0.7231217669609201	854368.3164352804
0.7232422872554135	855429.7742474691
0.7233628276366229	856491.408969295
0.7234833881078956	857642.9646172017
0.7236039686725803	858828.7845195184
0.7237245693340255	860014.8020584836
0.7238451900955812	861201.0172670409
0.7239658309605971	862387.4301781316
0.7240864919324239	863574.0408247089
0.7242071730144127	864760.8492397275
0.724327874209915	865947.8554561461
0.7244485955222832	866823.917691279
0.7245693369548704	867648.681266246
0.7246900985110294	868473.5823018077
0.7248108801941148	869298.6208208775
0.7249316820074803	870123.7968463643
0.7250525039544815	870949.1104011901
0.7251733460384739	871774.5615082751
0.7252942082628137	872600.881752425
0.7254150906308574	873851.229840949
0.7255359931459625	875101.786320821
0.7256569158114868	876352.5512267735
0.7257778586307888	877603.5245935443
0.7258988216072273	878854.7064558759
0.7260198047441617	880106.0968485164
0.7261408080449525	881357.6958062245
0.72626183151296	882594.0466549848
0.7263828751515454	883727.88486405
0.7265039389640706	884861.9120461497
0.726625022953898	885996.1282327805
0.7267461271243904	887130.5334554429
0.7268672514789111	888265.1277456417
0.7269883960208241	889399.9111348878
0.7271095607534942	890534.8836546997
0.7272307456802866	891658.6149632495
0.7273519508045666	892751.6573629465
0.7274731761297006	893844.8819363763
0.7275944216590555	894938.2887139017
0.7277156873959987	896031.8777258904
0.7278369733438982	897125.6490027161
0.727958279506122	898219.6025747517
0.7280796058860397	899313.738472384
0.7282009524870207	900370.0797453366
0.7283223193124353	901370.4248916581
0.7284437063656539	902370.9367621688
0.7285651136500483	903371.6153846594
0.7286865411689898	904372.4607869184
0.7288079889258514	905373.4729967469
0.7289294569240056	906374.6520419414
0.7290509451668262	907375.9979503113
0.7291724536576875	908422.1283387591
0.7292939823999636	909505.4035578142
0.7294155313970303	910588.8593227415
0.7295371006522632	911672.4956636293
0.7296586901690385	912756.3126105729
0.7297802999507332	913840.310193674
0.7299019300007252	914924.4884430417
0.7300235803223919	916008.8473887814
0.7301452509191123	917173.1873107547
0.7302669417942654	918374.5546467074
0.7303886529512311	919576.1222105498
0.7305103843933897	920777.8900356531
0.7306321361241218	921979.858155393
0.7307539081468093	923182.0266031551
0.7308757004648336	924384.3954123225
0.7309975130815778	925586.9646162929
0.7311193460004248	926870.5119678008
0.7312411992247582	928172.5602883121
0.7313630727579622	929474.8256168766
0.7314849666034219	930777.3079896638
0.7316068807645224	932080.0074428456
0.7317288152446498	933382.9240126036
0.7318507700471907	934686.0577351239
0.7319727451755319	935989.4086465974
0.732094740633061	937103.2567227227
0.7322167564231665	938208.7491829873
0.7323387925492371	939314.4258919952
0.7324608490146619	940420.2868804544
0.732582925822831	941526.3321790786
0.7327050229771347	942632.5618185847
0.7328271404809642	943738.9758296984
0.7329492783377112	944842.7334029691
0.7330714365507675	945918.7464703918
0.7331936151235259	946994.9388733254
0.7333158140593796	948071.3106416583
0.7334380333617229	949147.8618052875
0.7335602730339499	950224.5923941113
0.7336825330794556	951301.5024380333
0.7338048135016354	952378.5919669607
0.7339271143038857	953508.4133195695
0.734049435489603	954814.5092454193
0.7341717770621846	956120.8228539234
0.7342941390250283	957427.3541813617
0.7344165213815324	958734.1032640208
0.734538924135096	960041.0701381955
0.7346613472891185	961348.2548401809
0.734783790847	962655.6574062837
0.7349062548121412	963863.5114631848
0.7350287391879431	964895.2256255372
0.7351512439778078	965927.111740252
0.7352737691851374	966959.1698359847
0.735396314813335	967991.399941401
0.7355188808658037	969023.8020851664
0.7356414673459482	970056.376295958
0.7357640742571725	971089.1226024505
0.7358867016028818	972203.7606624039
0.7360093493864824	973399.2899985895
0.7361320176113801	974595.0185896629
0.736254706280982	975790.9464688346
0.7363774153986956	976987.0736693214
0.7365001449679286	978183.4002243389
0.7366228949920899	979379.9261671166
0.7367456654745885	980576.6515308848
0.7368684564188344	981784.2100623233
0.7369912678282374	982997.9798042532
0.7371140997062088	984211.9518411406
0.7372369520561599	985426.126206702
0.7373598248815024	986640.5029346549
0.7374827181856494	987855.0820587312
0.7376056319720137	989069.8636126616
0.7377285662440091	990284.8476301845
0.7378515210050496	991489.3827868442
0.7379744962585505	992690.9140297138
0.738097492007927	993892.6455277904
0.7382205082565949	995094.5773144494
0.738343545007971	996296.7094230724
0.7384666022654723	997499.041887048
0.7385896800325165	998701.574739766
0.7387127783125219	999904.3080146274
0.7388358971089073	1001160.8686565527
0.7389590364250921	1002423.0176375826
0.7390821962644963	1003685.376976777
0.7392053766305403	1004947.9467091928
0.7393285775266454	1006210.7268698981
0.7394517989562333	1007473.7174939649
0.7395750409227259	1008736.9186164669
0.7396983034295463	1009996.8317965709
0.739821586480118	1011179.128761768
0.7399448900778645	1012361.622776457
0.7400682142262109	1013544.3138734853
0.740191558928582	1014727.2020856952
0.7403149241884034	1015910.2874459395
0.7404383100091014	1017093.5699870775
0.7405617163941028	1018277.0497419717
0.7406851433468352	1019441.6906284324
0.7408085908707264	1020519.4399733187
0.7409320589692048	1021597.3689430953
0.7410555476456997	1022675.4775677011
0.7411790569036406	1023753.7658770769
0.7413025867464579	1024832.2339011711
0.7414261371775823	1025910.8816699364
0.7415497082004452	1026989.7092133289
0.7416732998184786	1028089.7996690278
0.741796912035115	1029235.300890135
0.7419205448537874	1030380.9930281122
0.7420441982779297	1031526.8761147789
0.742167872310976	1032672.9501819612
0.7422915669563612	1033819.215261488
0.7424152822175206	1034965.6713851944
0.7425390180978901	1036112.3185849207
0.7426627746009065	1037313.8362417367
0.7427865517300065	1038582.2121936891
0.7429103494886282	1039850.799541635
0.7430341678802096	1041119.5983208044
0.7431580069081896	1042388.608566437
0.7432818665760077	1043657.8303137791
0.7434057468871037	1044927.2635980778
0.7435296478449182	1046196.90845459
0.7436535694528923	1047412.6759507048
0.7437775117144678	1048591.6205171503
0.7439014746330868	1049770.7615743552
0.7440254582121922	1050950.0991550705
0.7441494624552276	1052129.6332920496
0.7442734873656368	1053309.3640180514
0.7443975329468645	1054489.2913658419
0.7445215992023557	1055669.4153681903
0.7446456861355559	1056804.3593801002
0.7447697937499119	1057922.7769860975
0.7448939220488703	1059041.3809950287
0.7450180710358784	1060160.1714379606
0.7451422407143843	1061279.1483459664
0.7452664310878367	1062398.3117501244
0.7453906421596846	1063517.6616815154
0.7455148739333779	1064637.1981712286
0.7456391264123667	1065799.4725367767
0.7457633996001021	1066968.7443301242
0.7458876935000356	1068138.211002106
0.7460120081156189	1069307.8725851974
0.7461363434503048	1070477.7291118868
0.7462606995075466	1071647.7806146648
0.7463850762907978	1072818.027126025
0.7465094738035127	1073988.539225629
0.7466338920491467	1075177.7011550185
0.746758331031155	1076367.0612780643
0.7468827907529935	1077556.6196277956
0.7470072712181189	1078746.376237252
0.7471317724299886	1079936.3311394767
0.7472562943920602	1081126.4843675178
0.7473808371077922	1082316.8359544312
0.7475054005806435	1083500.44225879
0.7476299848140736	1084641.4755191715
0.7477545898115426	1085782.6989517633
0.7478792155765113	1086924.112588261
0.7480038621124406	1088065.7164603637
0.7481285294227926	1089207.5105997783
0.7482532175110298	1090349.4950382172
0.7483779263806148	1091491.6698073943
0.7485026560350116	1092621.6508155817
0.7486274064776842	1093718.3029876049
0.748752177712097	1094815.137934988
0.7488769697417158	1095912.1556881978
0.749001782570006	1097009.3562776987
0.7491266162004343	1098106.739733964
0.7492514706364677	1099204.3060874725
0.7493763458815739	1100302.055368708
0.7495012419392209	1101381.9972284809
0.7496261588128773	1102436.2557638725
0.7497510965060128	1103490.690009021
0.7498760550220971	1104545.2999932098
0.7500010343646007	1105600.0857457293
0.7501260345369949	1106655.047295875
0.750251055542751	1107710.1846729442
0.7503760973853414	1108765.497906244
0.7505011600682389	1109783.8663457388
0.750626243594917	1110771.4095948609
0.7507513479688495	1111759.1174345228
0.7508764731935109	1112746.9898921584
0.7510016192723765	1113735.0269952037
0.7511267862089218	1114723.2287710987
0.7512519740066232	1115711.59524729
0.7513771826689577	1116700.126451228
0.7515024121994025	1117639.903469862
0.7516276626014359	1118557.028358843
0.751752933878536	1119474.3061019706
0.7518782260341824	1120391.7367247224
0.7520035390718548	1121309.3202525785
0.7521288729950334	1122227.0567110218
0.7522542278071992	1123144.9461255418
0.7523796035118337	1124062.9885216313
0.7525050001124189	1124900.6416673597
0.7526304176124378	1125720.918282237
0.7527558560153731	1126541.3316098822
0.752881315324709	1127361.8816730827
0.7530067955439299	1128182.5684946275
0.7531322966765205	1129003.392097308
0.7532578187259665	1129824.3525039228
0.7533833616957542	1130645.4497372718
0.75350892558937	1131345.1263226646
0.7536345104103016	1132039.2035398753
0.7537601161620366	1132733.3964366217
0.7538857428480638	1133427.705032185
0.7540113904718717	1134122.1293458466
0.7541370590369503	1134816.6693968938
0.7542627485467898	1135511.3252046164
0.7543884590048808	1136194.7437242877
0.7545141904147151	1136765.062106207
0.7546399427797842	1137335.475541189
0.7547657161035808	1137905.9840450769
0.754891510389598	1138476.5876337155
0.7550173256413296	1139047.2863229522
0.7551431618622698	1139618.0801286371
0.7552690190559135	1140188.969066623
0.7553948972257561	1140686.8093989468
0.7555207963752938	1140939.2166603992
0.755646716508023	1141191.6659897284
0.755772657627441	1141444.157393946
0.7558986197370455	1141696.6908800644
0.756024602840335	1141949.266455097
0.7561506069408084	1142201.8841260585
0.7562766320419653	1142454.5438999657
0.7564026781473054	1142568.3250382547
0.75652874526033	1142437.6616907862
0.7566548333845401	1142306.9765660933
0.7567809425234375	1142176.2696605462
0.7569070726805247	1142045.5409705148
0.7570332238593047	1141914.7904923686
0.7571593960632813	1141784.0182224757
0.7572855892959586	1141653.2241572046
0.7574118035608413	1141371.4180416863
0.7575380388614347	1140941.8462680709
0.7576642952012449	1140512.2028991599
0.7577905725837782	1140082.4879230212
0.7579168710125422	1139652.701327719
0.7580431904910444	1139222.8431013175
0.7581695310227928	1138792.9132318788
0.7582958926112967	1138362.9117074613
0.7584222752600652	1137409.2181401225
0.7585486789726085	1136154.5657013857
0.7586751037524372	1134899.7041539089
0.7588015496030628	1133644.6334628381
0.7589280165279966	1132389.3535933215
0.7590545045307512	1131133.8645104934
0.7591810136148396	1129878.1661794847
0.7593075437837755	1128622.258565419
0.7594340950410726	1126524.247890379
0.7595606673902461	1124181.6233824666
0.7596872608348112	1121838.6084371337
0.7598138753782836	1119495.2029893124
0.75994051102418	1117151.4069739145
0.7600671677760173	1114807.220325849
0.7601938456373134	1112462.6429800072
0.7603205446115863	1110117.6748712757
0.7604472647023548	1106034.1587863183
0.7605740059131385	1101777.1895024441
0.7607007682474575	1097519.5107236854
0.7608275517088319	1093261.1223318062
0.7609543563007835	1089002.024208519
0.7610811820268336	1084742.216235547
0.7612080288905045	1080481.698294588
0.7613348968953197	1076050.735586671
0.7614617860448022	1068136.453520509
0.7615886963424764	1060220.8524073248
0.7617156277918667	1052303.9320272964
0.7618425803964988	1044385.6921605314
0.7619695541598982	1036466.132587124
0.7620965490855914	1028545.2530871269
0.7622235651771058	1020623.0534405373
0.7623506024379685	1011640.5711776289
0.7624776608717082	998015.0446986646
0.7626047404818536	984387.2472986196
0.7627318412719337	970757.1785990314
0.762858963245479	957124.8382213181
0.7629861064060198	943490.225786874
0.7631132707570876	929853.3409170099
0.7632404563022137	916214.1832330131
0.7633676630449308	898943.1159920827
0.7634948909887717	873942.879530878
0.7636221401372697	848938.4763636289
0.7637494104939593	823929.9057958284
0.7638767020623748	798917.1671329694
0.7640040148460518	773900.2596803047
0.7641313488485262	748879.1827430655
0.7642587040733344	723853.9356263084
0.7643860805240132	689912.2710128723
0.7645134782041005	645329.9676047079
0.7646408971171346	600740.2338126237
0.764768337266654	556143.0683982569
0.7648957986561985	511538.47012297343
0.7650232812893079	466926.43774798326
0.7651507851695227	422306.97003426356
0.7652783103003843	377680.06574259704
0.7654058566854343	337049.87364676077
0.7655334243282153	299141.84278360393
0.7656610132322699	261227.49391535262
