#wavelength	surface flux
0.6450077295303345	9043.337404866961
0.6472567915916443	9453.820238546688
0.6494921445846558	9887.670355466411
0.6517150402069092	10331.850504832557
0.6539263725280762	10778.79369875144
0.6561272740364075	11236.113679673854
0.6583186388015747	11702.71539377375
0.6605015397071838	12192.118602317474
0.6626768708229065	12693.62759267202
0.6648455858230591	13204.141010112768
0.6670085787773132	13718.555727286332
0.6691668033599854	13944.54283201075
0.6713210344314575	14140.206968726252
0.6734722256660461	15348.972312401425
0.6756211519241333	15979.664602569024
0.6777685880661011	16589.501620673815
0.6799154281616211	17210.8313824573
0.6820623278617859	17848.93633259449
0.6842101216316223	18505.850024838433
0.6863595843315125	19177.930460853455
0.688511312007904	19868.538531975162
0.6906660795211792	20549.826435314248
0.6928245425224304	21174.488696493372
0.6949873566627502	22030.74277952489
0.6971551775932312	22831.591659754955
0.6993286609649658	23616.532555637506
0.7015084028244019	24412.303685435265
0.7036949396133423	25264.474124529534
0.7058889269828796	26167.880041753502
0.7080909013748169	27045.819539764892
0.710301399230957	27959.823581603912
0.712520956993103	28920.90264235689
0.7147500514984131	29860.03227088491
0.7169892191886902	30642.762421334024
0.7192389369010925	31774.581512994137
0.7214996814727783	32795.935017679585
0.723771870136261	33810.68829643402
0.7260559797286987	34819.38226992086
0.7283523678779602	35938.537467816735
0.7306615710258484	37013.8210583086
0.7329838871955872	38324.851232069275
0.7353196740150452	39511.81748724949
0.7376693487167358	40722.49927734789
0.7400332689285278	41989.96385431492
0.7424117922782898	43051.905475810214
0.7448052167892456	44229.15282961057
0.7472138404846191	45208.23622049322
0.7496379613876343	46012.831725016214
0.7520779371261597	46418.591003943
0.7545340061187744	46175.40953546315
0.7570064663887024	44672.02194657987
0.7594954967498779	40818.276231776814
0.7620013952255249	31603.08792402475
0.7645244002342224	13385.625431696168
0.7670646905899048	3018.491310660057
0.7696225643157959	3077.977317675166
0.7721980810165405	24169.64836030887
0.7747915983200073	44816.686609640776
0.7774031162261963	55690.94626574704
0.7800329327583313	59852.0061192474
0.7826811671257019	67825.71782504597
0.7853479981422424	72495.86700068186
0.7880334854125977	76364.55046109886
0.7907378077507019	79793.47962196637
0.7934610247612	70125.99025272156
0.7962033748626709	74891.68381817658
0.7989648580551147	89857.81404677588
0.801745593547821	93239.93780796193
0.8045456409454346	96566.92991339265
0.8073651194572449	99914.31605438194
0.8102040886878967	102705.00913713084
0.8130625486373901	105678.93796168812
0.8159406185150146	110303.79053095097
0.8188382983207703	114063.98939291683
0.8217556476593018	117653.97138248249
0.8246926665306091	121696.4095411734
0.8276493549346924	125769.02668796368
0.8306257724761963	129436.48620993727
0.8336219191551208	134002.59127857257
0.8366377949714661	137835.42038765457
0.8396733403205872	142466.4207727105
0.8427285552024841	148104.82532586093
0.8458034992218018	153034.4190189979
0.8488980531692505	158108.66602042658
0.8520121574401855	162880.73751154784
0.8551458716392517	168655.12278309357
0.8582990765571594	174158.23208132962
0.8614717125892639	179422.68687488296
0.8646637797355652	185010.12155195995
0.8678751587867737	190986.35704643538
0.8711057901382446	197256.30562263832
0.8743556141853333	203240.78542749013
0.87762451171875	209320.76352948326
0.8809124231338501	214984.30964489904
0.8842192888259888	221665.25395623402
0.8875449895858765	227745.37126715024
0.8908893465995789	234016.5157858335
0.894252359867096	237500.56042216028
0.8976338505744934	247237.42068840892
0.9010337591171265	257383.84151115583
0.9044519662857056	266454.9922712912
0.9078882932662964	273609.7978093252
0.9113426208496094	283126.16970387474
0.914814829826355	289948.37885640917
0.9183048605918884	295926.54349091696
0.9218124747276306	308641.3882128777
0.925337553024292	309474.1986570287
0.9288799166679382	286857.7530411637
0.9324395060539246	303272.03083576425
0.9360161423683167	315666.6705380534
0.9396095871925354	338961.61103274557
0.943219780921936	340012.97215632536
0.9468464851379395	336448.2845091749
0.9504896402359009	360688.5203984799
0.9541489481925964	369581.58271266555
0.9578243494033813	384325.17540792597
0.9615156054496765	375879.1503287723
0.9652225375175476	393434.64868460485
0.9689450263977051	402510.91402161296
0.9726828336715698	444771.187751466
0.9764357805252075	450946.25605396944
0.9802037477493286	469234.5062879331
0.983986496925354	484886.5066455571
0.9877838492393494	500700.2682532842
0.9915955662727356	519959.87117176066
0.9954215884208679	535611.9197436157
0.9992615580558777	551950.1849915587
1.0031154155731201	565960.7972116276
1.0069829225540161	583321.376975738
1.0108637809753418	599999.0328044061
1.0147579908370972	617805.0426187713
1.018665075302124	634209.0007354553
1.022585153579712	649782.3648125093
1.0265177488327026	663968.1892895482
1.0304628610610962	674111.9672005669
1.0344202518463135	702482.873025551
1.0383895635604858	720220.8868443992
1.0423706769943237	738568.0586151638
1.0463634729385376	756755.5272540962
1.0503677129745483	773146.6017277659
1.0543830394744873	793579.6150144178
1.058409333229065	813511.3764000462
1.0624464750289917	832987.283083261
1.0664942264556885	852835.1261684054
1.0705522298812866	871151.5395176978
1.0746204853057861	893250.5825928163
1.0786986351013184	913107.4942668196
1.0827864408493042	934931.6820608149
1.086883783340454	954768.1572945486
1.0909905433654785	969643.4902984402
1.0951062440872192	986522.7252027498
1.0992310047149658	979900.3883346888
1.10336434841156	915566.5400251417
1.1075061559677124	944348.9179125151
1.1116561889648438	950262.08287965
1.115814208984375	889646.8686204285
1.1199802160263062	910599.3134592045
1.124153733253479	963222.6757325524
1.1283347606658936	1012174.4862241496
1.1325229406356812	918559.8661613007
1.1367181539535522	1034851.8558247733
1.1409201622009277	1103048.3414253301
1.145128846168518	1173422.539101166
1.1493438482284546	1138094.8860997874
1.1535650491714478	892479.4360810375
1.1577922105789185	1028090.371946195
1.1620250940322876	1075046.7422717512
1.1662636995315552	1244876.75122504
1.170507550239563	1232716.1447421955
1.174756646156311	1344784.3745027112
1.1790107488632202	1430021.3655365906
1.1832695007324219	1483675.199704081
1.1875330209732056	1514791.126474538
1.191800832748413	1560925.0914559711
1.1960728168487549	1606334.3393976002
1.2003488540649414	1644989.7809485742
1.2046287059783936	1666385.5664335422
1.2089121341705322	1706863.7674934329
1.2131990194320679	1736069.928525531
1.2174891233444214	1775723.950344828
1.2217823266983032	1809201.189795912
1.2260783910751343	1845631.8766927833
1.230377197265625	1878080.6881527638
1.2346785068511963	1909995.9371813475
1.238982081413269	1945971.7486789902
1.2432878017425537	1979276.2871391722
1.2475954294204712	2011504.1858281638
1.2519049644470215	2043341.9979121506
1.256216049194336	2080778.2941757147
1.2605286836624146	2111557.645984304
1.2648425102233887	2143046.908971786
1.2691574096679688	2175488.781056548
1.2734732627868652	2206941.610844493
1.2777899503707886	2243685.6095432853
1.2821072340011597	2269423.187690459
1.2864248752593994	2302055.449382458
1.2907428741455078	2313989.035197573
1.2950609922409058	2348106.900973943
1.2993791103363037	2382271.65581435
1.303696870803833	2394118.7058575815
1.3080145120620728	2426064.1352176527
1.3123314380645752	2445288.67429058
1.3166478872299194	2520937.7802248634
1.3209635019302368	2531054.506573013
1.3252781629562378	2484823.3778942847
1.3295916318893433	2381189.8623135476
1.3339040279388428	2033062.5960287408
1.3382149934768677	1276562.5140056969
1.3425244092941284	880246.7675505506
1.3468321561813354	1428314.6626362775
1.3511382341384888	940818.2817142033
1.3554422855377197	631896.4348320474
1.3597444295883179	710303.6291790395
1.3640443086624146	831891.3055626843
1.3683418035507202	834198.3961201264
1.3726370334625244	1386440.5516497192
1.3769296407699585	1953035.461092721
1.381219506263733	1129622.6907078233
1.3855066299438477	522980.6433540386
1.3897908926010132	671511.1033212573
1.3940720558166504	759657.6453195465
1.3983501195907593	701376.6970611603
1.4026249647140503	1233635.574159816
1.4068963527679443	1744828.8941691115
1.4111642837524414	832030.7152104119
1.4154287576675415	1054422.3997606894
1.419689416885376	1213212.7554993653
1.4239463806152344	797055.3159683824
1.4281994104385376	1540893.0624816262
1.4324485063552856	1111838.5246905845
1.436693549156189	1401499.12933489
1.440934419631958	1479826.3258653078
1.4451709985733032	1912942.6744101194
1.449403166770935	2569503.3259741254
1.453631043434143	2672371.4640670284
1.4578542709350586	2789122.387753625
1.4620729684829712	2839938.3756024013
1.4662868976593018	2983448.9614502313
1.4704961776733398	2732182.6798765864
1.4747005701065063	2792157.2993508186
1.4788999557495117	2808298.398856972
1.4830944538116455	3183737.0354385558
1.4872838258743286	3422443.4678766504
1.491468071937561	3472293.6525911125
1.4956470727920532	3343021.4988178825
1.4998208284378052	3533465.4977708533
1.5039892196655273	3715665.976765598
1.5081522464752197	3666554.5226666336
1.5123097896575928	3773310.4982164525
1.5164618492126465	3923588.6915829815
1.5206083059310913	4098247.718838658
1.5247491598129272	4234290.8039973555
1.5288842916488647	4200050.301777171
1.5330137014389038	4300069.259610727
1.5371372699737549	4386259.431511992
1.541254997253418	4405591.607194391
1.545366883277893	4469885.418532642
1.5494728088378906	4528889.800212789
1.5535727739334106	4596199.817848133
1.5576666593551636	4573932.91088105
1.561754584312439	4625255.085605996
1.5658363103866577	4738282.533601876
1.5699119567871094	4795746.669809589
1.5739814043045044	4771856.943838565
1.5780447721481323	4672099.665999791
1.582101821899414	4773557.095600545
1.5861525535583496	4969962.033146758
1.5901970863342285	4993356.758034189
1.5942351818084717	5000567.415699136
1.5982669591903687	4983244.669898531
1.6022924184799194	4988467.7924801875
1.606311559677124	5060935.1278832555
1.6103241443634033	5069787.8095925925
1.6143304109573364	5048241.410517613
1.6183301210403442	5039167.45787197
1.6223233938217163	4979108.973786056
1.6263102293014526	4948253.91431631
1.6302905082702637	4813143.249485719
1.634264349937439	4932343.562241607
1.638231635093689	5310639.731657094
1.6421923637390137	5370431.472587067
1.646146535873413	5236054.536928123
1.6500942707061768	5061465.225045996
1.6540353298187256	5338741.355718708
1.6579699516296387	5414287.004988082
1.661897897720337	5371245.223941607
1.6658192873001099	4695947.550636894
1.6697341203689575	4710502.486915896
1.6736423969268799	5382019.707768505
1.677544116973877	5380641.400882074
1.6814392805099487	5326216.710360219
1.6853278875350952	5365195.88408973
1.6892099380493164	5293660.878097107
1.6930854320526123	5171978.133222338
1.696954369544983	4803805.187824228
1.7008168697357178	4976761.384839298
1.7046726942062378	4949576.926616091
1.708522081375122	5276822.76426726
1.712364912033081	5338792.120738015
1.7162011861801147	5531030.537795372
1.7200311422348022	5688269.185372019
1.723854422569275	5689715.309275813
1.7276713848114014	5659808.730739763
1.731481909751892	5592438.835272955
1.7352858781814575	5507514.565796707
1.7390835285186768	5521515.0465763975
1.7428747415542603	5518358.424640993
1.7466596364974976	5361356.4567675935
1.7504380941390991	5238311.066215828
1.7542102336883545	4856331.810380547
1.7579760551452637	5446330.942107667
1.7617355585098267	5685522.63141484
1.7654887437820435	5377120.042443052
1.7692357301712036	4930581.313052944
1.7729763984680176	4241200.122548107
1.776710867881775	3142198.8577997424
1.7804391384124756	3049746.9730252144
1.7841613292694092	3395849.52922384
1.7878772020339966	2690414.107240216
1.7915871143341064	3158148.836676306
1.7952908277511597	3465306.1726457966
1.7989884614944458	3319903.4255609745
1.8026801347732544	2169302.926954567
1.806365728378296	1203707.1493121292
1.8100452423095703	1488988.6025538826
1.8137187957763672	2258383.7108009933
1.817386507987976	1090960.7354339864
1.8210482597351074	2247929.0853922097
1.8247040510177612	2541210.7333793943
1.828354001045227	1016186.4821008614
1.8319982290267944	1425642.841063561
1.8356364965438843	2107101.286215762
1.8392690420150757	2868222.080116303
1.8428958654403687	2737414.2634822438
1.8465168476104736	2821165.7117178068
1.8501322269439697	2901218.356344448
1.8537418842315674	1689355.3969222263
1.8573459386825562	1723952.271988734
1.860944390296936	1914574.5435404317
1.864537239074707	1132307.0918014608
1.8681244850158691	1488669.535151963
1.871706247329712	2416885.2673930866
1.8752825260162354	3104764.562700582
1.8788533210754395	3830247.0997446887
1.8824186325073242	4575988.929363394
1.8859784603118896	3956655.778317053
1.8895330429077148	3505845.503820086
1.8930821418762207	4405675.983250708
1.8966259956359863	4066828.676748211
1.9001644849777222	1945167.489071867
1.9036977291107178	1175147.427867487
1.9072256088256836	1898205.0191756627
1.9107483625411987	1690333.2903865115
1.9142658710479736	834892.9461574836
1.9177782535552979	1087748.9055364935
1.9212853908538818	1753846.6775453065
1.9247875213623047	1455838.588027384
1.9282845258712769	1621903.0124898239
1.9317764043807983	2277452.393188316
1.9352631568908691	2416953.8045155527
1.9387450218200684	2103277.184148909
1.942221760749817	2578818.6406471427
1.9456936120986938	2652760.6022201004
1.9491604566574097	2779955.754376302
1.952622413635254	2518025.377208329
1.956079363822937	2073753.608034083
1.959531545639038	2582982.5891156383
1.962978720664978	2666240.198847165
1.966421127319336	3222492.9777010055
1.9698586463928223	4261797.6528738085
1.9732913970947266	4427215.395669279
1.9767193794250488	4559855.857743615
1.9801424741744995	5225431.075958855
1.9835609197616577	5609357.320986089
1.9869745969772339	5630975.5408239225
1.990383505821228	4915200.282692841
1.9937876462936401	5144258.1509648645
1.9971871376037598	5148513.45753904
2.000581979751587	5263271.060475926
2.003972291946411	6137612.0874094805
2.007357597351074	6416278.488981014
2.0107386112213135	6859771.666908243
2.0141148567199707	6875635.273479348
2.017486572265625	6489782.729062731
2.0208535194396973	6804513.198701961
2.0242159366607666	7292775.656668197
2.027573823928833	7393524.75220921
2.0309269428253174	7528297.107696485
2.034275770187378	7719430.098972991
2.0376198291778564	7841379.136391815
2.040959596633911	7935858.278466093
2.044294595718384	8087493.866668224
2.0476250648498535	8242805.818926995
2.0509510040283203	8223103.330248783
2.054272413253784	8149399.696483233
2.057589530944824	8240140.59538227
2.0609018802642822	8344769.941083052
2.0642096996307373	8418787.169280566
2.0675129890441895	8467730.621333743
2.0708119869232178	8506380.669178495
2.074106216430664	8505455.69807392
2.0773961544036865	8506290.534981694
2.080681324005127	8552327.94266487
2.0839622020721436	8577807.607683707
2.087238311767578	8599668.857678892
2.090510129928589	8610213.142766163
2.0937774181365967	8592794.80846952
2.0970399379730225	8611913.35431562
2.1002981662750244	8618298.887128044
2.1035518646240234	8605333.994734315
2.1068007946014404	8584653.521853032
2.1100454330444336	8615439.455683868
2.1132853031158447	8636762.904918639
2.116520881652832	8583576.817677708
2.1197516918182373	8558888.04374123
2.1229779720306396	8577171.688248554
2.12619948387146	8608126.365074886
2.1294167041778564	8620157.109928837
2.132629156112671	8641626.109119749
2.1358368396759033	8597513.74562359
2.139039993286133	8518163.462029902
2.1422386169433594	8445327.962537782
2.145432472229004	8373908.284181817
2.1486217975616455	8337374.853306297
2.151806354522705	8247383.8353367755
2.1549863815307617	8291811.28078309
2.1581614017486572	8324375.8191722045
2.16133189201355	8200878.871080417
2.1644976139068604	8172220.278525203
2.167658567428589	8191611.18159716
2.1708147525787354	8256042.66829012
2.173966407775879	8291205.876498042
2.1771130561828613	8278681.210632833
2.1802549362182617	8211429.40442334
2.183391809463501	8097252.822152405
2.1865241527557373	7953616.797445504
2.1896514892578125	7747369.465659293
2.1927738189697266	7251229.436879907
2.1958916187286377	6446408.934237603
2.1990041732788086	5731150.741010653
2.2021119594573975	5396585.889528268
2.2052149772644043	5371906.100583438
2.208312749862671	5572377.603765844
2.2114057540893555	5901592.826987823
2.214493751525879	6098422.144414753
2.217576742172241	5992469.620262539
2.2206547260284424	5895584.313344948
2.2237277030944824	5818773.989399833
2.2267956733703613	5433195.379478735
2.2298583984375	4937548.493424084
2.2329163551330566	4674889.40150797
2.235969066619873	4613307.44592057
2.2390167713165283	4489171.454557255
2.2420592308044434	4119635.288321286
2.2450966835021973	3784399.0723077976
2.248128890991211	3957039.3194065355
2.2511560916900635	4352798.457559752
2.254178285598755	4510938.165258597
2.257194995880127	4618083.0579864
2.260206699371338	4571775.585068521
2.2632133960723877	4200090.378252043
2.266214609146118	3834776.5850139805
2.2692108154296875	3783363.575883727
2.2722020149230957	4061644.7617064444
2.2751877307891846	4309108.675384715
2.278168201446533	4255922.086169608
2.2811436653137207	4056668.0022236877
2.284113883972168	3897960.8248552033
2.287078857421875	3732354.953145507
2.290038824081421	3587712.987469651
2.2929933071136475	3583531.8163027116
2.295942783355713	3665822.982121816
2.298887014389038	3745423.681912066
2.301826238632202	3890139.615252053
2.304760217666626	4226056.742355873
2.3076889514923096	4713090.072574104
2.310612440109253	5029050.1172525855
2.3135311603546143	4698801.180870449
2.3164443969726562	3629014.173995008
2.319352865219116	2804832.7694720956
2.322256088256836	2745851.143996399
2.3251543045043945	2771480.7908598958
2.328047275543213	2727594.6667242637
2.330935478210449	2768195.7799307844
2.3338186740875244	2789385.688500844
2.3366971015930176	2778850.52029523
2.3395702838897705	2747238.534518426
2.3424389362335205	2643399.265561987
2.3453025817871094	2511944.4580504037
2.348161458969116	2515297.1709218454
2.351015567779541	2785696.1674251324
2.353865146636963	3228162.2195112575
2.3567099571228027	3597589.5318431137
2.3595502376556396	3843506.56472692
2.3623859882354736	4041098.264570446
2.3652172088623047	3838294.168824028
2.368043899536133	2945427.4825346568
2.370866537094116	2225490.3280525384
2.3736846446990967	2198767.07148529
2.3764986991882324	2383124.0272322227
2.3793084621429443	2547048.5054875216
2.3821144104003906	2784912.203957117
2.384916305541992	3152151.987850753
2.387714147567749	3459575.5570089123
2.3905084133148193	3479955.4439462214
2.393299102783203	3415751.701565399
2.3960859775543213	3448642.707234498
2.398869514465332	3511383.953557791
2.4016497135162354	3458519.7618406615
2.4044265747070312	3473559.447980212
2.407200336456299	3734829.173476441
2.409970998764038	4143758.4306187686
2.4127390384674072	4424002.299794243
2.415503978729248	4550682.511853937
2.418266534805298	4830818.131894298
2.4210267066955566	4933726.357664948
2.4237842559814453	4666027.81627716
2.426539897918701	4488909.997663893
2.429293394088745	4665953.6931236815
2.4320452213287354	5037349.990112999
2.4347951412200928	5194929.651784773
2.4375438690185547	5128417.017735852
2.440291166305542	5074503.613873452
2.443037271499634	4862681.6616546875
2.445782423019409	4465197.91629803
2.4485268592834473	4097354.8165009483
2.451270818710327	4049449.863635123
2.454014539718628	4436104.670039976
2.4567582607269287	4778802.264505585
2.4595019817352295	4684812.992904951
2.4622461795806885	4839993.239972366
2.4649908542633057	4687982.759995708
2.4677364826202393	4080289.9340983536
2.4704833030700684	3236471.648086535
2.473231554031372	2545666.341947638
2.4759814739227295	2092211.030841469
2.4787333011627197	2026812.6530990454
2.481487512588501	2292743.153884761
2.4842441082000732	2488544.635421263
