#wavelength	surface flux
0.8	91120.26539837998
0.8002000000000001	91355.66516833723
0.8004000500000003	91610.7094487297
0.8006001500125003	91866.01532464717
0.8008003000500035	92121.38502703364
0.8010005001250161	92376.81857184583
0.8012007502500472	92632.31597504384
0.8014010504376099	92867.0145505046
0.8016014007002193	93094.78343278838
0.8018018010503944	93322.60925729273
0.8020022515006572	93550.49203825332
0.8022027520635323	93778.43178990895
0.8024033027515483	94007.9721580044
0.8026039035772362	94239.08260990378
0.8028045545531306	94470.25083941614
0.8030052556917691	94701.476860986
0.803206007005692	94932.76068906106
0.8034068085074435	95169.36367267737
0.8036076602095705	95420.77409963564
0.8038085621246229	95672.24737920046
0.8040095142651542	95923.78352708531
0.8042105166437206	96175.38255900705
0.8044115692728815	96426.69318864534
0.8046126721651998	96662.95652619278
0.8048138253332411	96899.27892957442
0.8050150287895745	97135.66041355711
0.805216282546772	97372.10099291075
0.8054175866174087	97608.6006824091
0.8056189410140631	97844.99816668597
0.8058203457493168	98081.40908343984
0.8060218008357541	98317.8791029226
0.8062233062859632	98554.40823991034
0.8064248621125346	98790.99650918217
0.806626468328063	99039.649409643
0.8068281249451449	99298.67573183507
0.8070298319763813	99557.766810608
0.8072315894343755	99816.92266215043
0.8074333973317341	100076.14330265584
0.8076352556810671	100315.97376869069
0.8078371644949874	100509.03280774895
0.8080391237861113	100702.14011156705
0.8082411335670578	100895.29569221096
0.8084431938504498	101088.49956175024
0.8086453046489125	101280.66062702143
0.8088474659750746	101452.55530788565
0.8090496778415686	101624.49296242029
0.809251940261029	101796.47360136847
0.8094542532460944	101968.49723547652
0.8096566168094059	102140.56387549291
0.8098590309636085	102332.91971282246
0.8100614957213493	102530.0624230088
0.8102640110952797	102727.25441887269
0.8104665770980536	102924.49571273565
0.8106691937423283	103121.78631692214
0.8108718610407639	103331.64862711522
0.8110745790060241	103551.13861218368
0.8112773476507757	103770.68346974862
0.8114801669876885	103990.28321352787
0.8116830370294355	104209.93785724296
0.8118859577886929	104420.12275537268
0.8120889292781401	104610.57706597938
0.8122919515104597	104801.07899016372
0.8124950244983374	104991.62853982911
0.8126981482544621	105182.2257268819
0.8129013227915257	105375.84839343018
0.8131045481222237	105603.61607668559
0.8133078242592543	105831.44070186184
0.8135111512153191	106059.32228319431
0.813714529003123	106287.26083492214
0.8139179576353739	106515.25637128795
0.8141214371247829	106955.73285127526
0.8143249674840641	107437.51202619937
0.814528548725935	107919.41164591695
0.8147321808631167	108401.43174054008
0.8149358639083326	108883.57234018674
0.8151395978743097	109254.77014785502
0.8153433827737784	109551.02171135251
0.8155472186194719	109847.3473377408
0.8157511054241268	110143.74704553562
0.815955043200483	110440.22085325759
0.8161590319612831	110720.9636404098
0.8163630717192736	110972.81562256893
0.8165671624872033	111224.73056772334
0.8167713042778252	111476.70849161426
0.8169754971038948	111728.7494099863
0.8171797409781707	111974.2737830446
0.8173840359134155	112167.3329075475
0.8175883819223938	112360.44029683131
0.8177927790178745	112553.59596296256
0.8179972272126291	112746.79991801038
0.8182017265194322	112940.05217404677
0.8184062769510622	113277.05929176693
0.8186108785203001	113636.26497213563
0.8188155312399301	113995.56045392393
0.8190202351227402	114354.94575958308
0.819224990181521	114714.4209115684
0.8194297964290664	115011.3878513479
0.8196346538781738	115270.69815058006
0.8198395625416434	115530.07327738695
0.8200445224322789	115789.51324797564
0.820249533562887	116049.01807855691
0.8204545959462778	116318.03755987926
0.8206597095952644	116602.33345307295
0.8208648745226633	116886.70042024014
0.8210700907412941	117171.13847914909
0.8212753582639793	117455.64764757248
0.8214806771035456	117706.6600138875
0.8216860472728215	117750.91579085632
0.8218914687846397	117795.18263176938
0.822096941651836	117839.4605393927
0.822302465887249	117883.7495164929
0.8225080415037209	117928.04956583738
0.8227136685140968	118245.71749532735
0.8229193469312254	118594.49655231192
0.8231250767679583	118943.36280406085
0.8233308580371503	119292.31627237251
0.8235366907516598	119641.35697905152
0.8237425749243477	120013.4916352534
0.8239485105680789	120397.91327491758
0.824154497695721	120782.43101999143
0.824360536320145	121167.04489450163
0.8245666264542252	121551.75492248044
0.8247727681108388	121911.73739247749
0.8249789613028664	122236.25759672838
0.8251852060431922	122560.85893103061
0.825391502344703	122885.54141566629
0.8255978502202894	123210.30507092341
0.8258042496828445	123528.94917225966
0.8260107007452654	123817.55858065262
0.8262172034204517	124106.24014139739
0.8264237577213068	124394.9938725324
0.8266303636607373	124683.81979210034
0.8268370212516525	124972.71791814803
0.8270437305069654	125159.3875946931
0.8272504914395923	125338.10980584865
0.8274573040624523	125516.87669755705
0.8276641683884679	125695.68828098822
0.8278710844305652	125874.54456731546
0.8280780522016729	126142.2648705889
0.8282850717147234	126450.65124280362
0.8284921429826521	126759.11471161108
0.8286992660183978	127067.65529628599
0.8289064408349024	127376.27301610685
0.8291136674451112	127645.41019064117
0.8293209458619727	127864.73437233733
0.8295282760984382	128084.11338507864
0.829735658167463	128303.54724257338
0.8299430920820048	128523.03595853221
0.8301505778550254	128744.56789039985
0.8303581154994891	128974.09126733721
0.8305657050283641	129203.67202511903
0.8307733464546212	129433.31017809012
0.8309810397912352	129663.00574059982
0.8311887850511829	129892.7587269997
0.8313965822474458	130338.63101128166
0.8316044313930077	130794.64333745303
0.8318123325008561	131250.7696667064
0.8320202855839813	131707.0100275418
0.8322282906553774	132163.3644484675
0.8324363477280413	132485.21917093443
0.8326444568149735	132752.95932130926
0.8328526179291771	133020.76640672138
0.8330608310836596	133288.64044390523
0.8332690962914304	133556.58144959804
0.8334774135655034	133811.82073157583
0.833685782918895	134052.86075614323
0.8338942043646247	134293.96104071662
0.834102677915716	134535.1216003613
0.834311203585195	134776.34245014575
0.8345197813860912	135061.57471845514
0.8347284113314379	135494.82185237645
0.8349370934342709	135928.177298081
0.8351458277076294	136361.64108264644
0.8353546141645565	136795.21323315875
0.8355634528180977	137228.8937767085
0.8357723436813022	137246.5780109119
0.8359812867672226	137259.1288330049
0.8361902820889144	137271.68279280342
0.8363993296594368	137284.23989109191
0.8366084294918518	137296.80012865496
0.8368175815992247	137616.96194466267
0.8370267859946247	138043.14386269505
0.8372360426911234	138469.4323262068
0.8374453517017962	138895.82736183438
0.8376547130397217	139322.32899622084
0.8378641267179816	139687.38272991864
0.8380735927496613	139991.44963601002
0.8382831111478488	140295.59255882772
0.8384926819256358	140599.81151737596
0.8387023050961173	140904.1065306641
0.8389119806723914	141205.63548960746
0.8391217086675596	141499.24115362862
0.8393314890947265	141792.9202190656
0.8395413219670003	142086.67270426895
0.8397512072974922	142380.49862759377
0.8399611450993165	142677.9974868215
0.8401711353855914	143154.31958249514
0.8403811781694378	143630.76075869257
0.8405912734639802	144107.3210451842
0.8408014212823464	144584.00047174763
0.8410116216376671	145060.79906816766
0.8412218745430766	145498.4042810172
0.8414321800117124	145924.68045047298
0.8416425380567154	146351.06318897134
0.8418529486912297	146777.55252315445
0.8420634119284025	147204.14847967072
0.8422739277813847	147557.83849665002
0.8424844962633302	147847.2900124813
0.842695117387396	148136.81389119118
0.8429057911667428	148426.41015087077
0.8431165176145345	148716.0788096154
0.8433272967439382	149014.70446588282
0.8435381285681244	149335.07673375332
0.8437490131002665	149655.5290946907
0.8439599503535415	149976.0615687181
0.84417094034113	150296.67417586426
0.8443819830762154	150619.1184886729
0.8445930785719846	150976.92858762582
0.8448042268416277	151334.8281391033
0.8450154278983382	151692.81716546864
0.8452266817553128	152050.8956890905
0.8454379884257517	152409.06373234335
0.8456493479228583	152774.68011692603
0.845860760259839	153142.15999292195
0.846072225449904	153509.73173888688
0.8462837435062666	153877.39537778837
0.8464953144421433	154245.15093259982
0.8467069382707537	154588.44906868655
0.8469186150053215	154912.69755900305
0.847130344659073	155237.02711144224
0.8473421272452377	155561.4377462692
0.8475539627770492	155885.9294837552
0.8477658512677435	156222.4374581405
0.8479777927305605	156584.37220238353
0.8481897871787432	156946.39743031253
0.848401834625538	157308.51316454873
0.8486139350841944	157670.71942771826
0.8488260885679657	158031.4278398127
0.8490382950901076	158372.8643646969
0.8492505546638802	158714.38624871246
0.8494628673025462	159055.99351319892
0.8496752330193721	159397.686179502
0.8498876518276269	159739.4642689712
0.8501001237405839	160027.1732924801
0.8503126487715191	160304.1440518457
0.850525226933712	160581.18405390106
0.8507378582404455	160858.2933159569
0.8509505427050057	161135.4718553284
0.8511632803406821	161442.8708640615
0.8513760711607672	161770.99475604817
0.8515889151785576	162099.20067900835
0.8518018124073523	162427.488653449
0.8520147628604541	162755.85869988307
0.8522277665511693	163116.25944051542
0.8524408234928071	163535.8353583008
0.8526539336986805	163955.51617006573
0.8528670971821053	164375.30190203365
0.8530803139564007	164795.19258043406
0.8532935840348901	165214.1451306322
0.8535069074308987	165624.39289907276
0.8537202841577566	166034.74322945578
0.8539337142287962	166445.1961474214
0.8541471976573534	166855.7516786163
0.8543607344567677	167266.40984869405
0.8545743246403821	167656.91010274348
0.8547879682215422	168044.29037009476
0.8550016652135977	168431.76748251283
0.8552154156299011	168819.34146420902
0.8554292194838088	169207.0123394009
0.8556430767886797	169579.87246408119
0.855856987557877	169943.77426137854
0.8560709518047664	170307.767034125
0.8562849695427177	170671.85080506475
0.8564990407851035	171036.02559694738
0.8567131655452999	171401.93522738453
0.8569273438366862	171770.6297479601
0.8571415756726455	172139.41644216588
0.8573558610665638	172508.29533304536
0.8575702000318304	172877.26644364715
0.8577845925818384	173247.68379043663
0.857999038729984	173626.65128321628
0.8582135384896665	174005.71351786907
0.858428091874289	174384.87051808054
0.8586426988972576	174764.12230754195
0.8588573595719821	175143.4689099509
0.8590720739118751	175513.90391871976
0.8592868419303532	175883.36965119853
0.8595016636408359	176252.9277501104
0.8597165390567462	176622.5782385469
0.8599314681915105	176992.3211396056
0.8601464510585584	177360.59926565445
0.860361487671323	177728.14290464704
0.8605765780432408	178095.77842954927
0.8607917221877518	178463.50586333303
0.8610069201182988	178831.32522897513
0.8612221718483286	179157.8981647991
0.8614374773912907	179424.95786804165
0.8616528367606385	179692.08433620993
0.8618682499698288	179959.2775859954
0.8620837170323213	180226.5376340933
0.8622992379615795	180512.575202383
0.8625148127710699	180891.27639158073
0.8627304414742627	181270.07225607577
0.8629461240846313	181648.962819537
0.8631618606156526	182027.94810563914
0.8633776510808066	182407.0281380627
0.8635934954935769	182873.11862598834
0.8638093938674504	183346.4502724746
0.8640253462159173	183819.9002518725
0.8642413525524714	184293.46859376522
0.8644574128906095	184767.1553277433
0.8646735272438323	185154.94142412
0.8648896956256433	185502.82322097823
0.8651059180495498	185850.7919882857
0.8653221945290621	186198.84774778463
0.8655385250776946	186546.99052122395
0.8657549097089641	186941.46196958798
0.8659713484363913	187395.23149911597
0.8661878412735006	187849.11447102652
0.866404388233819	188303.11091368002
0.8666209893308775	188757.22085544394
0.8668376445782103	189196.18055576397
0.8670543539893549	189572.95080650074
0.8672711175778525	189949.81524980045
0.8674879353572469	190326.77390921055
0.8677048073410862	190703.82680828564
0.8679217335429217	191080.97397058574
0.8681387139763074	191451.8767247222
0.8683557486548015	191822.55731433124
0.8685728375919655	192193.33057408815
0.8687899808013633	192564.1965271592
0.8690071782965637	192935.15519671896
0.869224430091138	193368.86162570002
0.8694417361986609	193828.17072962102
0.8696590966327107	194287.5946608179
0.869876511406869	194747.13344799762
0.8700939805347206	195206.78711987392
0.8703115040298544	195660.58728631545
0.870529081905862	196107.67727345083
0.8707467141763385	196554.87903308283
0.8709644008548827	197002.19259315473
0.8711821419550964	197449.61798161638
0.8713999374905854	197890.7534544934
0.871617787474958	198309.90447513337
0.8718356919218269	198729.16028352888
0.8720536508448075	199148.52090587653
0.8722716642575187	199567.9863683795
0.8724897321735832	199987.5566972483
0.8727078546066265	200390.00209427447
0.8729260315702784	200792.28598050048
0.873144263078171	201194.6704376976
0.8733625491439405	201597.15549100906
0.8735808897812266	201999.74116558404
0.8737992850036719	202358.97555437946
0.874017734824923	202702.9097918581
0.8742362392586293	203046.930012896
0.874454798318444	203391.03623898912
0.8746734120180236	203735.22849163873
0.8748920803710283	204097.1865519343
0.875110803391121	204477.0015754788
0.8753295810919689	204856.91155277935
0.875548413487242	205236.91650757426
0.8757673005906139	205617.01646360787
0.8759862424157616	206023.70717944682
0.8762052389763657	206507.1662270619
0.8764242902861098	206990.7461394386
0.8766433963586814	207474.44694679347
0.8768625572077712	207958.26867935035
0.8770817728470732	208441.16454016324
0.8773010432902849	208842.44750034576
0.8775203685511077	209243.83078126892
0.8777397486432454	209645.3144080118
0.8779591835804065	210046.89840566184
0.8781786733763015	210448.58279931077
0.8783982180446457	210807.28065344066
0.878617817599157	211153.25061660743
0.8788374720535569	211499.30707226484
0.8790571814215703	211845.45004203607
0.8792769457169257	212191.67954754975
0.879496764953355	212473.27798802548
0.8797166391445934	212696.7614348308
0.8799365683043796	212920.3007524979
0.8801565524464557	213143.89595499434
0.8803765915845676	213367.54705629163
0.8805966857324639	213720.5854704593
0.880816834903897	214398.55384930357
0.881037039112623	215076.69172024282
0.8812572983724012	215754.99912564972
0.8814776126969944	216433.4761079083
0.8816979821001687	217100.30926588984
0.8819184065956938	217489.2186832203
0.8821388861973429	217878.2253279055
0.8823594209188923	218267.3292242515
0.882580010774122	218656.5303965714
0.8828006557768155	219045.8288691846
0.8830213559407598	219453.88860545575
0.8832421112797452	219866.74452678201
0.8834629218075651	220279.70366208834
0.8836837875380171	220692.76603717866
0.8839047084849018	221105.9316778628
0.884125684662023	221502.35392350118
0.8843467160831886	221885.37480707632
0.8845678027622095	222268.49144587235
0.8847889447129001	222651.70386382818
0.8850101419490785	223035.01208488838
0.8852313944845657	223450.94449210938
0.885452702333187	223938.18147089006
0.8856740655087704	224425.54025891534
0.8858954840251476	224913.0208866375
0.8861169578961539	225400.6233845164
0.886338487135628	225872.44209163947
0.886560071757412	226132.71524738826
0.8867817117753515	226393.05347142596
0.8870034072032955	226653.4567800198
0.8872251580550963	226913.92518944046
0.8874469643446101	227174.45871596364
0.8876688260856963	227672.49126721243
0.8878907432922178	228219.78831330585
0.8881127159780409	228767.22218366046
0.8883347441570356	229314.79291248327
0.8885568278430749	229862.50053398777
0.8887789670500358	230388.44526303816
0.8890011617917983	230898.98632359484
0.8892234120822464	231409.6550194169
0.8894457179352669	231920.4513824125
0.8896680793647509	232431.37544449925
0.8898904963845921	232870.04861833522
0.8901129690086883	233170.73114969066
0.8903354972509405	233471.4888516789
0.8905580811252535	233772.32174309285
0.8907807206455347	234073.22984272926
0.8910034158256963	234362.87251380316
0.8912261666796527	234551.23656632446
0.8914489732213227	234739.64770985895
0.8916718354646282	234928.1059561795
0.8918947534234944	235116.61131706147
0.8921177271118502	235305.1638042835
0.8923407565436284	235388.37619799998
0.8925638417327644	235454.41787172254
0.8927869826931977	235520.47605586358
0.8930101794388711	235586.5507545506
0.8932334319837308	235652.64197191232
0.8934567403417267	235733.7907118412
0.8936801045268123	235824.30594975583
0.8939035245529441	235914.84381647987
0.8941270004340824	236005.40431767065
0.894350532184191	236095.9874589867
0.8945741198172371	236654.08330196745
0.8947977633471915	237987.59516263194
0.8950214627880284	239321.44040126153
0.8952452181537254	240655.6191012
0.8954690294582639	241990.13134581424
0.8956928967156286	243202.8356409616
0.8959168199398075	243623.1877843189
0.8961407991447926	244043.64501571213
0.8963648343445789	244464.2073614132
0.896588925553165	244884.87484770047
0.8968130727845534	245305.64750085937
0.8970372760527496	245636.5853109615
0.8972615353717629	245956.35254575874
0.8974858507556059	246276.19972236472
0.8977102222182949	246596.12686076478
0.8979346497738496	246916.13398094958
0.8981591334362931	247778.5444228685
0.8983836732196523	248937.7543391373
0.8986082691379572	250097.25405788442
0.8988329212052417	251257.04365156122
0.8990576294355432	252417.12319263746
0.8992823938429022	253337.1547641758
0.8995072144413631	253900.06429561565
0.8997320912449734	254463.11455443813
0.8999570242677847	255026.30557582522
0.9001820135238516	255589.63739496766
0.9004070590272328	256135.5320372398
0.9006321607919896	256589.4132286956
0.9008573188321878	257043.4078904497
0.9010825331618959	257497.51605086905
0.9013078037951865	257951.73773832855
0.9015331307461353	258406.07298120967
0.9017585140288219	258938.64109855297
0.9019839536573292	259478.07097491436
0.9022094496457435	260017.63570874443
0.9024350020081551	260557.33533375862
0.9026606107586572	261097.16988367884
0.902886275911347	261804.7956546058
0.9031119974803249	262593.42032039305
0.9033377754796951	263382.2421423467
0.903563609923565	264171.2611697555
0.903789500826046	264960.4774519217
0.9040154482012526	265643.7347927088
0.904241452063303	266189.6468008528
0.9044675124263188	266735.6952869987
0.9046936293044254	267281.8802852661
0.9049198027117517	267828.20182978327
0.9051460326624297	268370.4512740744
0.9053723191705955	268894.91473959
0.9055986622503881	269419.5093209716
0.9058250619159507	269944.2350509985
0.9060515181814298	270469.0919624583
0.9062780310609752	270994.08008814557
0.9065046005687405	271039.5473559562
0.906731226718883	271058.26761775103
0.9069579095255627	271076.9925596112
0.907184649002944	271095.7221827069
0.907411445165195	271114.4564882083
0.9076382980264862	271819.4919689314
0.907865207600993	272809.7213704246
0.9080921739028933	273800.19832926797
0.9083191969463691	274790.9229073508
0.9085462767456058	275781.8951665787
0.9087734133147922	276564.91571855824
0.9090006066681211	277107.65907988424
0.909227856819788	277650.53812704986
0.9094551637839932	278193.552893978
0.9096825275749393	278736.7034145977
0.9099099482068329	279302.70130372787
0.9101374256938848	279949.5580445916
0.9103649600503083	280596.5764996403
0.9105925512903209	281243.7567093026
0.9108201994281437	281891.098714018
0.9110479044780008	282538.60255423386
0.9112756664541204	283181.09642528155
0.911503485370734	283823.63253717363
0.9117313612420768	284466.32928309374
0.9119592940823873	285109.1867032001
0.912187283905908	285752.2048376617
0.9124153307268845	285940.4267012449
0.9126434345595664	285963.57281302154
0.9128715954182063	285986.7247113262
0.9130998133170609	286009.88239760534
0.9133280882703902	286033.0458733061
0.913556420292458	286425.20240662066
0.9137848093975312	287197.99899550586
