#wavelength	surface flux
0.8	2075012.5304508896
0.8002000000000001	2084069.9094309828
0.8004000500000003	2093514.154359452
0.8006001500125003	2102964.6452040244
0.8008003000500035	2112417.4986713086
0.8010005001250161	2121872.7153519643
0.8012007502500472	2131330.295836776
0.8014010504376099	2139451.606674936
0.8016014007002193	2147126.546333572
0.8018018010503944	2154803.4047271227
0.8020022515006572	2162482.182335275
0.8022027520635323	2170162.879637823
0.8024033027515483	2177827.089528497
0.8026039035772362	2185475.176754562
0.8028045545531306	2193125.176002434
0.8030052556917691	2200777.0877501215
0.803206007005692	2208430.912475739
0.8034068085074435	2216263.8870225423
0.8036076602095705	2224595.6393419197
0.8038085621246229	2232929.4745993707
0.8040095142651542	2241265.393315641
0.8042105166437206	2249603.3960115877
0.8044115692728815	2257906.49906968
0.8046126721651998	2264620.924944131
0.8048138253332411	2271337.0294250464
0.8050150287895745	2278054.8129320876
0.805216282546772	2284774.275885004
0.8054175866174087	2291495.418703655
0.8056189410140631	2298397.4994350015
0.8058203457493168	2305352.047221357
0.8060218008357541	2312308.3336446495
0.8062233062859632	2319266.3591395514
0.8064248621125346	2326226.124140823
0.806626468328063	2333842.015186191
0.8068281249451449	2342021.8487028144
0.8070298319763813	2350203.727177827
0.8072315894343755	2358387.651122452
0.8074333973317341	2366573.6210480663
0.8076352556810671	2373417.3734099227
0.8078371644949874	2377026.968659241
0.8080391237861113	2380637.466307373
0.8082411335670578	2384248.866579914
0.8084431938504498	2387861.169702527
0.8086453046489125	2391434.139046279
0.8088474659750746	2394258.863486758
0.8090496778415686	2397084.294108351
0.809251940261029	2399910.4310875977
0.8094542532460944	2402737.2746010916
0.8096566168094059	2405564.8248254606
0.8098590309636085	2409452.3664189465
0.8100614957213493	2413588.8140800926
0.8102640110952797	2417726.2958531547
0.8104665770980536	2421864.8119966616
0.8106691937423283	2426004.362769206
0.8108718610407639	2430862.3634917387
0.8110745790060241	2436270.148358095
0.8112773476507757	2441679.285170672
0.8114801669876885	2447089.7742674514
0.8116830370294355	2452501.6159865013
0.8118859577886929	2457404.360888232
0.8120889292781401	2461248.1049669296
0.8122919515104597	2465092.8099816465
0.8124950244983374	2468938.476172617
0.8126981482544621	2472785.103780135
0.8129013227915257	2476745.04540866
0.8131045481222237	2481992.428768555
0.8133078242592543	2487241.1239742907
0.8135111512153191	2492491.1313538263
0.813714529003123	2497742.4512352073
0.8139179576353739	2502995.0839465596
0.8141214371247829	2519287.440960625
0.8143249674840641	2537724.404648949
0.814528548725935	2556165.977578184
0.8147321808631167	2574612.1609006766
0.8149358639083326	2593062.955768994
0.8151395978743097	2605370.3674261603
0.8153433827737784	2613527.0119518903
0.8155472186194719	2621685.6956387493
0.8157511054241268	2629846.4189965287
0.815955043200483	2638009.182535153
0.8161590319612831	2645049.655799331
0.8163630717192736	2650031.689738165
0.8165671624872033	2655014.969185478
0.8167713042778252	2659999.4944526576
0.8169754971038948	2664985.2658511563
0.8171797409781707	2669183.4161591246
0.8173840359134155	2667084.842166129
0.8175883819223938	2664985.7435296373
0.8177927790178745	2662886.1201184858
0.8179972272126291	2660785.9718014807
0.8182017265194322	2658685.2984473985
0.8184062769510622	2665129.5554403607
0.8186108785203001	2672890.4426223035
0.8188155312399301	2680653.2700260314
0.8190202351227402	2688418.0381366187
0.819224990181521	2696184.747439229
0.8194297964290664	2708306.0530702295
0.8196346538781738	2723053.943897796
0.8198395625416434	2737805.5216980637
0.8200445224322789	2752560.787392787
0.820249533562887	2767319.7419039304
0.8204545959462778	2779397.828431138
0.8206597095952644	2787158.211299042
0.8208648745226633	2794920.5342626693
0.8210700907412941	2802684.7978070364
0.8212753582639793	2810451.0024172817
0.8214806771035456	2816291.2912731166
0.8216860472728215	2810255.090402984
0.8218914687846397	2804217.380482634
0.822096941651836	2798178.161134801
0.822302465887249	2792137.431982134
0.8225080415037209	2786095.192647176
0.8227136685140968	2795115.7045529443
0.8229193469312254	2805848.580142596
0.8231250767679583	2816584.1389511484
0.8233308580371503	2827322.3816493973
0.8235366907516598	2838063.3089083284
0.8237425749243477	2849534.361048275
0.8239485105680789	2861393.8367533153
0.824154497695721	2873256.2773272744
0.824360536320145	2885121.683511379
0.8245666264542252	2896990.0560470293
0.8247727681108388	2907760.002019398
0.8249789613028664	2916955.237465933
0.8251852060431922	2926152.771721338
0.825391502344703	2935352.605360302
0.8255978502202894	2944554.7389576845
0.8258042496828445	2953195.077204181
0.8260107007452654	2959098.004147406
0.8262172034204517	2965002.406822362
0.8264237577213068	2970908.2855979875
0.8266303636607373	2976815.64084331
0.8268370212516525	2982724.4729274404
0.8270437305069654	2983642.3934035255
0.8272504914395923	2984170.4206200223
0.8274573040624523	2984698.5798433227
0.8276641683884679	2985226.871106429
0.8278710844305652	2985755.2944423514
0.8280780522016729	2990903.096288869
0.8282850717147234	2998163.6340633803
0.8284921429826521	3005425.9869723273
0.8286992660183978	3012690.155469507
0.8289064408349024	3019956.1400088063
0.8291136674451112	3025257.868915255
0.8293209458619727	3028081.804817878
0.8295282760984382	3030906.446704473
0.829735658167463	3033731.7947515426
0.8299430920820048	3036557.8491356205
0.8301505778550254	3039640.613670758
0.8303581154994891	3043745.9343816764
0.8305657050283641	3047852.281422776
0.8307733464546212	3051959.6550506335
0.8309810397912352	3056068.0555219045
0.8311887850511829	3060177.483093285
0.8313965822474458	3073663.4933982287
0.8316044313930077	3087588.0443251063
0.8318123325008561	3101516.0763897286
0.8320202855839813	3115447.59046236
0.8322282906553774	3129382.5874135112
0.8324363477280413	3136397.347362497
0.8326444568149735	3140626.3954529027
0.8328526179291771	3144856.500805326
0.8330608310836596	3149087.663684094
0.8332690962914304	3153319.884353576
0.8334774135655034	3156924.412756118
0.833685782918895	3159827.507533262
0.8338942043646247	3162731.3280840986
0.834102677915716	3165635.8745900746
0.834311203585195	3168541.147232675
0.8345197813860912	3173711.873720479
0.8347284113314379	3186507.177534295
0.8349370934342709	3199305.680174057
0.8351458277076294	3212107.3824394634
0.8353546141645565	3224912.2851304575
0.8355634528180977	3237720.3890471193
0.8357723436813022	3229638.46830476
0.8359812867672226	3221296.5489688525
0.8361902820889144	3212952.544153115
0.8363993296594368	3204606.4533361713
0.8366084294918518	3196258.27599652
0.8368175815992247	3203280.622212558
0.8370267859946247	3215599.2090002303
0.8372360426911234	3227920.8754345956
0.8374453517017962	3240245.6222855686
0.8376547130397217	3252573.4503232525
0.8378641267179816	3261288.352536778
0.8380735927496613	3266417.4137726193
0.8382831111478488	3271547.7572737667
0.8384926819256358	3276679.3833607864
0.8387023050961173	3281812.2923543323
0.8389119806723914	3286930.8930935473
0.8391217086675596	3292006.893959118
0.8393314890947265	3297084.1638249015
0.8395413219670003	3302162.7030081516
0.8397512072974922	3307242.5118262013
0.8399611450993165	3312512.896567523
0.8401711353855914	3327185.465774291
0.8403811781694378	3341861.7031233576
0.8405912734639802	3356541.6095317644
0.8408014212823464	3371225.1859167805
0.8410116216376671	3385912.433195891
0.8412218745430766	3398645.3187629334
0.8414321800117124	3410811.675353815
0.8416425380567154	3422981.0735338503
0.8418529486912297	3435153.5140634333
0.8420634119284025	3447328.9977031387
0.8422739277813847	3455420.683008266
0.8424844962633302	3459913.724666962
0.842695117387396	3464407.889586067
0.8429057911667428	3468903.178046401
0.8431165176145345	3473399.590328853
0.8433272967439382	3478127.738771512
0.8435381285681244	3483419.5960073974
0.8437490131002665	3488712.7762075905
0.8439599503535415	3494007.27970283
0.84417094034113	3499303.1068239477
0.8443819830762154	3504733.4106225558
0.8445930785719846	3512847.444938742
0.8448042268416277	3520963.507763503
0.8450154278983382	3529081.5996039696
0.8452266817553128	3537201.720967395
0.8454379884257517	3545323.8723611627
0.8456493479228583	3553587.6021121587
0.845860760259839	3561887.002587641
0.846072225449904	3570188.477913242
0.8462837435062666	3578492.0286076763
0.8464953144421433	3586797.655189789
0.8467069382707537	3593496.753086786
0.8469186150053215	3598943.667492376
0.847130344659073	3604391.9436265696
0.8473421272452377	3609841.581829791
0.8475539627770492	3615292.582442569
0.8477658512677435	3621311.2670145566
0.8479777927305605	3628533.964770763
0.8481897871787432	3635758.4682014077
0.848401834625538	3642984.7777579133
0.8486139350841944	3650212.893891804
0.8488260885679657	3657235.8739398895
0.8490382950901076	3661738.0466281166
0.8492505546638802	3666241.344859518
0.8494628673025462	3670745.768915476
0.8496752330193721	3675251.319077454
0.8498876518276269	3679757.995626967
0.8501001237405839	3672079.707573962
0.8503126487715191	3661966.942108766
0.850525226933712	3651851.64845221
0.8507378582404455	3641733.825972239
0.8509505427050057	3631613.474036643
0.8511632803406821	3625579.9999438864
0.8513760711607672	3622345.5130760223
0.8515889151785576	3619110.2175864363
0.8518018124073523	3615874.1132729803
0.8520147628604541	3612637.199933448
0.8522277665511693	3618359.1679677772
0.8524408234928071	3640652.431242333
0.8526539336986805	3662951.267832713
0.8528670971821053	3685255.6791322427
0.8530803139564007	3707565.666534571
0.8532935840348901	3729565.3895731024
0.8535069074308987	3748903.1666333745
0.8537202841577566	3768245.7781379283
0.8539337142287962	3787593.22529536
0.8541471976573534	3806945.509314569
0.8543607344567677	3826302.631404787
0.8545743246403821	3837376.2766577755
0.8547879682215422	3847136.4109918545
0.8550016652135977	3856898.9853595155
0.8552154156299011	3866664.000370769
0.8554292194838088	3876431.456635782
0.8556430767886797	3884579.280525012
0.855856987557877	3891744.260733308
0.8560709518047664	3898911.032186651
0.8562849695427177	3906079.59533286
0.8564990407851035	3913249.950619858
0.8567131655452999	3920353.445275356
0.8569273438366862	3927346.225211871
0.8571415756726455	3934340.753343371
0.8573558610665638	3941337.030106907
0.8575702000318304	3948335.0559396255
0.8577845925818384	3955449.3890800807
0.857999038729984	3963281.0710340403
0.8582135384896665	3971114.7109084865
0.858428091874289	3978950.309192902
0.8586426988972576	3986787.866376886
0.8588573595719821	3994627.382950169
0.8590720739118751	4001043.1345565086
0.8592868419303532	4007292.392881347
0.8595016636408359	4013543.2135207662
0.8597165390567462	4019795.596865344
0.8599314681915105	4026049.543305759
0.8601464510585584	4030513.742339437
0.860361487671323	4034028.242105218
0.8605765780432408	4037543.620495939
0.8607917221877518	4041059.8777312613
0.8610069201182988	4044577.014030891
0.8612221718483286	4032641.913847026
0.8614374773912907	3998426.072237354
0.8616528367606385	3964201.6766672884
0.8618682499698288	3929968.7249983093
0.8620837170323213	3895727.2150914185
0.8622992379615795	3867064.353666656
0.8625148127710699	3866043.2826092048
0.8627304414742627	3865021.9562839894
0.8629461240846313	3864000.3746271925
0.8631618606156526	3862978.5375749813
0.8633776510808066	3861956.445063507
0.8635934954935769	3907677.933195095
0.8638093938674504	3957242.528491834
0.8640253462159173	4006819.514937396
0.8642413525524714	4056408.8956295685
0.8644574128906095	4106010.6736669033
0.8646735272438323	4112449.3795477045
0.8648896956256433	4098811.9040099364
0.8651059180495498	4085171.0191032835
0.8653221945290621	4071526.7239754167
0.8655385250776946	4057879.0177737493
0.8657549097089641	4059537.175254376
0.8659713484363913	4080794.9854208664
0.8661878412735006	4102058.1100399084
0.866404388233819	4123326.5504401023
0.8666209893308775	4144600.3079503863
0.8668376445782103	4162788.0319007514
0.8670543539893549	4168362.9259775765
0.8672711175778525	4173939.213777925
0.8674879353572469	4179516.895650217
0.8677048073410862	4185095.971942979
0.8679217335429217	4190676.443004818
0.8681387139763074	4201424.968879009
0.8683557486548015	4212432.848375071
0.8685728375919655	4223443.47984102
0.8687899808013633	4234456.863964813
0.8690071782965637	4245473.00143465
0.869224430091138	4251484.267539148
0.8694417361986609	4255459.44001539
0.8696590966327107	4259435.606284749
0.869876511406869	4263412.766595676
0.8700939805347206	4267390.921196678
0.8703115040298544	4272400.340901659
0.870529081905862	4278588.910263912
0.8707467141763385	4284779.026768504
0.8709644008548827	4290970.690802222
0.8711821419550964	4297163.902751945
0.8713999374905854	4304137.133421712
0.871617787474958	4313798.878907298
0.8718356919218269	4323463.039829263
0.8720536508448075	4333129.616791461
0.8722716642575187	4342798.610397892
0.8724897321735832	4352470.02125273
0.8727078546066265	4361166.437836118
0.8729260315702784	4369850.158878965
0.873144263078171	4378536.050852063
0.8733625491439405	4387224.1142981555
0.8735808897812266	4395914.349760113
0.8737992850036719	4399821.723942697
0.874017734824923	4402035.294662545
0.8742362392586293	4404249.418775072
0.874454798318444	4406464.096418628
0.8746734120180236	4408679.3277315935
0.8748920803710283	4412771.682427087
0.875110803391121	4418750.833821649
0.8753295810919689	4424731.480004062
0.875548413487242	4430713.621348021
0.8757673005906139	4436697.258227316
0.8759862424157616	4445406.166043731
0.8762052389763657	4461998.622672678
0.8764242902861098	4478595.227415769
0.8766433963586814	4495195.981310051
0.8768625572077712	4511800.885392812
0.8770817728470732	4528272.494168325
0.8773010432902849	4534016.74233853
0.8775203685511077	4539762.426570785
0.8777397486432454	4545509.547224091
0.8779591835804065	4551258.104657567
0.8781786733763015	4557008.099230395
0.8783982180446457	4551210.148017044
0.878617817599157	4541975.021663167
0.8788374720535569	4532737.586527705
0.8790571814215703	4523497.842033463
0.8792769457169257	4514255.787603096
0.879496764953355	4508323.967635011
0.8797166391445934	4505368.860217127
0.8799365683043796	4502413.014022388
0.8801565524464557	4499456.4288661005
0.8803765915845676	4496499.104563521
0.8805966857324639	4500801.068640912
0.880816834903897	4523339.1213522935
0.881037039112623	4545882.808576862
0.8812572983724012	4568432.131723234
0.8814776126969944	4590987.092200404
0.8816979821001687	4613128.883351759
0.8819184065956938	4625417.397585737
0.8821388861973429	4637708.983948285
0.8823594209188923	4650003.643207412
0.882580010774122	4662301.376131349
0.8828006557768155	4674602.183488524
0.8830213559407598	4686924.584102219
0.8832421112797452	4699254.722794797
0.8834629218075651	4711587.944022042
0.8836837875380171	4723924.248554597
0.8839047084849018	4736263.637163287
0.884125684662023	4735457.54896591
0.8843467160831886	4724114.3663460035
0.8845678027622095	4712768.347930441
0.8847889447129001	4701419.493010272
0.8850101419490785	4690067.800876376
0.8852313944845657	4690539.749590134
0.885452702333187	4716898.527794583
0.8856740655087704	4743263.895693578
0.8858954840251476	4769635.8549345415
0.8861169578961539	4796014.407165302
0.886338487135628	4819612.140401789
0.886560071757412	4806122.525873487
0.8867817117753515	4792629.538941553
0.8870034072032955	4779133.17876288
0.8872251580550963	4765633.4444941785
0.8874469643446101	4752130.335291902
0.8876688260856963	4764055.668462834
0.8878907432922178	4781247.423661092
0.8881127159780409	4798443.476798139
0.8883347441570356	4815643.82894849
0.8885568278430749	4832848.481186861
0.8887789670500358	4842110.089496976
0.8890011617917983	4845736.376056679
0.8892234120822464	4849363.569188024
0.8894457179352669	4852991.669117648
0.8896680793647509	4856620.676072258
0.8898904963845921	4857585.0782445
0.8901129690086883	4853463.85439222
0.8903354972509405	4849341.6002339795
0.8905580811252535	4845218.315512195
0.8907807206455347	4841093.999969236
0.8910034158256963	4835807.590912148
0.8912261666796527	4820143.487221386
0.8914489732213227	4804475.467504698
0.8916718354646282	4788803.530783064
0.8918947534234944	4773127.676077265
0.8921177271118502	4757447.9024078
0.8923407565436284	4742535.914983532
0.8925638417327644	4727746.085825469
0.8927869826931977	4712952.559210112
0.8930101794388711	4698155.334213102
0.8932334319837308	4683354.409909845
0.8934567403417267	4677078.863808205
0.8936801045268123	4676101.567065136
0.8939035245529441	4675124.025997882
0.8941270004340824	4674146.240545359
0.894350532184191	4673168.210646475
0.8945741198172371	4694091.365207141
0.8947977633471915	4751340.658014335
0.8950214627880284	4808604.263144728
0.8952452181537254	4865882.184176369
0.8954690294582639	4923174.424688303
0.8956928967156286	4973817.003143397
0.8959168199398075	4981225.352734455
0.8961407991447926	4988635.554412913
0.8963648343445789	4996047.60864179
0.896588925553165	5003461.51588422
0.8968130727845534	5010877.276603462
0.8970372760527496	5011160.137694037
0.8972615353717629	5010550.368147665
0.8974858507556059	5009940.446158906
0.8977102222182949	5009330.37168965
0.8979346497738496	5008720.144701777
0.8981591334362931	5032243.86503013
0.8983836732196523	5068971.838030849
0.8986082691379572	5105708.9930247925
0.8988329212052417	5142455.332307486
0.8990576294355432	5179210.85817503
0.8992823938429022	5203284.751086687
0.8995072144413631	5208495.023155856
0.8997320912449734	5213706.59779304
0.8999570242677847	5218919.475323883
0.9001820135238516	5224133.656074109
0.9004070590272328	5230047.918613608
0.9006321607919896	5239626.893671624
0.9008573188321878	5249208.263473415
0.9010825331618959	5258792.02861765
0.9013078037951865	5268378.189703174
0.9015331307461353	5277966.747328964
0.9017585140288219	5291745.797415499
0.9019839536573292	5305889.023770112
0.9022094496457435	5320035.785931303
0.9024350020081551	5334186.084783051
0.9026606107586572	5348339.921209508
0.902886275911347	5365748.333678338
0.9031119974803249	5384728.324658572
0.9033377754796951	5403713.060636552
0.903563609923565	5422702.542798517
0.903789500826046	5441696.772331037
0.9040154482012526	5453769.434671565
0.904241452063303	5456872.677893573
0.9044675124263188	5459976.696926386
0.9046936293044254	5463081.4919639565
0.9049198027117517	5466187.063200288
0.9051460326624297	5471289.544160026
0.9053723191705955	5484893.300834098
0.9055986622503881	5498500.458447326
0.9058250619159507	5512111.017849957
0.9060515181814298	5525724.979892448
0.9062780310609752	5539342.345425439
0.9065046005687405	5530329.453099353
0.906731226718883	5520051.642452838
0.9069579095255627	5509771.2623536745
0.907184649002944	5499488.312159484
0.907411445165195	5489202.7912277365
0.9076382980264862	5503354.9024306545
0.907865207600993	5527660.522915729
0.9080921739028933	5551972.219805919
0.9083191969463691	5576289.994620326
0.9085462767456058	5600613.848878449
0.9087734133147922	5617386.462871048
0.9090006066681211	5625434.4703228045
0.909227856819788	5633484.489776414
0.9094551637839932	5641536.521734897
0.9096825275749393	5649590.5667013675
0.9099099482068329	5658531.101353474
0.9101374256938848	5670617.31479956
0.9103649600503083	5682706.549799004
0.9105925512903209	5694798.807107194
0.9108201994281437	5706894.087479724
0.9110479044780008	5718992.391672334
0.9112756664541204	5730968.237788058
0.911503485370734	5742944.205589505
0.9117313612420768	5754923.167382902
0.9119592940823873	5766905.123916744
0.912187283905908	5778890.075939723
0.9124153307268845	5770261.633127133
0.9126434345595664	5754148.4883045405
0.9128715954182063	5738031.315195756
0.9130998133170609	5721910.112793687
0.9133280882703902	5705784.880091019
0.913556420292458	5704678.611475751
0.9137848093975312	5719065.503265286
0.9140132555998806	5733455.9917777665
0.9142417589137806	5747850.077912376
0.9144703193535092	5762247.762568529
0.9146989369333476	5773555.113145021
