#wavelength	surface flux
0.7	16703023.336407337
0.7001166666666666	16804184.151677355
0.7002333527777778	16824308.624544967
0.700350058336574	16844436.451491382
0.7004667833462966	16864567.633075595
0.7005835278101878	16884702.169856794
0.7007002917314895	16904840.062394094
0.7008170751134447	16924981.31124681
0.7009338779592968	16945125.916974325
0.7010507002722901	16947561.758873347
0.7011675420556689	16928443.532722417
0.701284403312678	16909322.120200496
0.7014012840465635	16890197.520776458
0.7015181842605713	16871069.73391919
0.701635103957948	16851938.759097453
0.701752043141941	16832804.59577992
0.701869001815798	16813667.24343514
0.7019859799827672	16732803.44686253
0.7021029776460976	16608970.263237454
0.7022199948090387	16485116.440748286
0.7023370314748403	16361241.975955423
0.7024540876467528	16237346.865418447
0.702571163328027	16113431.105696585
0.7026882585219152	15989494.693347773
0.7028053732316688	15865537.624930415
0.7029225074605406	15860003.551063934
0.7030396612117841	15900205.081649978
0.7031568344886527	15940413.312491126
0.7032740272944008	15980628.244704055
0.7033912396322832	16020849.879405707
0.7035084715055552	16061078.217713103
0.7036257229174727	16101313.260743564
0.7037429938712924	16141555.009614568
0.7038602843702709	16215079.771704122
0.7039775944176659	16294260.692972958
0.7040949240167356	16373454.811062038
0.7042122731707383	16452662.128170758
0.7043296418829335	16531882.646499041
0.7044470301565806	16611116.368247032
0.70456443799494	16690363.295615254
0.7046818654012724	16769623.430804752
0.7047993123788394	16793855.557428148
0.7049167789309024	16818028.560498353
0.7050342650607243	16842205.592402443
0.7051517707715678	16866386.65381184
0.7052692960666963	16890571.745398123
0.705386840949374	16914760.867832992
0.7055044054228656	16938954.02178831
0.7056219894904361	16957401.849689472
0.7057395931553511	16939316.19261911
0.705857216420877	16921227.521272555
0.7059748592902804	16903135.83514745
0.7060925217668288	16885041.133741308
0.70621020385379	16866943.4165516
0.7063279055544321	16848842.68307572
0.7064456268720246	16830738.932810895
0.7065633678098366	16825970.019764602
0.7066811283711383	16857933.007803388
0.7067989085592001	16889901.323006842
0.7069167083772933	16921874.966262814
0.7070345278286895	16953853.938459344
0.707152366916661	16985838.240484584
0.7072702256444803	17017827.87322679
0.7073881040154211	17049822.837574497
0.7075060020327569	17066956.13415656
0.7076239196997625	17062440.769637644
0.7077418570197124	17057924.65255798
0.7078598139958823	17053407.782792136
0.7079777906315483	17048890.16021466
0.7080957869299869	17044371.784700092
0.7082138028944751	17039852.656122938
0.7083318385282908	17035332.774357688
0.7084498938347124	17049737.133333303
0.708567968817018	17080188.889691878
0.7086860634784875	17110645.721343216
0.7088041778224007	17141107.629133184
0.7089223118520377	17171574.613907747
0.7090404655706796	17202046.676513083
0.709158638981608	17232523.81779556
0.709276832088105	17263006.03860159
0.7093950448934531	17279080.107337862
0.7095132774009353	17288283.029044755
0.7096315296138355	17297487.484571937
0.7097498015354378	17306693.474175036
0.7098680931690269	17315900.998109728
0.7099864045178884	17325110.056631755
0.7101047355853081	17334320.649996866
0.7102230863745722	17343532.778460864
0.7103414568889679	17312592.586968247
0.7104598471317828	17272523.336825043
0.7105782571063047	17232447.408473514
0.7106966868158224	17192364.80080059
0.710815136263625	17152275.512693066
0.7109336054530023	17112179.5430375
0.7110520943872445	17072076.890720338
0.7111706030696424	17031967.554627765
0.7112891315034873	17035065.873629212
0.7114076796920712	17040226.589633502
0.7115262476386865	17045388.165757127
0.7116448353466263	17050550.602143437
0.711763442819184	17055713.898935813
0.711882070059654	17060878.05627766
0.7120007170713306	17066043.074312393
0.7121193838575091	17075321.715413973
0.7122380704214853	17127496.960260693
0.7123567767665555	17179680.9009815
0.7124755028960166	17231873.539025787
0.7125942488131658	17284074.875843044
0.7127130145213015	17336284.912883244
0.7128318000237216	17388503.651596125
0.7129506053237256	17440731.0934322
0.7130694304246129	17478966.01646231
0.7131882753296837	17468254.1026774
0.7133071400422386	17457540.403573528
0.7134260245655789	17446824.918853138
0.7135449289030065	17436107.648218628
0.7136638530578235	17425388.591372352
0.7137827970333332	17414667.748016585
0.7139017608328388	17403945.117853597
0.7140207444596443	17401613.13048717
0.7141397479170543	17414252.016465943
0.7142587712083737	17426893.0089257
0.7143778143369084	17439536.108217537
0.7144968773059646	17452181.314692594
0.7146159601188489	17464828.628702063
0.7147350627788687	17477478.0505972
0.7148541852893318	17490129.580729313
0.7149733276535467	17515970.18809148
0.7150924898748222	17555112.54665398
0.715211671956468	17594261.42894291
0.7153308739017941	17633416.836045593
0.715450095714111	17672578.769049436
0.71556933739673	17711747.22904212
0.7156885989529628	17750922.21711147
0.7158078803861218	17790103.734345548
0.7159271816995193	17740233.69040541
0.7160465028964692	17638083.791320793
0.7161658439802853	17535916.867253
0.7162852049542819	17433732.915364552
0.7164045858217744	17331531.93281739
0.716523986586078	17229313.91677318
0.7166434072505089	17127078.864393014
0.716762847818384	17024826.772837415
0.7168823082930204	16969584.56808098
0.7170017886777359	16928168.278619964
0.7171212889758488	16886745.086444065
0.7172408091906781	16845314.99040279
0.7173603493255433	16803877.9893455
0.7174799093837642	16762434.082121387
0.7175994893686615	16720983.267579388
0.7177190892835562	16679525.544568315
0.7178387091317702	16795344.422981054
0.7179583489166254	16926971.175150137
0.7180780086414448	17058619.865111355
0.7181976883095517	17190290.496520896
0.7183173879242699	17321983.073035683
0.718437107488924	17453697.598313253
0.7185568470068389	17585434.076011755
0.7186766064813399	17713435.42742284
0.7187963859157535	17747522.773310132
0.7189161853134061	17781615.800421733
0.719036004677625	17815714.509704527
0.7191558440117378	17849818.902105514
0.7192757033190732	17883928.978571944
0.7193955826029597	17918044.740051083
0.7195154818667269	17952166.187490497
0.7196354011137046	17974325.353213437
0.7197553403472235	17941385.54530038
0.7198752995706147	17908440.247419354
0.7199952787872098	17875489.45865532
0.720115278000341	17842533.17809316
0.7202352972133411	17809571.404817574
0.7203553364295432	17776604.137913156
0.7204753956522815	17743631.376464207
0.7205954748848902	17723806.05234963
0.7207155741307044	17732974.72497588
0.7208356933930594	17742144.925714217
0.7209558326752915	17751316.654819347
0.7210759919807375	17760489.912546005
0.7211961713127342	17769664.699148938
0.7213163706746197	17778841.01488299
0.7214365900697322	17788018.860002983
0.7215568295014103	17773048.228450336
0.721677088972994	17729260.075878706
0.7217973684878227	17685464.625281718
0.7219176680492374	17641661.87544291
0.7220379876605789	17597851.825145826
0.722158327325189	17554034.47317367
0.7222786870464099	17510209.81830955
0.7223990668275843	17466377.85933626
0.7225194666720555	17415716.836927503
0.7226398865831676	17360212.620261114
0.7227603265642646	17304699.152892083
0.722880786618692	17249176.433278374
0.7230012667497951	17193644.4598781
0.7231217669609201	17138103.231148914
0.7232422872554135	17082552.745548323
0.7233628276366229	17026993.001533374
0.7234833881078956	17048094.551516667
0.7236039686725803	17098308.468907967
0.7237245693340255	17148530.755285416
0.7238451900955812	17198761.41204402
0.7239658309605971	17249000.44057869
0.7240864919324239	17299247.842284855
0.7242071730144127	17349503.61855797
0.724327874209915	17399767.77079369
0.7244485955222832	17379687.86658528
0.7245693369548704	17347972.435168933
0.7246900985110294	17316251.717847396
0.7248108801941148	17284525.71373955
0.7249316820074803	17252794.421964467
0.7250525039544815	17221057.841640696
0.7251733460384739	17189315.97188687
0.7252942082628137	17157752.98732943
0.7254150906308574	17232901.86497964
0.7255359931459625	17308063.267442793
0.7256569158114868	17383237.196806386
0.7257778586307888	17458423.65515824
0.7258988216072273	17533622.644586463
0.7260198047441617	17608834.16717951
0.7261408080449525	17684058.22502645
0.72626183151296	17745564.835898086
0.7263828751515454	17715838.07442056
0.7265039389640706	17686106.35848279
0.726625022953898	17656369.68725901
0.7267461271243904	17626628.05992335
0.7268672514789111	17596881.47564982
0.7269883960208241	17567129.93361227
0.7271095607534942	17537373.432984356
0.7272307456802866	17503559.14769971
0.7273519508045666	17458791.567484863
0.7274731761297006	17414016.526006673
0.7275944216590555	17369234.02202157
0.7277156873959987	17324444.054285783
0.7278369733438982	17279646.621555302
0.727958279506122	17234841.722586155
0.7280796058860397	17190029.356133793
0.7282009524870207	17177812.29435425
0.7283223193124353	17213816.328897726
0.7284437063656539	17249826.36411355
0.7285651136500483	17285842.40100197
0.7286865411689898	17321864.44056313
0.7288079889258514	17357892.48379764
0.7289294569240056	17393926.53170594
0.7290509451668262	17429966.58528893
0.7291724536576875	17456638.769564286
0.7292939823999636	17475548.133875053
0.7294155313970303	17494460.64974658
0.7295371006522632	17513376.317704074
0.7296586901690385	17532295.138272885
0.7297802999507332	17551217.111978445
0.7299019300007252	17570142.23934634
0.7300235803223919	17589070.520902082
0.7301452509191123	17583572.353362072
0.7302669417942654	17566797.310684115
0.7303886529512311	17550019.472165707
0.7305103843933897	17533238.837340876
0.7306321361241218	17516455.405743588
0.7307539081468093	17499669.176907666
0.7308757004648336	17482880.150366977
0.7309975130815778	17466088.325655177
0.7311193460004248	17470261.086168457
0.7312411992247582	17479181.290177993
0.7313630727579622	17488102.980888195
0.7314849666034219	17497026.158546858
0.7316068807645224	17505950.82340179
0.7317288152446498	17514876.97570087
0.7318507700471907	17523804.615692005
0.7319727451755319	17532733.743623134
0.732094740633061	17521515.235914133
0.7322167564231665	17509387.73851786
0.7323387925492371	17497258.219872024
0.7324608490146619	17485126.679639746
0.732582925822831	17472993.117484093
0.7327050229771347	17460857.533068098
0.7328271404809642	17448719.926054686
0.7329492783377112	17433389.85710074
0.7330714365507675	17386691.841248654
0.7331936151235259	17339986.042393938
0.7333158140593796	17293272.459239464
0.7334380333617229	17246551.090487726
0.7335602730339499	17199821.934841175
0.7336825330794556	17153084.99100201
0.7338048135016354	17106340.25767229
0.7339271143038857	17063846.871824082
0.734049435489603	17035617.43746006
0.7341717770621846	17007383.298190307
0.7342941390250283	16979144.45323069
0.7344165213815324	16950900.901796926
0.734538924135096	16922652.643104546
0.7346613472891185	16894399.67636909
0.734783790847	16866142.000805832
0.7349062548121412	16838865.04444542
0.7350287391879431	16813325.32760265
0.7351512439778078	16787781.354140352
0.7352737691851374	16762233.123349179
0.735396314813335	16736680.634519516
0.7355188808658037	16711123.886941755
0.7356414673459482	16685562.879906014
0.7357640742571725	16659997.612702452
0.7358867016028818	16655870.399598008
0.7360093493864824	16672918.718339933
0.7361320176113801	16689969.878468292
0.736254706280982	16707023.880456673
0.7363774153986956	16724080.72477874
0.7365001449679286	16741140.41190816
0.7366228949920899	16758202.942318782
0.7367456654745885	16775268.316484472
0.7368684564188344	16759808.988606445
0.7369912678282374	16725963.20052074
0.7371140997062088	16692111.77147034
0.7372369520561599	16658254.700515067
0.7373598248815024	16624391.98671471
0.7374827181856494	16590523.629128663
0.7376056319720137	16556649.62681635
0.7377285662440091	16522769.978836978
0.7378515210050496	16459765.723570386
0.7379744962585505	16387989.95816803
0.738097492007927	16316202.230138125
0.7382205082565949	16244402.537486926
0.738343545007971	16172590.8782203
0.7384666022654723	16100767.250343723
0.7385896800325165	16028931.65186261
0.7387127783125219	15957084.080781657
0.7388358971089073	15984573.020289972
0.7389590364250921	16022031.440941682
0.7390821962644963	16059496.104663529
0.7392053766305403	16096967.01249594
0.7393285775266454	16134444.165479684
0.7394517989562333	16171927.564655628
0.7395750409227259	16209417.21106471
0.7396983034295463	16244380.579650572
0.739821586480118	16223011.84769196
0.7399448900778645	16201639.554278066
0.7400682142262109	16180263.698815204
0.740191558928582	16158884.280709788
0.7403149241884034	16137501.299368037
0.7404383100091014	16116114.754196059
0.7405617163941028	16094724.644599898
0.7406851433468352	16065539.100042114
0.7408085908707264	16000702.760109907
0.7409320589692048	15935855.614121074
0.7410555476456997	15870997.660274524
0.7411790569036406	15806128.896769049
0.7413025867464579	15741249.321802968
0.7414261371775823	15676358.933574377
0.7415497082004452	15611457.730281131
0.7416732998184786	15557162.177259477
0.741796912035115	15525631.987216793
0.7419205448537874	15494096.542142443
0.7420441982779297	15462555.841160582
0.742167872310976	15431009.883395195
0.7422915669563612	15399458.667970182
0.7424152822175206	15367902.194009272
0.7425390180978901	15336340.460636057
0.7426627746009065	15308248.007269546
0.7427865517300065	15284386.585253634
0.7429103494886282	15260521.186334027
0.7430341678802096	15236651.809847951
0.7431580069081896	15212778.455132464
0.7432818665760077	15188901.121524489
0.7434057468871037	15165019.808360934
0.7435296478449182	15141134.514978532
0.7436535694528923	15090740.498356136
0.7437775117144678	15022194.773604527
0.7439014746330868	14953637.624565564
0.7440254582121922	14885069.049335036
0.7441494624552276	14816489.046008607
0.7442734873656368	14747897.61268164
0.7443975329468645	14679294.747449063
0.7445215992023557	14610680.448405622
0.7446456861355559	14536463.128198935
0.7447697937499119	14460173.646827662
0.7448939220488703	14383871.450542847
0.7450180710358784	14307556.537225384
0.7451422407143843	14231228.904755693
0.7452664310878367	14154888.551013852
0.7453906421596846	14078535.473879801
0.7455148739333779	14002169.671232872
0.7456391264123667	13965886.795663577
0.7457633996001021	13936008.946422007
0.7458876935000356	13906126.117538843
0.7460120081156189	13876238.308184255
0.7461363434503048	13846345.517528096
0.7462606995075466	13816447.744740132
0.7463850762907978	13786544.988990081
0.7465094738035127	13756624.668601379
0.7466338920491467	13723408.282154998
0.746758331031155	13690186.359644178
0.7468827907529935	13656958.900146311
0.7470072712181189	13623725.902738528
0.7471317724299886	13590487.366497837
0.7472562943920602	13557243.290501129
0.7473808371077922	13523993.67382506
0.7475054005806435	13486899.773306012
0.7476299848140736	13426154.54372954
0.7477545898115426	13365399.189948123
0.7478792155765113	13304633.710274396
0.7480038621124406	13243858.103020772
0.7481285294227926	13183072.366499286
0.7482532175110298	13122276.499021647
0.7483779263806148	13061470.498899516
0.7485026560350116	12997921.37667238
0.7486274064776842	12926964.933872998
0.748752177712097	12855996.664999945
0.7488769697417158	12785016.56808193
0.749001782570006	12714024.641147846
0.7491266162004343	12643020.882225962
0.7492514706364677	12572005.289344225
0.7493763458815739	12500977.86053027
0.7495012419392209	12428063.740896331
0.7496261588128773	12352442.144418081
0.7497510965060128	12276807.944340367
0.7498760550220971	12201161.138562666
0.7500010343646007	12125501.72498399
0.7501260345369949	12049829.701503014
0.750251055542751	11974145.06601821
0.7503760973853414	11898447.816427447
0.7505011600682389	11818407.741557674
0.750626243594917	11734738.701115962
0.7507513479688495	11651055.715834305
0.7508764731935109	11567358.783388404
0.7510016192723765	11483647.90145374
0.7511267862089218	11399923.0677055
0.7512519740066232	11316184.279818272
0.7513771826689577	11232431.535466349
0.7515024121994025	11147964.119393617
0.7516276626014359	11063155.913672172
0.751752933878536	10978333.57324992
0.7518782260341824	10893497.095770903
0.7520035390718548	10808646.478878936
0.7521288729950334	10723781.720217532
0.7522542278071992	10638902.817429675
0.7523796035118337	10554009.768157981
0.7525050001124189	10462916.866153894
0.7526304176124378	10370463.52974267
0.7527558560153731	10277994.784442164
0.752881315324709	10185510.627684018
0.7530067955439299	10093011.056899711
0.7531322966765205	10000496.069520399
0.7532578187259665	9907965.662976494
0.7533833616957542	9815419.834698169
0.75350892558937	9714693.914110921
0.7536345104103016	9613567.279845675
0.7537601161620366	9512423.791141437
0.7538857428480638	9411263.445188984
0.7540113904718717	9310086.239179002
0.7541370590369503	9208892.170301376
0.7542627485467898	9107681.235745538
0.7543884590048808	9006814.889793962
0.7545141904147151	8909536.223876543
0.7546399427797842	8812241.344848298
0.7547657161035808	8714930.250006864
0.754891510389598	8617602.936649628
0.7550173256413296	8520259.402073462
0.7551431618622698	8422899.643574888
0.7552690190559135	8325523.658449919
0.7553948972257561	8225220.427621668
0.7555207963752938	8115129.293571543
0.755646716508023	8005019.810999139
0.755772657627441	7894891.976846269
0.7558986197370455	7784745.788054357
0.756024602840335	7674581.241564342
0.7561506069408084	7564398.334316579
0.7562766320419653	7454197.0632508425
0.7564026781473054	7341930.301635204
0.75652874526033	7226042.437386646
0.7566548333845401	7110135.258493986
0.7567809425234375	6994208.761738219
0.7569070726805247	6878262.9438997265
0.7570332238593047	6762297.801758275
0.7571593960632813	6646313.332093024
0.7572855892959586	6530309.531682821
0.7574118035608413	6417165.886477529
0.7575380388614347	6306820.482227977
0.7576642952012449	6196456.687077676
0.7577905725837782	6086074.497961676
0.7579168710125422	5975673.9118139595
0.7580431904910444	5865254.92556851
0.7581695310227928	5754817.536158826
0.7582958926112967	5644361.740517436
0.7584222752600652	5531156.059420846
0.7585486789726085	5416362.381903721
0.7586751037524372	5301549.572106965
0.7588015496030628	5186717.626841686
0.7589280165279966	5071866.54291909
0.7590545045307512	4956996.3171491735
0.7591810136148396	4842106.946341631
0.7593075437837755	4727198.427305451
0.7594340950410726	4613093.456736043
0.7595606673902461	4499208.16399605
0.7596872608348112	4385303.8903738195
0.7598138753782836	4271380.63270611
0.75994051102418	4157438.387828684
0.7600671677760173	4043477.1525772
0.7601938456373134	3929496.9237864204
0.7603205446115863	3815497.698290906
0.7604472647023548	3703180.5211464902
0.7605740059131385	3591013.708462569
0.7607007682474575	3478828.2013097573
0.7608275517088319	3366623.9965726696
0.7609543563007835	3254401.091134543
0.7610811820268336	3142159.481878911
0.7612080288905045	3029899.165688619
0.7613348968953197	2917675.9425484277
0.7614617860448022	2806578.9719976373
0.7615886963424764	2695463.485284937
0.7617156277918667	2584329.4793245587
0.7618425803964988	2473176.951029762
0.7619695541598982	2362005.8973136125
0.7620965490855914	2250816.3150885925
0.7622235651771058	2139608.2012664066
0.7623506024379685	2031170.7338187299
0.7624776608717082	1934940.4785093614
0.7626047404818536	1838694.1848241037
0.7627318412719337	1742431.8500900636
0.762858963245479	1646153.4716335076
0.7629861064060198	1549859.0467805336
0.7631132707570876	1453548.5728566507
0.7632404563022137	1357222.0471872
0.7633676630449308	1265809.1365590892
0.7634948909887717	1184874.619984981
0.7636221401372697	1103926.6143248822
0.7637494104939593	1022965.1173304303
0.7638767020623748	941990.1267532631
0.7640040148460518	861001.6403442407
0.7641313488485262	779999.6558541532
0.7642587040733344	698984.1710332254
0.7643860805240132	627947.3565640058
0.7645134782041005	568822.3602946537
0.7646408971171346	509687.509859232
0.764768337266654	450542.80361542606
0.7648957986561985	391388.23992056045
