#wavelength	surface flux
0.7	162995.07766721875
0.7001166666666666	163308.61405340943
0.7002333527777778	163528.46282512438
0.700350058336574	163748.34823830117
0.7004667833462966	163968.27029904653
0.7005835278101878	164188.22901346927
0.7007002917314895	164408.22438767742
0.7008170751134447	164628.25642778122
0.7009338779592968	164848.32513989162
0.7010507002722901	164980.9091152167
0.7011675420556689	165007.00744461024
0.701284403312678	165033.11012372532
0.7014012840465635	165059.21715328697
0.7015181842605713	165085.3285340202
0.701635103957948	165111.4442666502
0.701752043141941	165137.56435190229
0.701869001815798	165163.68879050194
0.7019859799827672	165278.74923728147
0.7021029776460976	165455.72028452044
0.7022199948090387	165632.72082693415
0.7023370314748403	165809.7508694382
0.7024540876467528	165986.8104169493
0.702571163328027	166163.8994743847
0.7026882585219152	166341.01804666346
0.7028053732316688	166518.16613870402
0.7029225074605406	166915.1246082648
0.7030396612117841	167397.01670425927
0.7031568344886527	167878.98911560312
0.7032740272944008	168361.0418556819
0.7033912396322832	168843.1749378843
0.7035084715055552	169325.38837559987
0.7036257229174727	169807.68218222196
0.7037429938712924	170290.0563711456
0.7038602843702709	170669.3658644453
0.7039775944176659	171031.24441370674
0.7040949240167356	171393.18327605986
0.7042122731707383	171755.1824615565
0.7043296418829335	172117.24198025092
0.7044470301565806	172479.3618421984
0.70456443799494	172841.54205745595
0.7046818654012724	173203.78263608293
0.7047993123788394	173464.38423702642
0.7049167789309024	173724.91256705098
0.7050342650607243	173985.48431846427
0.7051517707715678	174246.09949850268
0.7052692960666963	174506.7581144043
0.705386840949374	174767.46017340847
0.7055044054228656	175028.20568275623
0.7056219894904361	175261.7973967778
0.7057395931553511	175322.592395781
0.705857216420877	175383.39752728405
0.7059748592902804	175444.21279297568
0.7060925217668288	175505.03819454496
0.70621020385379	175565.8737336812
0.7063279055544321	175626.71941207384
0.7064456268720246	175687.57523141298
0.7065633678098366	175777.68934398398
0.7066811283711383	175948.3684186508
0.7067989085592001	176119.07593983
0.7069167083772933	176289.8119122627
0.7070345278286895	176460.57634069087
0.707152366916661	176631.36922985717
0.7072702256444803	176802.19058450477
0.7073881040154211	176973.0404093784
0.7075060020327569	177189.3789857475
0.7076239196997625	177471.95957246545
0.7077418570197124	177754.58725594758
0.7078598139958823	178037.2620440436
0.7079777906315483	178319.98394460458
0.7080957869299869	178602.7529654821
0.7082138028944751	178885.56911452962
0.7083318385282908	179168.4323996022
0.7084498938347124	179241.89138171708
0.708567968817018	179137.78539061444
0.7086860634784875	179033.6620485132
0.7088041778224007	178929.5213525215
0.7089223118520377	178825.36329974726
0.7090404655706796	178721.18788729762
0.709158638981608	178616.9951122791
0.709276832088105	178512.7849717981
0.7093950448934531	178675.73251071555
0.7095132774009353	178966.1258701203
0.7096315296138355	179256.5676284184
0.7097498015354378	179547.0577936761
0.7098680931690269	179837.5963739611
0.7099864045178884	180128.18337734317
0.7101047355853081	180418.8188118924
0.7102230863745722	180709.50268568055
0.7103414568889679	180962.01614093117
0.7104598471317828	181205.8874550001
0.7105782571063047	181449.79941428787
0.7106966868158224	181693.75202556886
0.710815136263625	181937.7452956183
0.7109336054530023	182181.77923121295
0.7110520943872445	182425.85383913008
0.7111706030696424	182669.9691261487
0.7112891315034873	182749.1493206901
0.7114076796920712	182820.4712424209
0.7115262476386865	182891.80505113868
0.7116448353466263	182963.15074882453
0.711763442819184	183034.50833746002
0.711882070059654	183105.87781902702
0.7120007170713306	183177.25919550756
0.7121193838575091	183249.07866607388
0.7122380704214853	183325.35523414594
0.7123567767665555	183401.64451497927
0.7124755028960166	183477.9465106928
0.7125942488131658	183554.26122340554
0.7127130145213015	183630.58865523725
0.7128318000237216	183706.9288083074
0.7129506053237256	183783.2816847365
0.7130694304246129	183851.18364158325
0.7131882753296837	183889.5050307043
0.7133071400422386	183927.83280672354
0.7134260245655789	183966.16697070544
0.7135449289030065	184004.50752371465
0.7136638530578235	184042.85446681603
0.7137827970333332	184081.20780107463
0.7139017608328388	184119.56752755563
0.7140207444596443	184146.9588939531
0.7141397479170543	184154.77695479008
0.7142587712083737	184162.5963186372
0.7143778143369084	184170.4169857116
0.7144968773059646	184178.23895623055
0.7146159601188489	184186.06223041122
0.7147350627788687	184193.88680847094
0.7148541852893318	184201.712690627
0.7149733276535467	184101.2596166943
0.7150924898748222	183891.60240619676
0.715211671956468	183681.9102528308
0.7153308739017941	183472.1831507724
0.715450095714111	183262.42109419714
0.71556933739673	183052.62407727906
0.7156885989529628	182842.79209419154
0.7158078803861218	182632.92513910652
0.7159271816995193	182053.20892926925
0.7160465028964692	181256.33819165034
0.7161658439802853	180459.33464224185
0.7162852049542819	179662.19825890864
0.7164045858217744	178864.92901951104
0.716523986586078	178067.5269019072
0.7166434072505089	177269.99188395083
0.716762847818384	176472.32394349115
0.7168823082930204	176072.14549640732
0.7170017886777359	175788.87918206395
0.7171212889758488	175505.5656566684
0.7172408091906781	175222.20491235185
0.7173603493255433	174938.79694124448
0.7174799093837642	174655.34173547543
0.7175994893686615	174371.83928717198
0.7177190892835562	174088.28958846058
0.7178387091317702	175011.43870490073
0.7179583489166254	176055.8783165602
0.7180780086414448	177100.49200148912
0.7181976883095517	178145.27978869883
0.7183173879242699	179190.2417072065
0.718437107488924	180235.37778603417
0.7185568470068389	181280.68805420867
0.7186766064813399	182277.9799461808
0.7187963859157535	182070.51698147334
0.7189161853134061	181863.01943960512
0.719036004677625	181655.48731481322
0.7191558440117378	181447.920601334
0.7192757033190732	181240.31929340222
0.7193955826029597	181032.68338525272
0.7195154818667269	180825.01287111832
0.7196354011137046	180591.45238435737
0.7197553403472235	180238.81026771668
0.7198752995706147	179886.10937739004
0.7199952787872098	179533.34970358142
0.720115278000341	179180.53123649384
0.7202352972133411	178827.6539663284
0.7203553364295432	178474.7178832851
0.7204753956522815	178121.72297756083
0.7205954748848902	177930.8548867249
0.7207155741307044	178097.51372082692
0.7208356933930594	178264.20033140096
0.7209558326752915	178430.91472307686
0.7210759919807375	178597.6569004849
0.7211961713127342	178764.42686825563
0.7213163706746197	178931.22463102124
0.7214365900697322	179098.0501934138
0.7215568295014103	179067.5215165638
0.721677088972994	178801.4777221375
0.7217973684878227	178535.3895870792
0.7219176680492374	178269.25710399813
0.7220379876605789	178003.08026550332
0.722158327325189	177736.85906420203
0.7222786870464099	177470.59349270063
0.7223990668275843	177204.2835436039
0.7225194666720555	176808.20889344576
0.7226398865831676	176320.1321953125
0.7227603265642646	175831.97415106406
0.722880786618692	175343.73474714055
0.7230012667497951	174855.41396998338
0.7231217669609201	174367.0118060299
0.7232422872554135	173878.52824171627
0.7233628276366229	173389.96326347438
0.7234833881078956	173323.97214957408
0.7236039686725803	173418.43594044118
0.7237245693340255	173512.91547527324
0.7238451900955812	173607.41075669465
0.7239658309605971	173701.9217873295
0.7240864919324239	173796.44856980295
0.7242071730144127	173890.9911067401
0.724327874209915	173985.54940076658
0.7244485955222832	172940.07824475606
0.7245693369548704	171705.93599978415
0.7246900985110294	170471.58806443986
0.7248108801941148	169237.03440443642
0.7249316820074803	168002.27498549374
0.7250525039544815	166767.3097733126
0.7251733460384739	165532.13873359587
0.7252942082628137	164299.37153019436
0.7254150906308574	164578.54063305567
0.7255359931459625	164857.75626410084
0.7256569158114868	165137.01843108458
0.7257778586307888	165416.32714176297
0.7258988216072273	165695.68240389304
0.7260198047441617	165975.08422523318
0.7261408080449525	166254.532613544
0.72626183151296	166472.84809300437
0.7263828751515454	166284.62718790208
0.7265039389640706	166096.37491264896
0.726625022953898	165908.09126201653
0.7267461271243904	165719.77623077558
0.7268672514789111	165531.42981369622
0.7269883960208241	165343.0520055475
0.7271095607534942	165154.64280109727
0.7272307456802866	164955.13387123094
0.7273519508045666	164725.6934754761
0.7274731761297006	164496.21483965538
0.7275944216590555	164266.6979573954
0.7277156873959987	164037.1428223216
0.7278369733438982	163807.54942805826
0.727958279506122	163577.91776822982
0.7280796058860397	163348.2478364578
0.7282009524870207	162872.84719961273
0.7283223193124353	162033.96086988592
0.7284437063656539	161194.93472577253
0.7285651136500483	160355.7687439671
0.7286865411689898	159516.4629011664
0.7288079889258514	158677.0171740566
0.7289294569240056	157837.4315393275
0.7290509451668262	156997.7059736583
0.7291724536576875	156287.30547394545
0.7292939823999636	155684.0622800167
0.7294155313970303	155080.71854555435
0.7295371006522632	154477.27425380313
0.7296586901690385	153873.72938800373
0.7297802999507332	153270.08393139366
0.7299019300007252	152666.3378672059
0.7300235803223919	152062.49117867576
0.7301452509191123	151805.31162198828
0.7302669417942654	151708.1466120378
0.7303886529512311	151610.96540791896
0.7305103843933897	151513.76800693275
0.7306321361241218	151416.55440637976
0.7307539081468093	151319.32460355986
0.7308757004648336	151222.078595773
0.7309975130815778	151124.81638031808
0.7311193460004248	151173.23146371782
0.7312411992247582	151254.63776685833
0.7313630727579622	151336.05763771597
0.7314849666034219	151417.4910785522
0.7316068807645224	151498.93809162852
0.7317288152446498	151580.39867920702
0.7318507700471907	151661.8728435502
0.7319727451755319	151743.36058692072
0.732094740633061	151115.6446378217
0.7322167564231665	150455.8948831231
0.7323387925492371	149796.035170132
0.7324608490146619	149136.0654805223
0.732582925822831	148475.9857959641
0.7327050229771347	147815.79609812595
0.7328271404809642	147155.4963686708
0.7329492783377112	146486.14839557436
0.7330714365507675	145728.81696121942
0.7331936151235259	144971.35930495893
0.7333158140593796	144213.7754057566
0.7334380333617229	143456.0652425699
0.7335602730339499	142698.22879435567
0.7336825330794556	141940.26604006655
0.7338048135016354	141182.1769586532
0.7339271143038857	140568.4918174381
0.734049435489603	140438.97996646762
0.7341717770621846	140309.44653018864
0.7342941390250283	140179.89150500367
0.7344165213815324	140050.31488731457
0.734538924135096	139920.71667352229
0.7346613472891185	139791.0968600279
0.734783790847	139661.45544323124
0.7349062548121412	139278.2517880689
0.7350287391879431	138446.84084473492
0.7351512439778078	137615.29133290867
0.7352737691851374	136783.60322949814
0.735396314813335	135951.77651140295
0.7355188808658037	135119.8111555228
0.7356414673459482	134287.7071387483
0.7357640742571725	133455.46443797156
0.7358867016028818	132761.1358375987
0.7360093493864824	132203.03111286653
0.7361320176113801	131644.833370681
0.736254706280982	131086.54259553846
0.7363774153986956	130528.15877193265
0.7365001449679286	129969.68188435739
0.7366228949920899	129411.1119173004
0.7367456654745885	128852.44885524892
0.7368684564188344	128278.31073998392
0.7369912678282374	127695.38338518419
0.7371140997062088	127112.35887582507
0.7372369520561599	126529.23719571385
0.7373598248815024	125946.01832865726
0.7374827181856494	125362.70225845517
0.7376056319720137	124779.288968908
0.7377285662440091	124195.7784438125
0.7378515210050496	123558.79976614263
0.7379744962585505	122905.65724492352
0.738097492007927	122252.40586661772
0.7382205082565949	121599.04561308259
0.738343545007971	120945.576466172
0.7384666022654723	120291.99840773628
0.7385896800325165	119638.31141962513
0.7387127783125219	118984.51548368181
0.7388358971089073	118385.23057167798
0.7389590364250921	117791.32429941563
0.7390821962644963	117197.31904277412
0.7392053766305403	116603.21478525737
0.7393285775266454	116009.01151036393
0.7394517989562333	115414.70920159078
0.7395750409227259	114820.30784243379
0.7396983034295463	114220.23970069522
0.739821586480118	113496.21356857884
0.7399448900778645	112772.06676544188
0.7400682142262109	112047.79927116886
0.740191558928582	111323.41106564755
0.7403149241884034	110598.90212875925
0.7404383100091014	109874.27244038126
0.7405617163941028	109149.52198038902
0.7406851433468352	108391.65919718593
0.7408085908707264	107482.74178122147
0.7409320589692048	106573.67287902144
0.7410555476456997	105664.45246533697
0.7411790569036406	104755.08051491757
0.7413025867464579	103845.55700250616
0.7414261371775823	102935.88190284243
0.7415497082004452	102026.05519066281
0.7416732998184786	101131.30791241149
0.741796912035115	100269.08515721376
0.7419205448537874	99406.7186982237
0.7420441982779297	98544.2085114905
0.742167872310976	97681.55457305872
0.7422915669563612	96818.75685897056
0.7424152822175206	95955.8153452636
0.7425390180978901	95092.73000797156
0.7426627746009065	94337.67365971731
0.7427865517300065	93714.36190261593
0.7429103494886282	93090.94626022103
0.7430341678802096	92467.42671521957
0.7431580069081896	91843.80325029396
0.7432818665760077	91220.07584812332
0.7434057468871037	90596.24449138618
0.7435296478449182	89972.3091627566
0.7436535694528923	89270.48095769895
0.7437775117144678	88515.28690195465
0.7439014746330868	87759.96698053554
0.7440254582121922	87004.52117246219
0.7441494624552276	86248.94945675386
0.7442734873656368	85493.25181242642
0.7443975329468645	84737.42821849097
0.7445215992023557	83981.47865395663
0.7446456861355559	83197.02968346966
0.7447697937499119	82401.99795900559
0.7448939220488703	81606.83372925429
0.7450180710358784	80811.53697213205
0.7451422407143843	80016.1076655502
0.7452664310878367	79220.54578741651
0.7453906421596846	78424.85131563732
0.7455148739333779	77629.02422811258
0.7456391264123667	76815.53921872025
0.7457633996001021	75999.11643248686
0.7458876935000356	75182.55757578762
0.7460120081156189	74365.86262594718
0.7461363434503048	73549.03156028136
0.7462606995075466	72732.06435610386
0.7463850762907978	71914.9609907269
0.7465094738035127	71097.89102078798
0.7466338920491467	70325.04588235944
0.746758331031155	69552.07193640705
0.7468827907529935	68778.9691614646
0.7470072712181189	68005.73753605962
0.7471317724299886	67232.37703871694
0.7472562943920602	66458.88764795857
0.7473808371077922	65685.26934230106
0.7475054005806435	64911.63381074345
0.7476299848140736	64138.55743270141
0.7477545898115426	63365.35220859619
0.7478792155765113	62592.018116953426
0.7480038621124406	61818.55513629601
0.7481285294227926	61044.96324514198
0.7482532175110298	60271.242422005285
0.7483779263806148	59497.39264539915
0.7485026560350116	58730.08621569318
0.7486274064776842	57980.71029082468
0.748752177712097	57231.20946997006
0.7488769697417158	56481.58373231037
0.749001782570006	55731.83305702864
0.7491266162004343	54981.95742330125
0.7492514706364677	54231.95681030124
0.7493763458815739	53481.8311971983
0.7495012419392209	52736.530506416006
0.7496261588128773	51998.221732165875
0.7497510965060128	51259.78990645286
0.7498760550220971	50521.235008769174
0.7500010343646007	49782.55701860241
0.7501260345369949	49043.75591543694
0.750251055542751	48304.831678755094
0.7503760973853414	47565.78428803335
0.7505011600682389	46842.92822492636
0.750626243594917	46133.573922079246
0.7507513479688495	45424.10139351606
0.7508764731935109	44714.510619531204
0.7510016192723765	44004.801580417174
0.7511267862089218	43294.974256463945
0.7512519740066232	42585.028627956475
0.7513771826689577	41874.96467517719
0.7515024121994025	41200.18011070208
0.7516276626014359	40541.78749417209
0.751752933878536	39883.28514554049
0.7518782260341824	39224.67304651724
0.7520035390718548	38565.951178810516
0.7521288729950334	37907.11952412619
0.7522542278071992	37248.17806416603
0.7523796035118337	36589.12678062888
0.7525050001124189	35954.817158182006
0.7526304176124378	35325.80646357052
0.7527558560153731	34696.690933844075
0.752881315324709	34067.47055152873
0.7530067955439299	33438.14529914944
0.7531322966765205	32808.715159228916
0.7532578187259665	32179.180114284893
0.7533833616957542	31549.540146833395
0.75350892558937	30960.204768456206
0.7536345104103016	30372.671339063654
0.7537601161620366	29785.039987433174
0.7538857428480638	29197.310697243516
0.7540113904718717	28609.48345217292
0.7541370590369503	28021.558235894947
0.7542627485467898	27433.535032080552
0.7543884590048808	26851.306851587477
0.7545141904147151	26327.747567938324
0.7546399427797842	25804.10102440941
0.7547657161035808	25280.367206456496
0.754891510389598	24756.546099533945
0.7550173256413296	24232.637689093368
0.7551431618622698	23708.641960584508
0.7552690190559135	23184.558899454343
0.7553948972257561	22670.454778593772
0.7555207963752938	22190.053710895238
0.755646716508023	21709.57257635236
0.755772657627441	21229.01136162023
0.7558986197370455	20748.370053352235
0.756024602840335	20267.648638199655
0.7561506069408084	19786.847102811218
0.7562766320419653	19305.96543383312
0.7564026781473054	18839.068173725314
0.75652874526033	18396.842963329265
0.7566548333845401	17954.54404873126
0.7567809425234375	17512.171417647638
0.7569070726805247	17069.725057792428
0.7570332238593047	16627.204956877296
0.7571593960632813	16184.611102611594
0.7572855892959586	15741.943482703487
0.7574118035608413	15335.685432190825
0.7575380388614347	14965.052521346717
0.7576642952012449	14594.357838350661
0.7577905725837782	14223.601372907975
0.7579168710125422	13852.783114720389
0.7580431904910444	13481.90305348963
0.7581695310227928	13110.961178915804
0.7582958926112967	12739.957480695746
0.7584222752600652	12398.748717008624
0.7585486789726085	12074.634659228415
0.7586751037524372	11750.466582438454
0.7588015496030628	11426.244477635062
0.7589280165279966	11101.968335814843
0.7590545045307512	10777.638147970989
0.7591810136148396	10453.253905095833
0.7593075437837755	10128.81559817972
0.7594340950410726	9840.069589757153
0.7595606673902461	9561.646786693498
0.7596872608348112	9283.177579829055
0.7598138753782836	9004.661961430442
0.75994051102418	8726.099923761834
0.7600671677760173	8447.491459087167
0.7601938456373134	8168.836559668172
0.7603205446115863	7890.135217766099
0.7604472647023548	7646.46811377047
0.7605740059131385	7406.247414800306
0.7607007682474575	7165.986679046744
0.7608275517088319	6925.6858998377575
0.7609543563007835	6685.34507049837
0.7610811820268336	6444.964184354237
0.7612080288905045	6204.543234729541
0.7613348968953197	5965.346997180448
0.7614617860448022	5752.061432347462
0.7615886963424764	5538.740319920046
0.7617156277918667	5325.383653974099
0.7618425803964988	5111.991428583651
0.7619695541598982	4898.563637822362
0.7620965490855914	4685.10027576277
0.7622235651771058	4471.601336475922
0.7623506024379685	4265.875277066093
0.7624776608717082	4094.340275817064
0.7626047404818536	3922.7766854011525
0.7627318412719337	3751.1845010538
0.762858963245479	3579.563718008948
0.7629861064060198	3407.91433150024
0.7631132707570876	3236.236336760269
0.7632404563022137	3064.5297290213284
0.7633676630449308	2901.5754577665743
0.7634948909887717	2757.285763621904
0.7636221401372697	2612.972021195065
0.7637494104939593	2468.6342264776845
0.7638767020623748	2324.272375461393
0.7640040148460518	2179.886464136435
0.7641313488485262	2035.4764884929273
0.7642587040733344	1891.0424445199824
0.7643860805240132	1756.0537243540955
0.7645134782041005	1632.3423343195982
0.7646408971171346	1508.6103257200439
0.764768337266654	1384.8576951191014
0.7648957986561985	1261.0844390796856
0.7650232812893079	1137.2905541642797
