#wavelength	surface flux
0.6450077295303345	9092.06937233319
0.6472567915916443	9655.191739942426
0.6494921445846558	10303.397302500845
0.6517150402069092	10963.149980062808
0.6539263725280762	11581.404158272344
0.6561272740364075	12199.805367647079
0.6583186388015747	12810.543041301431
0.6605015397071838	13486.326993911338
0.6626768708229065	14179.654997062984
0.6648455858230591	14858.859634554688
0.6670085787773132	15511.543633900199
0.6691668033599854	15241.789517444553
0.6713210344314575	14791.214625651037
0.6734722256660461	17562.517013434695
0.6756211519241333	18520.875042671298
0.6777685880661011	19334.947214010754
0.6799154281616211	20148.82649219314
0.6820623278617859	20973.29633576262
0.6842101216316223	21811.732986543208
0.6863595843315125	22655.812487812702
0.688511312007904	23510.52611525123
0.6906660795211792	24190.231049863436
0.6928245425224304	24346.65429290103
0.6949873566627502	25953.901371013777
0.6971551775932312	27072.562384173318
0.6993286609649658	27927.749416542705
0.7015084028244019	28710.255004554736
0.7036949396133423	29751.99945784294
0.7058889269828796	30981.045198811607
0.7080909013748169	31870.32404565957
0.710301399230957	32841.940001143616
0.712520956993103	33957.53354427917
0.7147500514984131	34737.60170145832
0.7169892191886902	34297.25876851873
0.7192389369010925	35983.92828683671
0.7214996814727783	36744.403549869974
0.723771870136261	37243.62594024662
0.7260559797286987	37548.18894767777
0.7283523678779602	38328.09729640068
0.7306615710258484	38679.01217200189
0.7329838871955872	40245.27984087362
0.7353196740150452	40800.724811769476
0.7376693487167358	41301.30206779863
0.7400332689285278	41912.85223231954
0.7424117922782898	41241.187630031374
0.7448052167892456	41068.207554774825
0.7472138404846191	39899.33695065818
0.7496379613876343	38133.028945597915
0.7520779371261597	35273.47348333039
0.7545340061187744	31276.058820059385
0.7570064663887024	25892.91439491603
0.7594954967498779	19205.83916970888
0.7620013952255249	11381.749875456799
0.7645244002342224	3964.1798090424677
0.7670646905899048	1130.8775118996848
0.7696225643157959	1044.5583957734502
0.7721980810165405	7731.270243853482
0.7747915983200073	18994.853145497953
0.7774031162261963	29974.70016248076
0.7800329327583313	35219.70933170825
0.7826811671257019	49759.44145082997
0.7853479981422424	59435.58206115991
0.7880334854125977	67686.69829779441
0.7907378077507019	74491.53479026243
0.7934610247612	54508.7802278213
0.7962033748626709	69781.49343504802
0.7989648580551147	94163.4989788491
0.801745593547821	100481.21249092584
0.8045456409454346	106070.92916670717
0.8073651194572449	111315.32291231211
0.8102040886878967	112448.0408386348
0.8130625486373901	114065.9907887557
0.8159406185150146	125888.84474731209
0.8188382983207703	131484.99237381323
0.8217556476593018	135453.57295629807
0.8246926665306091	141692.1150460727
0.8276493549346924	147464.9192759386
0.8306257724761963	149625.46448142428
0.8336219191551208	157410.08610729466
0.8366377949714661	159417.94998176268
0.8396733403205872	166122.76139953377
0.8427285552024841	179237.75653765062
0.8458034992218018	186542.3165621439
0.8488980531692505	193851.88830660572
0.8520121574401855	196836.2806970246
0.8551458716392517	208936.2180977301
0.8582990765571594	216944.6340326181
0.8614717125892639	222907.68372680462
0.8646637797355652	229495.9197100081
0.8678751587867737	237310.00621717024
0.8711057901382446	246913.62539854206
0.8743556141853333	252767.3242226862
0.87762451171875	258117.83258475488
0.8809124231338501	259741.410926982
0.8842192888259888	267474.15791695984
0.8875449895858765	269732.3212383087
0.8908893465995789	272834.4306073943
0.894252359867096	254539.94968384135
0.8976338505744934	279188.78794961126
0.9010337591171265	306445.9218587125
0.9044519662857056	325226.616993289
0.9078882932662964	327876.61975277594
0.9113426208496094	347397.46147476137
0.914814829826355	344732.5892156912
0.9183048605918884	335542.8620722129
0.9218124747276306	373702.1344748147
0.925337553024292	329219.38364891143
0.9288799166679382	202294.3459116845
0.9324395060539246	236508.21111001167
0.9360161423683167	243507.93360980653
0.9396095871925354	318715.25980591436
0.943219780921936	285761.0410683041
0.9468464851379395	236387.69031466605
0.9504896402359009	308164.2083930652
0.9541489481925964	313050.10688133986
0.9578243494033813	344891.04493670224
0.9615156054496765	267939.50359561166
0.9652225375175476	299945.88526425324
0.9689450263977051	303111.56561057986
0.9726828336715698	456270.0462212161
0.9764357805252075	433129.90228152816
0.9802037477493286	477635.35297631717
0.983986496925354	508803.95724182145
0.9877838492393494	538471.4893227239
0.9915955662727356	589825.0012355034
0.9954215884208679	617631.7998478708
0.9992615580558777	648718.0894080466
1.0031154155731201	660265.0403726285
1.0069829225540161	695022.6438786084
1.0108637809753418	723487.2647552079
1.0147579908370972	759093.7923103615
1.018665075302124	781354.9509988502
1.022585153579712	795072.7692245747
1.0265177488327026	795172.8257089766
1.0304628610610962	766652.7626214692
1.0344202518463135	870737.8256717712
1.0383895635604858	892637.392697958
1.0423706769943237	917686.9211930193
1.0463634729385376	938849.5453378402
1.0503677129745483	942100.2872132132
1.0543830394744873	978700.5037037538
1.058409333229065	1007610.5896353839
1.0624464750289917	1030181.4127734829
1.0664942264556885	1053674.937552246
1.0705522298812866	1062262.991504086
1.0746204853057861	1099851.1133168272
1.0786986351013184	1116417.4740896851
1.0827864408493042	1146857.4698963524
1.086883783340454	1158666.243700138
1.0909905433654785	1131000.7110169635
1.0951062440872192	1119277.9893079204
1.0992310047149658	987546.112689671
1.10336434841156	633347.6444135741
1.1075061559677124	715876.9233569596
1.1116561889648438	662864.4233050434
1.115814208984375	495681.79196828126
1.1199802160263062	455870.5301150385
1.124153733253479	521951.19325686735
1.1283347606658936	587385.4346187284
1.1325229406356812	434673.6289629346
1.1367181539535522	697379.9554314178
1.1409201622009277	717598.545235129
1.145128846168518	906210.0958554996
1.1493438482284546	754064.4327393314
1.1535650491714478	225930.88489859382
1.1577922105789185	390481.79690755246
1.1620250940322876	459342.5905671796
1.1662636995315552	829366.7676664994
1.170507550239563	736320.0357545018
1.174756646156311	1039856.6247021909
1.1790107488632202	1306856.375873251
1.1832695007324219	1474513.059245214
1.1875330209732056	1514157.343828887
1.191800832748413	1652072.74977165
1.1960728168487549	1783612.0006906667
1.2003488540649414	1878617.9127828486
1.2046287059783936	1849297.049786363
1.2089121341705322	1956151.3175409737
1.2131990194320679	1979471.8578245847
1.2174891233444214	2077936.8703512978
1.2217823266983032	2129184.2914760974
1.2260783910751343	2201944.506043662
1.230377197265625	2241923.654875871
1.2346785068511963	2277895.213647554
1.238982081413269	2342586.2025317983
1.2432878017425537	2383903.3797008055
1.2475954294204712	2415484.5660635275
1.2519049644470215	2436588.781859706
1.256216049194336	2512327.3958206526
1.2605286836624146	2526853.5127585772
1.2648425102233887	2544190.8666810677
1.2691574096679688	2568678.64509064
1.2734732627868652	2584265.5490952106
1.2777899503707886	2642134.4056938393
1.2821072340011597	2613816.179782478
1.2864248752593994	2636041.5994915515
1.2907428741455078	2512825.003907932
1.2950609922409058	2543932.3270009225
1.2993791103363037	2574571.6207854776
1.303696870803833	2463801.0783104496
1.3080145120620728	2479117.8914251407
1.3123314380645752	2408734.9181313044
1.3166478872299194	2691213.3331065215
1.3209635019302368	2592788.0467230957
1.3252781629562378	2176214.420362024
1.3295916318893433	1773768.0580238043
1.3339040279388428	949343.990818977
1.3382149934768677	297093.98193188413
1.3425244092941284	107228.6664917563
1.3468321561813354	277695.64104708
1.3511382341384888	84170.40963297004
1.3554422855377197	72579.75606822968
1.3597444295883179	49874.90875359841
1.3640443086624146	67955.35649333635
1.3683418035507202	53373.93140202216
1.3726370334625244	193973.5792751026
1.3769296407699585	494084.1028870135
1.381219506263733	187164.7327327187
1.3855066299438477	25712.319658330984
1.3897908926010132	34841.842941648436
1.3940720558166504	61966.313037708955
1.3983501195907593	66331.0658166944
1.4026249647140503	189290.1708512932
1.4068963527679443	331839.22550535045
1.4111642837524414	74347.362556514
1.4154287576675415	127452.63090602634
1.419689416885376	119953.57043433365
1.4239463806152344	55596.988010438065
1.4281994104385376	204309.86786912862
1.4324485063552856	163721.6277817352
1.436693549156189	286255.4796374999
1.440934419631958	266485.9128686432
1.4451709985733032	417921.8050887195
1.449403166770935	998302.2636799172
1.453631043434143	1100755.6411069583
1.4578542709350586	1207975.2952030506
1.4620729684829712	1282494.3485819001
1.4662868976593018	1431348.1458114528
1.4704961776733398	1011705.2679303098
1.4747005701065063	1003999.291392879
1.4788999557495117	935932.1668922107
1.4830944538116455	1562225.3992996523
1.4872838258743286	2000360.435291636
1.491468071937561	2089108.7412673538
1.4956470727920532	1762538.6078960374
1.4998208284378052	2083239.8484337996
1.5039892196655273	2461158.8398931795
1.5081522464752197	2276903.9634192223
1.5123097896575928	2512757.544997554
1.5164618492126465	2895204.619894961
1.5206083059310913	3381196.8107215827
1.5247491598129272	3819432.8508614725
1.5288842916488647	3560963.3533578096
1.5330137014389038	3866378.505430988
1.5371372699737549	4110017.9984644433
1.541254997253418	4067417.5973875835
1.545366883277893	4217281.214671005
1.5494728088378906	4346035.86219137
1.5535727739334106	4549621.065057572
1.5576666593551636	4266588.836875168
1.561754584312439	4352938.051406852
1.5658363103866577	4817935.79983491
1.5699119567871094	4975220.689146422
1.5739814043045044	4654260.114878944
1.5780447721481323	4074855.290721299
1.582101821899414	4424331.982008679
1.5861525535583496	5269955.018796715
1.5901970863342285	5219489.292627047
1.5942351818084717	5074014.431296061
1.5982669591903687	4787069.827599803
1.6022924184799194	4650467.012148632
1.606311559677124	4887714.645258058
1.6103241443634033	4767912.555962242
1.6143304109573364	4482898.824512644
1.6183301210403442	4308947.89555673
1.6223233938217163	3906742.9852313953
1.6263102293014526	3673315.920899445
1.6302905082702637	3077613.0631576027
1.634264349937439	3425630.0336169074
1.638231635093689	4991238.360555925
1.6421923637390137	5106233.199101683
1.646146535873413	4321869.907023174
1.6500942707061768	3439886.021294466
1.6540353298187256	4507082.675270593
1.6579699516296387	4727168.433909336
1.661897897720337	4462288.990601047
1.6658192873001099	2760528.9948047833
1.6697341203689575	2392340.1958048693
1.6736423969268799	4171227.9975740956
1.677544116973877	3953950.475059755
1.6814392805099487	3611428.0587370303
1.6853278875350952	3662669.3797387015
1.6892099380493164	3302186.492950019
1.6930854320526123	2943595.194108552
1.696954369544983	2020891.154134403
1.7008168697357178	2322028.1052845647
1.7046726942062378	2280445.209625184
1.708522081375122	2976574.0684544374
1.712364912033081	3132245.7669031606
1.7162011861801147	3604554.9348115055
1.7200311422348022	4108404.67037206
1.723854422569275	3964898.752973601
1.7276713848114014	3755012.158348685
1.731481909751892	3504311.4968138947
1.7352858781814575	3237809.9510089415
1.7390835285186768	3275136.627157186
1.7428747415542603	3279970.999906047
1.7466596364974976	2919659.5050219786
1.7504380941390991	2718799.84321001
1.7542102336883545	2167707.637685255
1.7579760551452637	3128282.73906025
1.7617355585098267	3443366.28126203
1.7654887437820435	2834961.023110226
1.7692357301712036	2133935.9476039996
1.7729763984680176	1348300.1217779326
1.776710867881775	659031.8610049693
1.7804391384124756	600613.4409298133
1.7841613292694092	789780.7628827234
1.7878772020339966	468876.41191757953
1.7915871143341064	642035.5978139985
1.7952908277511597	1064912.589658641
1.7989884614944458	1422893.2510520183
1.8026801347732544	507211.8160726762
1.806365728378296	141017.13049267165
1.8100452423095703	262672.4174527028
1.8137187957763672	442053.7904015877
1.817386507987976	110317.90921335682
1.8210482597351074	457826.5123309718
1.8247040510177612	463645.6119782789
1.828354001045227	91192.494214105
1.8319982290267944	108180.44674420966
1.8356364965438843	280385.37998963194
1.8392690420150757	527948.8767056855
1.8428958654403687	374463.9462087406
1.8465168476104736	411304.3733269779
1.8501322269439697	695056.844688805
1.8537418842315674	398159.11587597587
1.8573459386825562	264806.3589443881
1.860944390296936	275830.4289160773
1.864537239074707	90334.1460430345
1.8681244850158691	84121.42586136772
1.871706247329712	264262.69527514436
1.8752825260162354	444821.2066482139
1.8788533210754395	1095632.6031987437
1.8824186325073242	1635270.9283767315
1.8859784603118896	1165661.0118047919
1.8895330429077148	918405.3368720345
1.8930821418762207	1548509.820414488
1.8966259956359863	1438718.6153287194
1.9001644849777222	229205.5982057955
1.9036977291107178	59324.704855156924
1.9072256088256836	142027.82754795544
1.9107483625411987	109205.52808350131
1.9142658710479736	35341.00938605522
1.9177782535552979	63022.566928589105
1.9212853908538818	133545.32345956235
1.9247875213623047	103791.01039343953
1.9282845258712769	121622.40026800522
1.9317764043807983	224549.41181148283
1.9352631568908691	266491.4773098863
1.9387450218200684	241349.15872170648
1.942221760749817	416021.16629547824
1.9456936120986938	449378.32808230486
1.9491604566574097	644572.9678570428
1.952622413635254	576396.7416978779
1.956079363822937	315959.3721499374
1.959531545639038	411259.80032060825
1.962978720664978	431441.9089454124
1.966421127319336	700151.5744502714
1.9698586463928223	1298022.9845850554
1.9732913970947266	1405506.9910281105
1.9767193794250488	1531635.5134535457
1.9801424741744995	2053034.109348572
1.9835609197616577	2399810.390656809
1.9869745969772339	2453831.0056140954
1.990383505821228	1805984.7661955105
1.9937876462936401	2050173.3459785883
1.9971871376037598	2030988.060890168
2.000581979751587	2169423.41954376
2.003972291946411	3090348.5904632793
2.007357597351074	3524891.131437552
2.0107386112213135	4288876.97834108
2.0141148567199707	4173097.437301314
2.017486572265625	3498059.755232228
2.0208535194396973	4096182.2484310484
2.0242159366607666	4888684.308878626
2.027573823928833	4991916.627472608
2.0309269428253174	5315588.945267444
2.034275770187378	5797828.888757595
2.0376198291778564	6153450.166114982
2.040959596633911	6467892.293282034
2.044294595718384	6958747.644092671
2.0476250648498535	7487340.964510309
2.0509510040283203	7299733.758258853
2.054272413253784	6943684.051435559
2.057589530944824	7242833.347521948
2.0609018802642822	7603418.028405408
2.0642096996307373	7860112.848674126
2.0675129890441895	8012498.705342882
2.0708119869232178	8137133.087597783
2.074106216430664	8078160.951295758
2.0773961544036865	8012939.316786651
2.080681324005127	8153968.987025763
2.0839622020721436	8187131.898996994
2.087238311767578	8214747.961102321
2.090510129928589	8209082.555448249
2.0937774181365967	8062477.276539778
2.0970399379730225	8077019.975660771
2.1002981662750244	8034456.899032861
2.1035518646240234	7913891.4680049
2.1068007946014404	7768389.803882484
2.1100454330444336	7823757.552430306
2.1132853031158447	7823750.731325313
2.116520881652832	7498331.813737899
2.1197516918182373	7306086.712154471
2.1229779720306396	7310777.399881829
2.12619948387146	7384358.697714323
2.1294167041778564	7376646.703734991
2.132629156112671	7426133.4955752
2.1358368396759033	7193029.188525114
2.139039993286133	6800058.2293482
2.1422386169433594	6447321.3526126435
2.145432472229004	6091241.637454649
2.1486217975616455	5890680.746309435
2.151806354522705	5510298.005342331
2.1549863815307617	5649138.769241401
2.1581614017486572	5798016.537360727
2.16133189201355	5311172.560540929
2.1644976139068604	5136067.3314591525
2.167658567428589	5163776.173017133
2.1708147525787354	5379233.62162578
2.173966407775879	5526171.887274783
2.1771130561828613	5500673.757988161
2.1802549362182617	5277643.516031295
2.183391809463501	4927502.217561496
2.1865241527557373	4527645.255406491
2.1896514892578125	4052451.0648874138
2.1927738189697266	3163522.8643443943
2.1958916187286377	2002770.7891221202
2.1990041732788086	1214476.3096476276
2.2021119594573975	954861.0196917529
2.2052149772644043	1015495.3036844267
2.208312749862671	1221053.373684812
2.2114057540893555	1450090.977347716
2.214493751525879	1545527.5059943274
2.217576742172241	1404929.3682642486
2.2206547260284424	1282059.0541100767
2.2237277030944824	1227372.9378537068
2.2267956733703613	1008911.8388739262
2.2298583984375	740016.6243297192
2.2329163551330566	603933.2016840577
2.235969066619873	566788.0401958883
2.2390167713165283	523233.5260294791
2.2420592308044434	420540.56045950577
2.2450966835021973	335380.8603116254
2.248128890991211	386425.1527220938
2.2511560916900635	493373.15312938945
2.254178285598755	537226.6387843067
2.257194995880127	579412.2226210893
2.260206699371338	566242.0282999459
2.2632133960723877	452685.37997342274
2.266214609146118	364319.792989736
2.2692108154296875	360020.85053009476
2.2722020149230957	434954.6275521259
2.2751877307891846	502559.87770080747
2.278168201446533	488479.615048248
2.2811436653137207	435999.2438024652
2.284113883972168	404948.0870751866
2.287078857421875	373203.15776513645
2.290038824081421	337784.6901692967
2.2929933071136475	338683.25950207835
2.295942783355713	367299.4678789241
2.298887014389038	397256.8414826626
2.301826238632202	464232.09359661024
2.304760217666626	648084.3311485618
2.3076889514923096	943949.590862174
2.310612440109253	1155940.595691502
2.3135311603546143	1013152.520223112
2.3164443969726562	549259.9568718459
2.319352865219116	268282.931835913
2.322256088256836	270033.4451472713
2.3251543045043945	291010.22134430753
2.328047275543213	280406.5152028751
2.330935478210449	276019.65701616154
2.3338186740875244	266249.89178466506
2.3366971015930176	251320.17659435683
2.3395702838897705	236253.97316898918
2.3424389362335205	211966.7654056652
2.3453025817871094	184574.93904403754
2.348161458969116	182923.22585977698
2.351015567779541	231489.90383444904
2.353865146636963	313996.081333953
2.3567099571228027	387524.4197596449
2.3595502376556396	443191.4674085737
2.3623859882354736	490035.4497609543
2.3652172088623047	443686.9996547908
2.368043899536133	279572.6351254773
2.370866537094116	167930.20048619743
2.3736846446990967	161758.16778582262
2.3764986991882324	198721.0887342991
2.3793084621429443	247134.36707907676
2.3821144104003906	308566.4155582159
2.384916305541992	374777.6946250269
2.387714147567749	407393.8351155696
2.3905084133148193	375742.3181069868
2.393299102783203	350809.89300763025
2.3960859775543213	378201.59202613874
2.398869514465332	413219.4368402791
2.4016497135162354	410886.1612723335
2.4044265747070312	427122.95755178353
2.407200336456299	518252.93561868765
2.409970998764038	654809.1930812395
2.4127390384674072	749181.9352460795
2.415503978729248	790394.6911021873
2.418266534805298	913084.8481031957
2.4210267066955566	974195.8349604381
2.4237842559814453	868495.4345992527
2.426539897918701	827224.5806697693
2.429293394088745	965988.1160690398
2.4320452213287354	1172200.0571956504
2.4347951412200928	1220850.5303847345
2.4375438690185547	1167192.699867118
2.440291166305542	1218374.27440615
2.443037271499634	1182124.3143333779
2.445782423019409	1010695.4599160157
2.4485268592834473	842621.6415776554
2.451270818710327	837564.1560176684
2.454014539718628	1031277.8624488099
2.4567582607269287	1193426.7849069054
2.4595019817352295	1231360.9815682254
2.4622461795806885	1335715.9045966463
2.4649908542633057	1260644.65247592
2.4677364826202393	996717.0058874919
2.4704833030700684	689984.8650219215
2.473231554031372	509435.13095095346
2.4759814739227295	421726.6109658232
2.4787333011627197	399890.74910397606
2.481487512588501	427814.137991493
