#wavelength	surface flux
0.676892	44529.72883871071
0.678297	46272.758664887806
0.679702	47993.63750320392
0.681109	49707.92767584791
0.682517	51427.134254810255
0.683926	53142.69087420244
0.685337	54839.445536208616
0.686749	56540.39221944699
0.688164	58215.98336576245
0.689581	59755.01949122514
0.691	60532.29230526491
0.692422	60137.57906955145
0.693847	62631.46405639688
0.695274	65795.70007397469
0.696705	67907.28142552117
0.698139	69262.0211225863
0.699576	70730.30801271858
0.701017	71949.07380082675
0.702461	72635.39699185638
0.70391	74895.470546253
0.705362	76991.93060173625
0.706819	78012.9668408289
0.70828	79074.26953202613
0.709745	79955.78032773243
0.711216	81535.02392506473
0.71269	82427.53055270536
0.71417	82857.41898636233
0.715655	81648.54241184317
0.717145	78943.7950125263
0.71864	81176.84218366446
0.72014	81864.4965814029
0.721647	81610.24079928658
0.723158	80350.93840490335
0.724676	78167.98749571902
0.726199	76619.11481878503
0.727728	76355.94614814983
0.729264	73370.09021426413
0.730805	72270.49480698559
0.732353	72496.23472117963
0.733907	70071.18620264162
0.735468	67923.46031766472
0.737035	64970.83079512153
0.738609	62164.743476899326
0.74019	58735.60166661954
0.741777	53861.493822485914
0.743372	49379.404332109305
0.744973	44993.15153542681
0.746582	39898.2654027018
0.748197	34732.567204924715
0.74982	29541.683614514335
0.751451	24394.760040332458
0.753088	19565.304857658968
0.754734	15163.134635263681
0.756386	11306.13028368732
0.758047	8124.603302702526
0.759715	5619.747625379178
0.76139	3651.6147396538354
0.763074	2115.8459733520563
0.764765	943.7737067897206
0.766464	331.36994527840847
0.768172	414.80647357946185
0.769887	358.5887658474395
0.77161	1467.5386920539775
0.773341	3456.4986795915675
0.775081	6056.188715421284
0.776829	9423.314756313854
0.778585	12179.549497296204
0.780349	15279.085779098814
0.782121	25658.213289449362
0.783902	36126.48674722956
0.785691	46690.18772078707
0.787489	58299.801265303206
0.789295	70380.28802333656
0.79111	81167.3210715829
0.792933	66755.78084901886
0.794764	35546.55507900854
0.796604	102841.59592212117
0.798453	140535.17684200418
0.80031	159551.17263981843
0.802176	176271.44859395444
0.804051	192771.26508122668
0.805934	209370.09050307403
0.807826	224250.46093439645
0.809727	231722.24541779107
0.811636	238246.79019439186
0.813554	249969.60437648481
0.81548	282588.22933507455
0.817416	301670.70667908766
0.81936	319429.8287913102
0.821313	333804.6757778809
0.823274	338555.87391440844
0.825244	368375.9701712976
0.827223	384150.03060957254
0.829211	390516.98098645447
0.831208	400651.442179877
0.833213	424533.0379642137
0.835227	437473.17856962763
0.837249	441259.47966221685
0.83928	460876.15685755695
0.841321	498917.20150825306
0.843369	529925.0379583479
0.845427	547866.3693641041
0.847493	570570.4082728346
0.849567	574645.9474958746
0.851651	544707.5792735341
0.853742	594056.7015559354
0.855843	650190.1101793444
0.857952	673939.1188355788
0.86007	692785.9689714859
0.862196	702806.6249999471
0.864331	722397.8646506823
0.866474	745068.4468754206
0.868626	768041.7783525228
0.870786	793996.5353280053
0.872955	815642.976034495
0.875132	830422.6492587053
0.877317	850018.6862204388
0.879511	856199.3499003496
0.881713	854693.721189063
0.883923	857253.3342943115
0.886142	866889.2665672179
0.888369	863189.8799342769
0.890604	862911.7760095325
0.892847	780073.1830661725
0.895099	769341.5203554579
0.897358	853944.2522488843
0.899626	966338.1238364556
0.901901	1017848.8666355066
0.904185	1075758.808178883
0.906476	1079176.4962560656
0.908776	1102057.141399245
0.911083	1159864.5798821019
0.913398	1131223.0759886578
0.915721	1119690.487910561
0.918051	1072331.7608112067
0.92039	1210986.2995647353
0.922736	1216521.557193728
0.925089	1037158.2891931821
0.927451	706836.6432080348
0.929819	445128.8120595974
0.932195	616995.7838252338
0.934579	535670.7439140423
0.93697	637325.7008675925
0.939369	869791.0589531214
0.941774	881888.8771319352
0.944187	611545.5246652942
0.946607	518396.2619455651
0.949035	751879.6589794657
0.951469	714886.2518282954
0.953911	771684.8602551044
0.956359	1099462.3222022948
0.958814	750415.2472823677
0.961277	602931.498243665
0.963746	644397.6518907093
0.966222	684463.4478133991
0.968705	684823.2625992171
0.971194	1127794.1915297161
0.97369	1325068.3124650721
0.976193	1208543.5058222048
0.978702	1380566.0079409403
0.981217	1410936.679567241
0.983739	1497905.6738966487
0.986268	1530663.496960886
0.988802	1682963.566778135
0.991343	1837188.3515817567
0.99389	1856435.8413560316
0.996444	1963473.1028472383
0.999003	2025094.1368043812
1.00157	2045109.6535201306
1.00414	2097652.9162076726
1.00672	2186237.056025949
1.0093	2250602.375399314
1.01189	2323439.1606770307
1.01448	2425980.862797176
1.01708	2473575.925636944
1.01969	2516924.6894788183
1.0223	2545625.0898697656
1.02492	2525926.61453195
1.02754	2559723.9921479383
1.03017	2562315.785467781
1.0328	2723556.6723259613
1.03544	2787674.0804657745
1.03808	2832983.385990762
1.04073	2879751.0303933905
1.04339	2918276.5108648096
1.04604	2953119.422033897
1.04871	2964259.896865199
1.05138	2997433.375072943
1.05405	3064107.627276579
1.05673	3119836.7872934765
1.05941	3162469.5806374648
1.0621	3194909.332166903
1.06479	3229811.459066847
1.06749	3264580.1696677417
1.07019	3242793.133149215
1.07289	3300003.9947768347
1.0756	3372044.036938765
1.07832	3389881.4670201666
1.08104	3437414.913133383
1.08376	3494582.4516708343
1.08649	3488855.4594075736
1.08922	3367443.989558683
1.09195	3239535.905472084
1.09469	3138197.52812646
1.09743	3150228.332936638
1.10018	2080990.74557907
1.10293	1270016.4405764667
1.10568	914916.8206945638
1.10844	1790027.987037421
1.1112	1410379.3845408913
1.11396	913890.2594461212
1.11673	937215.8607892168
1.1195	850435.6447475164
1.12228	508872.3395968843
1.12505	928042.2223441872
1.12783	913937.4458086861
1.13062	1028167.6243185127
1.13341	443060.72050363675
1.1362	1075335.8850006303
1.13899	1618221.782351769
1.14178	1243395.9442814523
1.14458	1659005.0345446689
1.14738	2065404.1516741219
1.15019	1024837.8927652444
1.153	241921.79280319347
1.1558	347972.1769140344
1.15862	410531.0161027833
1.16143	478518.20670874114
1.16425	937239.5366048033
1.16707	1500938.451975436
1.16989	1149525.6840929731
1.17271	1453084.1179991933
1.17554	2190955.9828799763
1.17837	2783296.553048015
1.1812	3030328.854637051
1.18403	3682932.3001861307
1.18686	3634190.00546761
1.1897	3635029.2272159643
1.19253	4292506.757240412
1.19537	4608462.059514661
1.19822	4777006.143732886
1.20106	4989425.054714535
1.2039	4932856.877341963
1.20675	5121635.157054056
1.2096	5169453.450208003
1.21245	5141422.30403438
1.2153	5433047.422751726
1.21815	5588777.074009884
1.221	5697602.274219958
1.22385	5854577.728920676
1.22671	6020079.7671941705
1.22957	6105559.215684796
1.23242	6087686.229925552
1.23528	6199000.233766018
1.23814	6341896.8694196455
1.241	6419949.126645405
1.24387	6497395.70480349
1.24673	6568374.724364814
1.24959	6612714.290999709
1.25245	6631748.13042445
1.25532	6777787.5974978
1.25818	6874630.957443268
1.26105	6829237.58203669
1.26392	6832424.465482124
1.26678	6896040.260039888
1.26965	6889053.653375308
1.27252	6801590.032363688
1.27538	7004986.890209362
1.27825	6978293.636469614
1.28112	6741239.754453134
1.28399	6934067.904270945
1.28686	6757963.944743932
1.28973	6309488.092304163
1.2926	6067989.36878179
1.29546	6385692.946484306
1.29833	6594248.700013518
1.3012	5937791.852638904
1.30407	5855405.113039385
1.30694	5666270.187613859
1.30981	5932512.981283371
1.31267	5424143.595041074
1.31554	6157152.925728684
1.31841	6949816.90109909
1.32128	5855098.352968714
1.32414	4493504.79759756
1.32701	4242355.701546037
1.32987	3025637.6773460554
1.33274	1292438.1515211498
1.3356	726690.974551568
1.33847	196740.58961272976
1.34133	48012.45716908457
1.34419	123339.44324901362
1.34705	168822.50230192675
1.34991	62798.55569396814
1.35277	20092.59714906347
1.35563	42165.485675229305
1.35849	41839.53973704344
1.36135	11221.404609361167
1.3642	31978.076220223527
1.36706	34403.33549914453
1.36991	24522.7790531268
1.37277	114742.66443380306
1.37562	292203.83360584296
1.37847	353229.29692596523
1.38132	111944.47722909303
1.38417	7368.965973171317
1.38701	18254.973157579407
1.38986	14145.955218042443
1.39271	17593.46772313134
1.39555	31319.026478794334
1.39839	33652.44854513192
1.40123	79674.15582941647
1.40407	143451.61113460865
1.40691	203524.01643009987
1.40974	89834.32000742086
1.41258	20305.01104818658
1.41541	68957.20006689383
1.41824	87116.54912850831
1.42107	37777.523618625004
1.4239	24871.10734039207
1.42673	65446.34332175723
1.42955	120637.59337410866
1.43237	98485.0936655253
1.43519	234133.4620194882
1.43801	138693.86584697894
1.44083	165116.0293811452
1.44365	294153.0882995125
1.44646	371988.41576192586
1.44927	884589.295252996
1.45208	1215470.675968123
1.45489	880697.6280201366
1.45769	1148362.9841977714
1.4605	1368643.696599121
1.4633	1495066.1489435858
1.4661	1580016.9567300372
1.4689	927490.3237254567
1.47169	971141.2237971757
1.47449	836459.6069722474
1.47728	728680.6310081247
1.48007	796269.8262722789
1.48286	1469738.0833088593
1.48564	2026172.326292941
1.48842	2035433.49255549
1.4912	1968256.099494358
1.49398	1680957.458770895
1.49676	1327033.9240392486
1.49953	1689791.454314342
1.5023	2474281.3992854496
1.50507	2702612.066527554
1.50784	2467101.566382432
1.51061	2538523.4239658876
1.51337	3016898.080887898
1.51613	3619370.4661000604
1.51888	4074086.798726509
1.52164	4873439.9847502895
1.52439	5637213.752100914
1.52714	5620930.268311949
1.52989	5598372.223142291
1.53263	5812748.430324231
1.53538	5966645.869022993
1.53812	6679499.929765276
1.54086	7263438.546555869
1.54359	7436885.621002222
1.54632	7936582.919075528
1.54905	7736380.867028047
1.55178	8153200.231439246
1.5545	8513610.99651622
1.55723	8325778.433073555
1.55995	8646761.431078168
1.56266	9275941.799190296
1.56538	9984838.488800427
1.56809	10247816.457547892
1.5708	10127335.22318978
1.57351	9724977.492610885
1.57621	9524026.932176562
1.57891	8854166.171932338
1.58161	9498059.312532824
1.5843	10703471.703119019
1.587	10964404.963316975
1.58969	10770881.747561393
1.59238	10403023.29993009
1.59506	9935330.731000086
1.59774	9496779.793350039
1.60042	9364816.91711768
1.6031	9148926.90454926
1.60577	8977725.127683016
1.60844	8937180.344487073
1.61111	8819260.60326484
1.61378	8270647.820614014
1.61644	7625242.270323465
1.6191	7024596.110678053
1.62176	6237269.608646401
1.62441	5366298.050623966
1.62707	4802120.29339012
1.62971	3907606.581856423
1.63236	3453169.7659276724
1.635	5291912.738056511
1.63764	8027698.571512837
1.64028	8945128.075852543
1.64292	8625511.73246523
1.64555	7131004.474379869
1.64818	4823696.792173852
1.65081	4650359.981697784
1.65343	6326352.822316544
1.65605	6906442.53152448
1.65867	7174590.832030215
1.66128	6794164.427534031
1.6639	5296274.685110885
1.66651	2735567.1549030915
1.66911	1865525.0413119022
1.67172	3845114.156722129
1.67432	5545844.323737542
1.67692	5229035.671977033
1.67951	4173448.0722495257
1.68211	4231392.847764512
1.6847	4343172.994233652
1.68728	3633557.9142165114
1.68987	3367694.888646678
1.69245	3020054.7752742073
1.69503	2025678.7510433085
1.6976	1470911.5458683807
1.70018	1895647.0823184745
1.70275	1904641.1125823767
1.70531	2217100.767787685
1.70788	2903908.7620861456
1.71044	2924431.9780746754
1.713	3462341.9506370807
1.71556	3867501.230576123
1.71811	4230649.95638672
1.72066	4883863.450192625
1.72321	4684437.739150888
1.72575	4294644.024349107
1.7283	4098823.2407732545
1.73084	3798346.692772757
1.73337	3415969.6826511
1.73591	3200603.198786522
1.73844	3266594.0217279056
1.74097	3446088.167728372
1.74349	3250140.4463738506
1.74602	2894693.5106233894
1.74854	2738394.178328366
1.75105	2444999.3989631752
1.75357	1998319.3723658537
1.75608	2451982.633090261
1.75859	3382115.1689560586
1.7611	3565180.988323869
1.7636	3289290.0252955467
1.7661	2495246.0963205085
1.7686	1933362.1548215128
1.7711	1381528.500554911
1.77359	873327.9100044346
1.77608	497010.61337747524
1.77857	341725.12030086404
1.78105	418234.15726352687
1.78354	504020.5224311547
1.78602	385430.70057098486
1.78849	270686.0626464738
1.79097	364275.1659055898
1.79344	558441.4118804473
1.79591	917397.8206863164
1.79837	1332762.6984759013
1.80084	798316.9802086476
1.8033	239070.3483026194
1.80576	88775.0436962932
1.80821	57134.99503441267
1.81067	188833.87900325458
1.81312	296154.28453102335
1.81557	152040.26831005613
1.81801	78628.2297081481
1.82046	217930.58272965797
1.8229	330334.1040481735
1.82533	207868.05752913887
1.82777	58510.06035230261
1.8302	28519.137557973976
1.83263	64094.989656910184
1.83506	130086.18179766941
1.83749	238174.66010072257
1.83991	286000.2882520795
1.84233	215127.71325491474
1.84475	199847.3904897892
1.84716	273304.9346223763
1.84957	434039.5651253618
1.85198	465554.7458670213
1.85439	232367.84537831577
1.8568	144906.97744613432
1.8592	190640.87146846045
1.8616	139236.01623203603
1.864	56024.779794625894
1.86639	30018.236963128213
1.86878	49259.94773165013
1.87118	112701.98897398874
1.87356	202413.42202966503
1.87595	303858.5482790315
1.87833	669900.6057678154
1.88071	1233538.9180902198
1.88309	1220586.3328622724
1.88547	863154.4498556745
1.88784	700657.3927615798
1.89021	604879.3281276978
1.89258	1086195.1143575255
1.89494	1514773.00844369
1.89731	933902.918662964
1.89967	282783.8768804802
1.90203	47715.84130721146
1.90439	28746.435285029005
1.90674	54494.7064847023
1.90909	60116.27641348519
1.91144	37003.400518673225
1.91379	15563.504160159386
1.91613	16450.645385607546
1.91848	37499.285886511745
1.92082	63376.82368297548
1.92315	63159.30673337897
1.92549	42026.689553042386
1.92782	46903.82647140349
1.93015	73956.54983235046
1.93248	96736.91900090057
1.93481	103067.27077357647
1.93713	94001.14790243056
1.93945	93234.46386453173
1.94177	117651.24659023114
1.94409	159011.09067072213
1.94641	225669.60032604542
1.94872	346064.2993053265
1.95103	444213.20721953595
1.95334	283321.56121734367
1.95564	172809.57262376422
1.95795	196542.305106037
1.96025	213518.29779089312
1.96255	242855.14274179484
1.96484	326837.8550699636
1.96714	508775.4759295156
1.96943	755487.602763884
1.97172	904832.8109803139
1.97401	778413.0830765768
1.97629	669108.2439171908
1.97858	773099.3629862604
1.98086	1002076.459427
1.98314	1320152.9366519058
1.98541	1498098.0881052217
1.98769	1365635.8360575922
1.98996	1071569.3807606362
1.99223	1115959.9373548338
1.9945	1510387.2196101684
1.99677	1442249.784033419
1.99903	1360594.0989763776
2.00129	1629126.9204991704
2.00355	2095072.7832200215
2.00581	2446479.576411253
2.00806	2678479.70477505
2.01031	3345092.331248761
2.01256	3558268.5377907874
2.01481	3023297.0956375995
2.01706	2410646.295181688
2.0193	2139298.7021949547
2.02154	2175232.0707275732
2.02378	2130856.1008296735
2.02602	2400113.3522745366
2.02825	3197437.781587592
2.03049	3796160.074671806
2.03272	3940991.8965745266
2.03494	3808802.2702751574
2.03717	3897823.3734381143
2.03939	4743461.751841841
2.04162	5565224.004904085
2.04384	6179814.760656308
2.04605	6779533.430923968
2.04827	7303041.746116475
2.05048	7259961.498883822
2.05269	6353802.896672633
2.0549	5878066.568632835
2.05711	6147461.517985264
2.05931	6806061.298692568
2.06151	7364806.518281251
2.06371	7656771.46652029
2.06591	7828000.81099098
2.06811	7917568.791035541
2.0703	7924328.079451486
2.07249	7844078.121147289
2.07468	7668403.512780605
2.07686	7632302.407291301
2.07905	7716021.511969972
2.08123	7784620.236308999
2.08341	7779428.683435186
2.08559	7726880.0241002
2.08776	7739574.361155806
2.08994	7700829.898780073
2.09211	7591545.555460212
2.09428	7450508.55936804
2.09645	7414501.75879387
2.09861	7341641.095014899
2.10077	7229128.042445593
2.10293	7072711.873830214
2.10509	6872070.49840992
2.10725	6636840.312744143
2.1094	6656808.752065998
2.11155	6702542.718718968
2.1137	6653344.009332078
2.11585	6389790.71576962
2.11799	6178729.30173967
2.12013	6042069.112702326
2.12227	5985549.296632606
2.12441	6004757.237256395
2.12655	6036914.247384222
2.12868	6004284.273699593
2.13081	5973722.538901261
2.13294	5938174.59805112
2.13507	5744334.523642289
2.13719	5442103.174817358
2.13931	5203183.908057142
2.14143	5005267.447467064
2.14355	4657329.397614468
2.14567	4462820.587852838
2.14778	4306522.941841808
2.14989	4126901.349075632
2.152	3815027.6998948413
2.1541	3896734.5399983274
2.15621	4039110.328456124
2.15831	4086770.5787465256
2.16041	3717845.418691564
2.16251	3516947.345176796
2.1646	3395334.9066540333
2.1667	3346871.022108104
2.16879	3453766.9768145583
2.17087	3613920.6925686747
2.17296	3755032.0180094205
2.17504	3836643.192005867
2.17713	3743812.4683615547
2.1792	3537336.5102361524
2.18128	3278803.6755696335
2.18336	3029518.3405853272
2.18543	2825226.2386101685
2.1875	2612084.7327779857
2.18957	2365409.9130717875
2.19163	1998584.0464375608
2.1937	1531511.2149152532
2.19576	1083313.4316590335
2.19782	712516.8512373418
2.19987	546809.1833999187
2.20193	476066.98924369726
2.20398	481205.2537974456
2.20603	526411.8965496161
2.20808	588552.7540878793
2.21012	657138.2979636863
2.21217	728858.366908995
2.21421	749530.1034418795
2.21625	722687.7830301297
2.21828	654876.6550268241
2.22032	605729.0622568732
2.22235	582516.3697878256
2.22438	562582.5712650436
2.22641	504556.15526644676
2.22843	426852.4501212082
2.23046	354762.8761390387
2.23248	306238.8332074569
2.2345	287960.1220360599
2.23651	273376.23458575393
2.23853	258624.27390249222
2.24054	214525.41329222347
2.24255	160163.03406462813
2.24456	100014.26235740916
2.24657	90105.58349069345
2.24857	116034.81177687182
2.25057	163587.3146278646
2.25257	191068.1910290944
2.25457	214386.07511578652
2.25656	236594.89797443498
2.25856	265423.5301896286
2.26055	256579.02314685573
2.26254	228790.47752055328
2.26453	194604.8732741331
2.26651	174755.60535580665
2.2685	167868.5643990882
2.27048	187932.18109765026
2.27246	217958.40021952987
2.27443	246507.22785131913
2.27641	252670.96700228762
2.27838	238395.21075873892
2.28036	215942.97999963662
2.28233	199703.3778454234
2.28429	187405.83776933706
2.28626	176388.0802062066
2.28823	161137.22624692612
2.29019	154939.04972946606
2.29215	155458.844147522
2.29411	167607.07027128388
2.29607	171531.60743587557
2.29802	168563.49215282188
2.29998	152464.02851057413
2.30193	165201.71965201697
2.30388	210802.28469409098
2.30583	342655.77797541325
2.30778	477857.7464373959
2.30972	604954.0528619819
2.31167	613298.0841345832
2.31361	551839.7580493558
2.31555	366271.8780579113
2.31749	228652.22430228622
2.31943	127151.0420749051
2.32137	129414.4350366819
2.32331	137209.22875097507
2.32524	149345.77275015746
2.32718	146486.6077530723
2.32911	143644.7287828437
2.33104	141146.07823172104
2.33297	136058.95276441862
2.3349	129936.11154015412
2.33683	122315.35567676468
2.33876	114936.88670646207
2.34068	107364.13319053529
2.34261	94357.3555936128
2.34453	83358.62331918794
2.34646	74513.46760720584
2.34838	82503.10018970884
2.3503	98712.82627410979
2.35223	130762.34126831088
2.35415	160854.57540260447
2.35607	189477.6977505086
2.35799	209185.87997634814
2.35991	228936.16158862665
2.36183	248737.25280522343
2.36375	236324.2881456164
2.36566	208768.27510503322
2.36758	148983.81044167635
2.3695	103165.56321326751
2.37142	66300.01946880808
2.37334	73360.6309109209
2.37526	84936.24547990428
2.37718	103653.56547685886
2.3791	124328.74374432082
2.38101	146262.77976733577
2.38293	173578.64517334042
2.38485	197100.20421512856
2.38677	216747.57675871163
2.3887	207151.21309337308
2.39062	194252.58820634085
2.39254	184415.51190917366
2.39446	187907.26768327135
2.39639	200005.83344922695
2.39831	215452.95369913097
2.40024	223698.2452152548
2.40216	218140.24207490974
2.40409	228754.12456237638
2.40602	249951.58773258608
2.40795	318156.9777131596
2.40989	378148.7372988723
2.41182	427349.11513937206
2.41376	445976.7360710878
2.4157	464283.92432745773
2.41764	512012.4503216414
2.41958	546801.3701475487
2.42152	571069.301780564
2.42347	515712.66780954646
2.42542	479162.1310380389
2.42737	506984.872787138
2.42932	605393.7171972141
2.43128	738193.9973018777
