#wavelength	surface flux
0.8	25724553.136194937
0.8002000000000001	26211693.23934722
0.8004000500000003	26565841.13845818
0.8006001500125003	26918732.9921903
0.8008003000500035	27271713.06888588
0.8010005001250161	27624781.3906008
0.8012007502500472	27977937.979395635
0.8014010504376099	28430303.252662953
0.8016014007002193	28915983.921442967
0.8018018010503944	29401786.01039017
0.8020022515006572	29887709.54985983
0.8022027520635323	30373754.57021394
0.8024033027515483	30850684.058321387
0.8026039035772362	31318680.83616364
0.8028045545531306	31786794.613200374
0.8030052556917691	32255025.418681595
0.803206007005692	32723373.28186377
0.8034068085074435	33184139.479263753
0.8036076602095705	33623440.134972
0.8038085621246229	34062850.61584383
0.8040095142651542	34502370.94933615
0.8042105166437206	34942001.16291169
0.8044115692728815	35374689.88787663
0.8046126721651998	35504193.81234085
0.8048138253332411	35633730.11278609
0.8050150287895745	35763298.79730656
0.805216282546772	35892899.87399812
0.8054175866174087	36022533.35095879
0.8056189410140631	36259159.29338899
0.8058203457493168	36526121.02573224
0.8060218008357541	36793149.49850824
0.8062233062859632	37060244.728402555
0.8064248621125346	37327406.73210417
0.806626468328063	37667927.69320637
0.8068281249451449	38071482.88945377
0.8070298319763813	38475138.974500716
0.8072315894343755	38878895.97356863
0.8074333973317341	39282753.91188646
0.8076352556810671	39664502.38091799
0.8078371644949874	39992882.0642485
0.8080391237861113	40321343.84249993
0.8082411335670578	40649887.736195706
0.8084431938504498	40978513.76586526
0.8086453046489125	41305867.79837461
0.8088474659750746	41608091.75418837
0.8090496778415686	41910391.265991494
0.809251940261029	42212766.352672346
0.8094542532460944	42515217.03312513
0.8096566168094059	42817743.32624768
0.8098590309636085	43019753.460984066
0.8100614957213493	43198269.76845346
0.8102640110952797	43376830.70499974
0.8104665770980536	43555436.28178023
0.8106691937423283	43734086.50995498
0.8108718610407639	43981391.66643583
0.8110745790060241	44281221.318322
0.8112773476507757	44581125.92762141
0.8114801669876885	44881105.513073064
0.8116830370294355	45181160.09342091
0.8118859577886929	45564273.4895777
0.8120889292781401	46119843.649880596
0.8122919515104597	46675552.702723525
0.8124950244983374	47231400.68282969
0.8126981482544621	47787387.62493081
0.8129013227915257	48350786.39781604
0.8131045481222237	48997601.082156464
0.8133078242592543	49644577.47016804
0.8135111512153191	50291715.60227645
0.813714529003123	50939015.51891796
0.8139179576353739	51586477.26053874
0.8141214371247829	52386963.268416375
0.8143249674840641	53217291.98843273
0.814528548725935	54047828.290628575
0.8147321808631167	54878572.22690111
0.8149358639083326	55709523.849157445
0.8151395978743097	56029287.05773634
0.8153433827737784	56003609.51077658
0.8155472186194719	55977925.544430085
0.8157511054241268	55952235.15709201
0.815955043200483	55926538.34715708
0.8161590319612831	55475685.59284463
0.8163630717192736	54245685.45321437
0.8165671624872033	53015377.81355057
0.8167713042778252	51784762.59697564
0.8169754971038948	50553839.72659596
0.8171797409781707	49064300.101342894
0.8173840359134155	45512227.150617495
0.8175883819223938	41959266.181658514
0.8177927790178745	38405416.97245526
0.8179972272126291	34850679.30094878
0.8182017265194322	31295052.945028
0.8184062769510622	30540107.63603791
0.8186108785203001	30216093.741250657
0.8188155312399301	29891998.842990145
0.8190202351227402	29567822.921004705
0.819224990181521	29243565.955038976
0.8194297964290664	32328630.8390006
0.8196346538781738	37469478.54807653
0.8198395625416434	42611611.46907769
0.8200445224322789	47755029.92331126
0.820249533562887	52899734.23215687
0.8204545959462778	56851094.444017276
0.8206597095952644	58880717.32221544
0.8208648745226633	60910847.60613471
0.8210700907412941	62941485.422624655
0.8212753582639793	64972630.89856665
0.8214806771035456	66797075.716741525
0.8216860472728215	67345320.17879401
0.8218914687846397	67893701.70196204
0.822096941651836	68442220.32051113
0.822302465887249	68990876.06871456
0.8225080415037209	69539668.98085533
0.8227136685140968	70770686.8291193
0.8229193469312254	72079443.64566164
0.8231250767679583	73388527.65140854
0.8233308580371503	74697938.92815617
0.8235366907516598	76007677.55772394
0.8237425749243477	77447568.57165456
0.8239485105680789	78956629.0639315
0.824154497695721	80466066.82133053
0.824360536320145	81975881.9381692
0.8245666264542252	83486074.50878702
0.8247727681108388	84402081.4714846
0.8249789613028664	84466791.09206893
0.8251852060431922	84531516.89005846
0.825391502344703	84596258.86949745
0.8255978502202894	84661017.03443135
0.8258042496828445	84813576.31264414
0.8260107007452654	85392507.39496812
0.8262172034204517	85971583.21006212
0.8264237577213068	86550803.79411003
0.8266303636607373	87130169.1833042
0.8268370212516525	87709679.4138454
0.8270437305069654	87774454.90000817
0.8272504914395923	87799012.08386642
0.8274573040624523	87823575.40702064
0.8276641683884679	87848144.87100564
0.8278710844305652	87872720.47735666
0.8280780522016729	88492165.85281087
0.8282850717147234	89383677.15109892
0.8284921429826521	90275411.32721062
0.8286992660183978	91167368.43686704
0.8289064408349024	92059548.53580025
0.8291136674451112	93016515.38595262
0.8293209458619727	94055133.07608373
0.8295282760984382	95094010.420636
0.829735658167463	96133147.4845256
0.8299430920820048	97172544.33267985
0.8301505778550254	98092123.61166072
0.8303581154994891	98532668.64547198
0.8305657050283641	98973323.8155421
0.8307733464546212	99414089.14940442
0.8309810397912352	99854964.67460091
0.8311887850511829	100295950.41867785
0.8313965822474458	101603227.79367533
0.8316044313930077	102951036.04795177
0.8318123325008561	104299181.25429302
0.8320202855839813	105647663.49693522
0.8322282906553774	106996482.86013818
0.8324363477280413	108052213.60237049
0.8326444568149735	108990076.07498339
0.8328526179291771	109928173.01321335
0.8330608310836596	110866504.47567928
0.8332690962914304	111805070.5210096
0.8334774135655034	112384633.12806204
0.833685782918895	112563059.89352539
0.8338942043646247	112741531.26568002
0.834102677915716	112920047.25567779
0.834311203585195	113098607.87467293
0.8345197813860912	113631498.0676452
0.8347284113314379	115357077.70173725
0.8349370934342709	117083088.73073685
0.8351458277076294	118809531.2624916
0.8353546141645565	120536405.40488218
0.8355634528180977	122263711.26580761
0.8357723436813022	120660188.19134846
0.8359812867672226	119015131.65380462
0.8361902820889144	117369663.85212722
0.8363993296594368	115723784.68349893
0.8366084294918518	114077494.04507792
0.8368175815992247	113793692.04004607
0.8370267859946247	113979215.91403143
0.8372360426911234	114164786.16898523
0.8374453517017962	114350402.81650276
0.8376547130397217	114536065.86818214
0.8378641267179816	115154119.81842186
0.8380735927496613	116201326.39740528
0.8382831111478488	117248794.77803284
0.8384926819256358	118296525.02575499
0.8387023050961173	119344517.20603998
0.8389119806723914	120115282.1371074
0.8391217086675596	120105294.34515183
0.8393314890947265	120095304.05624826
0.8395413219670003	120085311.26977247
0.8397512072974922	120075315.98510005
0.8399611450993165	120079790.65104318
0.8401711353855914	120802963.10250983
0.8403811781694378	121526316.34708916
0.8405912734639802	122249850.4299798
0.8408014212823464	122973565.39639151
0.8410116216376671	123697461.29154474
0.8412218745430766	124522205.38633806
0.8414321800117124	125376445.9452092
0.8416425380567154	126230900.06422047
0.8418529486912297	127085567.79676169
0.8420634119284025	127940449.19623534
0.8422739277813847	129898250.9175733
0.8424844962633302	132828069.39440745
0.842695117387396	135758620.32585707
0.8429057911667428	138689903.89503968
0.8431165176145345	141621920.28511602
0.8433272967439382	143500085.03771397
0.8435381285681244	142806294.95421633
0.8437490131002665	142112331.423198
0.8439599503535415	141418194.40129733
0.84417094034113	140723883.8451407
0.8443819830762154	139946419.675334
0.8445930785719846	137497121.2202958
0.8448042268416277	135047210.44064513
0.8450154278983382	132596687.1832999
0.8452266817553128	130145551.2951405
0.8454379884257517	127693802.6230088
0.8456493479228583	128960714.60269965
0.845860760259839	131123589.09050785
0.846072225449904	133287004.29693799
0.8462837435062666	135450960.3571702
0.8464953144421433	137615457.40641868
0.8467069382707537	139186222.99518967
0.8469186150053215	140294164.04672775
0.847130344659073	141402382.08352903
0.8473421272452377	142510877.1748384
0.8475539627770492	143619649.38992175
0.8477658512677435	144354588.3368046
0.8479777927305605	144295336.7176006
0.8481897871787432	144236070.28549185
0.848401834625538	144176789.03677502
0.8486139350841944	144117492.96774608
0.8488260885679657	144050688.9844434
0.8490382950901076	143892530.18997955
0.8492505546638802	143734331.855817
0.8494628673025462	143576093.97207093
0.8496752330193721	143417816.5288537
0.8498876518276269	143259499.5162759
0.8501001237405839	136566022.20338285
0.8503126487715191	128566346.6499654
0.850525226933712	120564671.17766403
0.8507378582404455	112560995.28649466
0.8509505427050057	104555318.47634785
0.8511632803406821	99379064.42089601
0.8513760711607672	96140523.37978286
0.8515889151785576	92901172.70340441
0.8518018124073523	89661012.18935958
0.8520147628604541	86420041.63518813
0.8522277665511693	86946388.01945682
0.8524408234928071	94441561.7318103
0.8526539336986805	101938609.23759389
0.8528670971821053	109437531.00525439
0.8530803139564007	116938327.50334798
0.8532935840348901	124629998.36712058
0.8535069074308987	133919786.68879104
0.8537202841577566	143211897.45754972
0.8539337142287962	152506331.25400165
0.8541471976573534	161803088.6588969
0.8543607344567677	171102170.25314504
0.8545743246403821	174049542.25277668
0.8547879682215422	175988557.8152586
0.8550016652135977	177928058.1316309
0.8552154156299011	179868043.3230824
0.8554292194838088	181808513.51083314
0.8556430767886797	182174287.88264963
0.855856987557877	181583745.43824145
0.8560709518047664	180993055.35822254
0.8562849695427177	180402217.60568345
0.8564990407851035	179811232.14370602
0.8567131655452999	179434891.9663026
0.8569273438366862	179410403.25330627
0.8571415756726455	179385908.4181317
0.8573558610665638	179361407.4592483
0.8575702000318304	179336900.37512523
0.8577845925818384	180277209.54720727
0.857999038729984	187244389.84423295
0.8582135384896665	194213311.9363313
0.858428091874289	201183976.25895306
0.8586426988972576	208156383.2476536
0.8588573595719821	215130533.33810374
0.8590720739118751	213056645.91149843
0.8592868419303532	209915243.78604993
0.8595016636408359	206773056.31007007
0.8597165390567462	203630083.28722227
0.8599314681915105	200486324.52111793
0.8601464510585584	193997117.59171858
0.860361487671323	185730965.000246
0.8605765780432408	177462745.8706279
0.8607917221877518	169192459.68622065
0.8610069201182988	160920105.9302695
0.8612221718483286	146356988.38586095
0.8614374773912907	122724224.16064432
0.8616528367606385	99085551.7443778
0.8618682499698288	75440969.65999228
0.8620837170323213	51790476.43008953
0.8622992379615795	31946124.053041108
0.8625148127710699	30961202.772911742
0.8627304414742627	29976035.26246227
0.8629461240846313	28990621.460135017
0.8631618606156526	28004961.304357104
0.8633776510808066	27019054.73354043
0.8635934954935769	40347895.77932612
0.8638093938674504	54853494.99180764
0.8640253462159173	69362720.60409181
0.8642413525524714	83875573.52277872
0.8644574128906095	98392054.65469229
0.8646735272438323	95330629.37648332
0.8648896956256433	84092537.5590949
0.8651059180495498	72851636.2187515
0.8653221945290621	61607924.65308378
0.8655385250776946	50361402.159508884
0.8657549097089641	46003604.40702436
0.8659713484363913	50467398.695423864
0.8661878412735006	54932308.93239754
0.866404388233819	59398335.39692984
0.8666209893308775	63865478.36807622
0.8668376445782103	67443403.08307709
0.8670543539893549	67388313.00321047
0.8672711175778525	67333209.15082385
0.8674879353572469	67278091.52247418
0.8677048073410862	67222960.11471741
0.8679217335429217	67167814.92410867
0.8681387139763074	68568789.3129657
0.8683557486548015	70042450.9412044
0.8685728375919655	71516480.98485196
0.8687899808013633	72990879.53600723
0.8690071782965637	74465646.68680218
0.869224430091138	72604902.48647717
0.8694417361986609	69386327.72767697
0.8696590966327107	66166948.3251878
0.869876511406869	62946764.07784784
0.8700939805347206	59725774.78444759
0.8703115040298544	57420681.705081
0.870529081905862	56163067.31463188
0.8707467141763385	54905138.52058557
0.8709644008548827	53646895.24434081
0.8711821419550964	52388337.407277755
0.8713999374905854	51709087.71266427
0.871617787474958	53030147.532544926
0.8718356919218269	54351537.61738175
0.8720536508448075	55673258.04973988
0.8722716642575187	56995308.91220532
0.8724897321735832	58317690.28738696
0.8727078546066265	59779837.758060776
0.8729260315702784	61244472.03696433
0.873144263078171	62709472.47443604
0.8733625491439405	64174839.162017256
0.8735808897812266	65640572.19127095
0.8737992850036719	65517967.869748905
0.874017734824923	64832640.139535
0.8742362392586293	64147141.07738882
0.874454798318444	63461470.64047714
0.8746734120180236	62775628.7859563
0.8748920803710283	62517096.48173532
0.875110803391121	62688077.22698922
0.8753295810919689	62859100.717429526
0.875548413487242	63030166.96374245
0.8757673005906139	63201275.97661696
0.8759862424157616	64697641.559552215
0.8762052389763657	70028949.88380748
0.8764242902861098	75361591.03514011
0.8766433963586814	80695565.346762
0.8768625572077712	86030873.15196346
0.8770817728470732	91337947.08507366
0.8773010432902849	94337776.45172566
0.8775203685511077	97338355.7757236
0.8777397486432454	100339685.24454883
0.8779591835804065	103341765.0457449
0.8781786733763015	106344595.3668873
0.8783982180446457	99497861.31877607
0.878617817599157	89719130.96828803
0.8788374720535569	79937955.935217
0.8790571814215703	70154335.60839012
0.8792769457169257	60368269.37648134
0.879496764953355	55330975.37139655
0.8797166391445934	54564079.75877021
0.8799365683043796	53796992.42224066
0.8801565524464557	53029713.31387699
0.8803765915845676	52262242.3857355
0.8805966857324639	52543153.78892531
0.880816834903897	55457839.45834154
0.881037039112623	58373253.79917627
0.8812572983724012	61289396.99359594
0.8814776126969944	64206269.2238155
0.8816979821001687	67091973.40688028
0.8819184065956938	69227532.02401134
0.8821388861973429	71363624.53079888
0.8823594209188923	73500251.06071107
0.882580010774122	75637411.74725477
0.8828006557768155	77775106.72397128
0.8830213559407598	85312279.6053563
0.8832421112797452	94209225.86856271
0.8834629218075651	103108396.36832955
0.8836837875380171	112009791.66072401
0.8839047084849018	120913412.30194299
0.884125684662023	118074577.69541244
0.8843467160831886	105823171.40457156
0.8845678027622095	93568702.26215795
0.8847889447129001	81311169.50245646
0.8850101419490785	69050572.35956725
0.8852313944845657	66614259.97653999
0.885452702333187	85688202.13550049
0.8856740655087704	104766912.77999794
0.8858954840251476	123850393.1021514
0.8861169578961539	142938644.29437652
0.886338487135628	159508566.64141673
0.886560071757412	142506701.2232308
0.8867817117753515	125500585.33869076
0.8870034072032955	108490217.92517191
0.8872251580550963	91475597.91981962
0.8874469643446101	74456724.25945552
0.8876688260856963	75297252.52954945
0.8878907432922178	79835103.61132264
0.8881127159780409	84374089.15586331
0.8883347441570356	88914209.44679563
0.8885568278430749	93455464.76779592
0.8887789670500358	93201639.92322335
0.8890011617917983	89545442.76743247
0.8892234120822464	85888331.56235102
0.8894457179352669	82230306.07947126
0.8896680793647509	78571366.09021787
0.8898904963845921	76072409.26360203
0.8901129690086883	75787851.44465429
0.8903354972509405	75503222.48625186
0.8905580811252535	75218522.37060963
0.8907807206455347	74933751.07993886
0.8910034158256963	74411708.89038709
0.8912261666796527	71769690.9879112
0.8914489732213227	69127012.58095895
0.8916718354646282	66483673.50440236
0.8918947534234944	63839673.5930792
0.8921177271118502	61195012.68177985
0.8923407565436284	61201106.13770578
0.8925638417327644	61639719.085722744
0.8927869826931977	62078441.68697686
0.8930101794388711	62517273.96888126
0.8932334319837308	62956215.95885606
0.8934567403417267	66310818.800847135
0.8936801045268123	71477932.10825126
0.8939035245529441	76646337.19397874
0.8941270004340824	81816034.38097966
0.894350532184191	86987023.99227603
0.8945741198172371	92631804.98854133
0.8947977633471915	99061579.80906633
0.8950214627880284	105492962.07329619
0.8952452181537254	111925952.18308829
0.8954690294582639	118360550.54041171
0.8956928967156286	123869968.02076524
0.8959168199398075	123366228.97683059
0.8961407991447926	122862363.99813482
0.8963648343445789	122358373.05319439
0.896588925553165	121854256.11051801
0.8968130727845534	121350013.1386059
0.8970372760527496	126247312.57909697
0.8972615353717629	131821693.85006112
0.8974858507556059	137397468.71634364
0.8977102222182949	142974637.52634123
0.8979346497738496	148553200.62854442
0.8981591334362931	151954907.1872975
0.8983836732196523	154166229.8184522
0.8986082691379572	156378105.28026325
0.8988329212052417	158590533.71093976
0.8990576294355432	160803515.24872583
0.8992823938429022	157164662.8364147
0.8995072144413631	144823144.6758021
0.8997320912449734	132478541.13565381
0.8999570242677847	120130851.44462335
0.9001820135238516	107780074.83116928
0.9004070590272328	97793598.16415922
0.9006321607919896	100215278.55559851
0.9008573188321878	102637564.36713812
0.9010825331618959	105060455.75012945
0.9013078037951865	107483952.85596693
0.9015331307461353	109908055.83607957
0.9017585140288219	116021058.88739578
0.9019839536573292	122453272.5156574
0.9022094496457435	128887094.19732141
0.9024350020081551	135322524.33441317
0.9026606107586572	141759563.3290371
0.902886275911347	147180737.9346744
0.9031119974803249	152112774.71255633
0.9033377754796951	157046044.4996328
0.903563609923565	161980547.60415384
0.903789500826046	166916284.33445433
0.9040154482012526	166923271.60942608
0.904241452063303	160543897.6101349
0.9044675124263188	154162928.76734534
0.9046936293044254	147780364.68234608
0.9049198027117517	141396204.9563224
0.9051460326624297	136407478.11397108
0.9053723191705955	137366378.2457782
0.9055986622503881	138325518.10261738
0.9058250619159507	139284897.7444208
0.9060515181814298	140244517.23113525
0.9062780310609752	141204376.62272075
0.9065046005687405	144998535.34340376
0.906731226718883	148951746.39675477
0.9069579095255627	152905945.75286397
0.907184649002944	156861133.6588125
0.907411445165195	160817310.36174154
0.9076382980264862	157859944.75416237
0.907865207600993	152030247.73989636
0.9080921739028933	146199093.30137846
0.9083191969463691	140366481.07425186
0.9085462767456058	134532410.69406566
0.9087734133147922	137559160.2795737
0.9090006066681211	150822708.05070814
0.909227856819788	164089571.7087679
0.9094551637839932	177359752.0827604
0.9096825275749393	190633250.00184223
0.9099099482068329	199239232.61226198
0.9101374256938848	191247142.81801388
0.9103649600503083	183253055.00132096
0.9105925512903209	175256968.6626754
0.9108201994281437	167258883.30243686
0.9110479044780008	159258798.42086735
0.9112756664541204	162006049.9719573
0.911503485370734	165000038.75230467
0.9117313612420768	167994776.02984717
0.9119592940823873	170990261.99170816
0.912187283905908	173986496.82506055
0.9124153307268845	173221113.2181716
0.9126434345595664	171090018.7795464
0.9128715954182063	168958391.56731358
0.9130998133170609	166826231.4482766
0.9133280882703902	164693538.28921002
0.913556420292458	162062079.96807632
0.9137848093975312	158916129.77574477
0.9140132555998806	155769393.0958655
0.9142417589137806	152621869.7318161
0.9144703193535092	149473559.48692364
0.9146989369333476	146816752.81076345
