#wavelength	surface flux
0.8	65820095.87410656
0.8002000000000001	66199995.13231902
0.8004000500000003	65992046.498881236
0.8006001500125003	65778107.07644593
0.8008003000500035	65564114.169154994
0.8010005001250161	65350067.76363714
0.8012007502500472	65135967.84651822
0.8014010504376099	65278072.46120363
0.8016014007002193	65539548.16698238
0.8018018010503944	65801089.24168759
0.8020022515006572	66062695.70166159
0.8022027520635323	66324367.56325035
0.8024033027515483	66540014.52131966
0.8026039035772362	66710548.67234832
0.8028045545531306	66881125.456914745
0.8030052556917691	67051744.8856774
0.803206007005692	67222406.96929708
0.8034068085074435	67366695.05692406
0.8036076602095705	67436969.4394338
0.8038085621246229	67507261.39053912
0.8040095142651542	67577570.91463226
0.8042105166437206	67647898.01610641
0.8044115692728815	67712627.9173341
0.8046126721651998	67535872.3337386
0.8048138253332411	67359072.56124733
0.8050150287895745	67182228.58881278
0.805216282546772	67005340.405385174
0.8054175866174087	66828407.9999118
0.8056189410140631	66688524.99592842
0.8058203457493168	66559106.92562037
0.8060218008357541	66429656.50079491
0.8062233062859632	66300173.71336317
0.8064248621125346	66170658.55523467
0.806626468328063	66099252.468939945
0.8068281249451449	66077765.00359393
0.8070298319763813	66056272.16638155
0.8072315894343755	66034773.955959894
0.8074333973317341	66013270.37098561
0.8076352556810671	66050431.17769048
0.8078371644949874	66228829.20191862
0.8080391237861113	66407271.825652845
0.8082411335670578	66585759.0600429
0.8084431938504498	66764290.91624174
0.8086453046489125	66941600.344902776
0.8088474659750746	67095363.70442681
0.8090496778415686	67249165.50479093
0.809251940261029	67403005.75560503
0.8094542532460944	67556884.46648195
0.8096566168094059	67710801.64703643
0.8098590309636085	67679559.13715228
0.8100614957213493	67604961.67281906
0.8102640110952797	67530345.55911976
0.8104665770980536	67455710.791392
0.8106691937423283	67381057.36497228
0.8108718610407639	67330116.71400574
0.8110745790060241	67297309.51355785
0.8112773476507757	67264494.11130983
0.8114801669876885	67231670.50521125
0.8116830370294355	67198838.69321115
0.8118859577886929	67236567.37318933
0.8120889292781401	67420879.76091205
0.8122919515104597	67605238.22673167
0.8124950244983374	67789642.78216776
0.8126981482544621	67974093.43874268
0.8129013227915257	68162765.3269495
0.8131045481222237	68399290.13362105
0.8133078242592543	68635874.0714943
0.8135111512153191	68872517.15535195
0.813714529003123	69109219.39998059
0.8139179576353739	69345980.82017043
0.8141214371247829	69354305.09151135
0.8143249674840641	69318322.16048108
0.814528548725935	69282330.23371807
0.8147321808631167	69246329.30897333
0.8149358639083326	69210319.3839974
0.8151395978743097	69057496.87612228
0.8153433827737784	68825718.76303412
0.8155472186194719	68593882.70541778
0.8157511054241268	68361988.68878709
0.815955043200483	68130036.69865207
0.8161590319612831	67888918.03150648
0.8163630717192736	67631048.52238089
0.8165671624872033	67373114.54587832
0.8167713042778252	67115116.08588137
0.8169754971038948	66857053.12626928
0.8171797409781707	66572855.573347725
0.8173840359134155	66080461.46765046
0.8175883819223938	65587944.263427325
0.8177927790178745	65095303.92990286
0.8179972272126291	64602540.43629488
0.8182017265194322	64109653.75181401
0.8184062769510622	64049146.05131886
0.8186108785203001	64055178.91199528
0.8188155312399301	64061213.280886844
0.8190202351227402	64067249.158370644
0.819224990181521	64073286.54482381
0.8194297964290664	64435104.85387978
0.8196346538781738	65011459.02776922
0.8198395625416434	65587957.29020192
0.8200445224322789	66164599.67720047
0.820249533562887	66741386.22479559
0.8204545959462778	67250766.41367193
0.8206597095952644	67651553.15237567
0.8208648745226633	68052440.0877644
0.8210700907412941	68453427.2448869
0.8212753582639793	68854514.64879829
0.8214806771035456	69243982.67301211
0.8216860472728215	69561340.73210698
0.8218914687846397	69878778.13071665
0.822096941651836	70196294.88867612
0.822302465887249	70513891.0258249
0.8225080415037209	70831566.56200816
0.8227136685140968	71171831.3098222
0.8229193469312254	71514736.45575261
0.8231250767679583	71857727.32796963
0.8233308580371503	72200803.9479045
0.8235366907516598	72543966.3369946
0.8237425749243477	72763553.79312415
0.8239485105680789	72917653.78874967
0.824154497695721	73071792.30937399
0.824360536320145	73225969.36462851
0.8245666264542252	73380184.96414682
0.8247727681108388	73504850.7425796
0.8249789613028664	73587171.56556813
0.8251852060431922	73669512.9687625
0.825391502344703	73751874.95730762
0.8255978502202894	73834257.53634995
0.8258042496828445	73929875.98160592
0.8260107007452654	74089699.22366269
0.8262172034204517	74249562.4215298
0.8264237577213068	74409465.58519644
0.8266303636607373	74569408.72465403
0.8268370212516525	74729391.84989643
0.8270437305069654	74802690.87170963
0.8272504914395923	74869231.29355763
0.8274573040624523	74935788.35051112
0.8276641683884679	75002362.04672879
0.8278710844305652	75068952.38637058
0.8280780522016729	75258805.72062582
0.8282850717147234	75505042.19520946
0.8284921429826521	75751340.22891149
0.8286992660183978	75997699.83712214
0.8289064408349024	76244121.03523466
0.8291136674451112	76526046.33539706
0.8293209458619727	76852733.32928632
0.8295282760984382	77179501.99492364
0.829735658167463	77506352.35272773
0.8299430920820048	77833284.42312086
0.8301505778550254	78107938.86872235
0.8303581154994891	78173680.44811743
0.8305657050283641	78239438.46290745
0.8307733464546212	78305212.9172011
0.8309810397912352	78371003.81510843
0.8311887850511829	78436811.1607401
0.8313965822474458	78731724.48141094
0.8316044313930077	79037344.78700967
0.8318123325008561	79343041.49768509
0.8320202855839813	79648814.63253804
0.8322282906553774	79954664.2106747
0.8324363477280413	80266733.93210958
0.8326444568149735	80581355.09523264
0.8328526179291771	80896054.91364612
0.8330608310836596	81210833.40701467
0.8332690962914304	81525690.59500615
0.8334774135655034	81677907.13995254
0.833685782918895	81648398.87329924
0.8338942043646247	81618883.22957931
0.834102677915716	81589360.20694843
0.834311203585195	81559829.80356191
0.8345197813860912	81643262.29483023
0.8347284113314379	82106984.16199711
0.8349370934342709	82570821.95963053
0.8351458277076294	83034775.7167128
0.8353546141645565	83498845.46223511
0.8355634528180977	83963031.2251936
0.8357723436813022	83539174.97717552
0.8359812867672226	83104246.27612382
0.8361902820889144	82669208.84289707
0.8363993296594368	82234062.6503119
0.8366084294918518	81798807.67117843
0.8368175815992247	81440636.06049177
0.8370267859946247	81108960.68730146
0.8372360426911234	80777202.39526796
0.8374453517017962	80445361.1636615
0.8376547130397217	80113436.97174716
0.8378641267179816	80141380.36769374
0.8380735927496613	80526495.28330691
0.8382831111478488	80911706.47764876
0.8384926819256358	81297013.974789
0.8387023050961173	81682417.79880384
0.8389119806723914	81932468.99879609
0.8391217086675596	81801385.03665589
0.8393314890947265	81670268.30352527
0.8395413219670003	81539118.79121134
0.8397512072974922	81407936.49151924
0.8399611450993165	81277426.86084458
0.8401711353855914	81181917.7222926
0.8403811781694378	81086384.706456
0.8405912734639802	80990827.80736542
0.8408014212823464	80895247.01905002
0.8410116216376671	80799642.33553755
0.8412218745430766	80697312.57568745
0.8414321800117124	80593007.45001335
0.8416425380567154	80488676.24805778
0.8418529486912297	80384318.96330169
0.8420634119284025	80279935.5892245
0.8422739277813847	80728235.51584487
0.8424844962633302	81663605.9429867
0.842695117387396	82599210.21273413
0.8429057911667428	83535048.38354903
0.8431165176145345	84471120.51390709
0.8433272967439382	85059661.98459868
0.8435381285681244	84800056.10655239
0.8437490131002665	84540385.32703665
0.8439599503535415	84280649.62982619
0.84417094034113	84020848.99869123
0.8443819830762154	83737794.66693352
0.8445930785719846	82987530.21112977
0.8448042268416277	82237078.18921249
0.8450154278983382	81486438.55428982
0.8452266817553128	80735611.25945847
0.8454379884257517	79984596.25780332
0.8456493479228583	80117582.08353047
0.845860760259839	80463524.39262475
0.846072225449904	80809553.1872963
0.8462837435062666	81155668.4891666
0.8464953144421433	81501870.31986256
0.8467069382707537	81783831.41491294
0.8469186150053215	82015721.85632594
0.847130344659073	82247670.27034937
0.8473421272452377	82479676.67147607
0.8475539627770492	82711741.07420328
0.8477658512677435	82861958.74624178
0.8479777927305605	82838300.02827977
0.8481897871787432	82814635.39563827
0.848401834625538	82790964.8468386
0.8486139350841944	82767288.38040175
0.8488260885679657	82727818.33686979
0.8490382950901076	82495892.47971438
0.8492505546638802	82263908.64109455
0.8494628673025462	82031866.80651516
0.8496752330193721	81799766.96147677
0.8498876518276269	81567609.09147745
0.8501001237405839	81735221.70169732
0.8503126487715191	81982689.00972296
0.850525226933712	82230218.18457547
0.8507378582404455	82477809.24172169
0.8509505427050057	82725462.19663234
0.8511632803406821	83320725.71859546
0.8513760711607672	84154145.24231069
0.8515889151785576	84987773.12090814
0.8518018124073523	85821609.40647456
0.8520147628604541	86655654.15111186
0.8522277665511693	87412229.13576853
0.8524408234928071	88025336.69116385
0.8526539336986805	88638597.52344818
0.8528670971821053	89252011.67094064
0.8530803139564007	89865579.17196923
0.8532935840348901	90410198.3804637
0.8535069074308987	90371354.70788716
0.8537202841577566	90332501.32439242
0.8539337142287962	90293638.22755183
0.8541471976573534	90254765.41493703
0.8543607344567677	90215882.8841191
0.8545743246403821	90076377.2654602
0.8547879682215422	89920858.21773069
0.8550016652135977	89765300.29023926
0.8552154156299011	89609703.47326596
0.8554292194838088	89454067.7570883
0.8556430767886797	89145468.84597951
0.855856987557877	88743941.19765148
0.8560709518047664	88342313.16741161
0.8562849695427177	87940584.73016404
0.8564990407851035	87538755.86080703
0.8567131655452999	87282913.45901193
0.8569273438366862	87266375.39820515
0.8571415756726455	87249833.20288315
0.8573558610665638	87233286.87201232
0.8575702000318304	87216736.4045588
0.8577845925818384	87421240.83574976
0.857999038729984	89006612.57237689
0.8582135384896665	90592380.6519378
0.858428091874289	92178545.1735187
0.8586426988972576	93765106.23622957
0.8588573595719821	95352063.93920666
0.8590720739118751	94795935.80820662
0.8592868419303532	93986945.64506593
0.8595016636408359	93177753.23438446
0.8597165390567462	92368358.52560058
0.8599314681915105	91558761.4681393
0.8601464510585584	90839035.07293579
0.860361487671323	90166938.89841987
0.8605765780432408	89494674.69986053
0.8607917221877518	88822242.43525098
0.8610069201182988	88149642.06257547
0.8612221718483286	87007295.750311
0.8614374773912907	85187703.91989909
0.8616528367606385	83367657.19153006
0.8618682499698288	81547155.4514778
0.8620837170323213	79726198.58599082
0.8622992379615795	78199627.00899334
0.8625148127710699	78131726.60183387
0.8627304414742627	78063809.21957262
0.8629461240846313	77995874.85796577
0.8631618606156526	77927923.51276854
0.8633776510808066	77859955.179735
0.8635934954935769	79343338.46164317
0.8638093938674504	80954261.0799505
0.8640253462159173	82565586.42891234
0.8642413525524714	84177314.60921139
0.8644574128906095	85789445.72155516
0.8646735272438323	85593101.6835104
0.8648896956256433	84555530.08264866
0.8651059180495498	83517699.08888665
0.8653221945290621	82479608.6373772
0.8655385250776946	81441258.66325343
0.8657549097089641	81066370.7197011
0.8659713484363913	81541098.62813592
0.8661878412735006	82015945.21854809
0.866404388233819	82490910.52060778
0.8666209893308775	82965994.56399278
0.8668376445782103	83343520.02952972
0.8670543539893549	83322469.03076448
0.8672711175778525	83301412.76924953
0.8674879353572469	83280351.24366923
0.8677048073410862	83259284.45270751
0.8679217335429217	83238212.39504805
0.8681387139763074	82944469.016033
0.8683557486548015	82637106.84632118
0.8685728375919655	82329667.83606656
0.8687899808013633	82022151.96606004
0.8690071782965637	81714559.21708561
0.869224430091138	81485010.6443006
0.8694417361986609	81287192.05078003
0.8696590966327107	81089324.00261113
0.869876511406869	80891406.48743019
0.8700939805347206	80693439.49287052
0.8703115040298544	80560471.77191755
0.870529081905862	80501840.36574246
0.8707467141763385	80443194.30171584
0.8709644008548827	80384533.57617322
0.8711821419550964	80325858.18544924
0.8713999374905854	80336403.77765243
0.871617787474958	80585908.26260498
0.8718356919218269	80835475.12367898
0.8720536508448075	81085104.37646829
0.8722716642575187	81334796.03657062
0.8724897321735832	81584550.11958812
0.8727078546066265	81764827.0100448
0.8729260315702784	81944091.04381861
0.873144263078171	82123399.89360066
0.8733625491439405	82302753.57059518
0.8735808897812266	82482152.08600901
0.8737992850036719	82481955.73141277
0.874017734824923	82418133.8928066
0.8742362392586293	82354296.09874082
0.874454798318444	82290442.34522653
0.8746734120180236	82226572.62827386
0.8748920803710283	82199231.87674966
0.875110803391121	82208608.46531256
0.8753295810919689	82217987.39802259
0.875548413487242	82227368.6754658
0.8757673005906139	82236752.29822838
0.8759862424157616	82347729.15730964
0.8762052389763657	82752691.7963655
0.8764242902861098	83157755.67608085
0.8766433963586814	83562920.82176623
0.8768625572077712	83968187.25873816
0.8770817728470732	84373524.33126989
0.8773010432902849	84776567.23914728
0.8775203685511077	85179710.90775222
0.8777397486432454	85582955.3622738
0.8779591835804065	85986300.6279095
0.8781786733763015	86389746.72986108
0.8783982180446457	86012325.49963318
0.878617817599157	85402486.4738843
0.8788374720535569	84792494.98837927
0.8790571814215703	84182351.00500302
0.8792769457169257	83572054.48563091
0.879496764953355	83234026.90233676
0.8797166391445934	83140839.64279021
0.8799365683043796	83047629.08642878
0.8801565524464557	82954395.22742826
0.8803765915845676	82861138.0599629
0.8805966857324639	82956702.10021892
0.880816834903897	83526610.8575131
0.881037039112623	84096662.09199682
0.8812572983724012	84666855.83928913
0.8814776126969944	85237192.1350185
0.8816979821001687	85777832.93197465
0.8819184065956938	85616215.396597
0.8821388861973429	85454557.45683534
0.8823594209188923	85292859.1025889
0.882580010774122	85131120.32375397
0.8828006557768155	84969341.11022423
0.8830213559407598	85358249.1481065
0.8832421112797452	85885768.01887731
0.8834629218075651	86413418.76936552
0.8836837875380171	86941201.4325415
0.8839047084849018	87469116.04138336
0.884125684662023	87386595.89385597
0.8843467160831886	86814763.85651782
0.8845678027622095	86242788.86117034
0.8847889447129001	85670670.87207392
0.8850101419490785	85098409.85348031
0.8852313944845657	85068994.90609132
0.885452702333187	86228109.22669417
0.8856740655087704	87387513.325877
0.8858954840251476	88547207.27608432
0.8861169578961539	89707191.14977865
0.886338487135628	90719748.47535938
0.886560071757412	89766834.7932273
0.8867817117753515	88813682.88267472
0.8870034072032955	87860292.68414406
0.8872251580550963	86906664.1380649
0.8874469643446101	85952797.18484862
0.8876688260856963	85934806.08219284
0.8878907432922178	86110551.33673184
0.8881127159780409	86286340.52758434
0.8883347441570356	86462173.66573478
0.8885568278430749	86638050.76216957
0.8887789670500358	86677147.90605816
0.8890011617917983	86619195.54013982
0.8892234120822464	86561228.68612997
0.8894457179352669	86503247.34040667
0.8896680793647509	86445251.49934688
0.8898904963845921	86481929.06132147
0.8901129690086883	86699282.80215202
0.8903354972509405	86916690.88141772
0.8905580811252535	87134153.3127034
0.8907807206455347	87351670.10959661
0.8910034158256963	87552301.82439512
0.8912261666796527	87601596.34360391
0.8914489732213227	87650903.1864425
0.8916718354646282	87700222.35599186
0.8918947534234944	87749553.85533355
0.8921177271118502	87798897.68755005
0.8923407565436284	88014107.07190907
0.8925638417327644	88256425.42793497
0.8927869826931977	88498804.36354996
0.8930101794388711	88741243.89389883
0.8932334319837308	88983744.03413026
0.8934567403417267	89305873.76106526
0.8936801045268123	89677526.76364584
0.8939035245529441	90049272.67947681
0.8941270004340824	90421111.53178689
0.894350532184191	90793043.34380996
0.8945741198172371	90999871.51190957
0.8947977633471915	90932792.48664501
0.8950214627880284	90865696.69162415
0.8952452181537254	90798584.12265457
0.8954690294582639	90731454.7755427
0.8956928967156286	90657838.88142219
0.8959168199398075	90542218.11532147
0.8961407991447926	90426568.44402921
0.8963648343445789	90310889.86031912
0.896588925553165	90195182.35696316
0.8968130727845534	90079445.92673136
0.8970372760527496	90644103.554078
0.8972615353717629	91294036.96455324
0.8974858507556059	91944132.85838117
0.8977102222182949	92594391.27618238
0.8979346497738496	93244812.2585884
0.8981591334362931	93639194.88740979
0.8983836732196523	93893565.83169778
0.8986082691379572	94148000.36872166
0.8988329212052417	94402498.51437981
0.8990576294355432	94657060.2845746
0.8992823938429022	94486127.54447736
0.8995072144413631	93682401.1812094
0.8997320912449734	92878473.88635093
0.8999570242677847	92074345.60966893
0.9001820135238516	91270016.30091769
0.9004070590272328	90610131.73548688
0.9006321607919896	90708364.96479636
0.9008573188321878	90806622.75241329
0.9010825331618959	90904905.10447705
0.9013078037951865	91003212.02712886
0.9015331307461353	91101543.52651127
0.9017585140288219	91290358.12965523
0.9019839536573292	91487011.36332218
0.9022094496457435	91683713.7602974
0.9024350020081551	91880465.33287208
0.9026606107586572	92077266.09333985
0.902886275911347	92387575.98200414
0.9031119974803249	92752659.03098129
0.9033377754796951	93117833.35072069
0.903563609923565	93483098.96403988
0.903789500826046	93848455.89376262
0.9040154482012526	94145095.64279683
0.904241452063303	94352674.12220639
0.9044675124263188	94560304.49623574
0.9046936293044254	94767986.77785859
0.9049198027117517	94975720.98005192
0.9051460326624297	95081516.14456946
0.9053723191705955	94753036.47562844
0.9055986622503881	94424474.68677048
0.9058250619159507	94095830.7574653
0.9060515181814298	93767104.66717759
0.9062780310609752	93438296.39536753
0.9065046005687405	93587472.33258897
0.906731226718883	93763355.47545828
0.9069579095255627	93939282.58911309
0.907184649002944	94115253.6845463
0.907411445165195	94291268.77275357
0.9076382980264862	94034146.87207922
0.907865207600993	93597061.4269695
0.9080921739028933	93159866.71049862
0.9083191969463691	92722562.6953487
0.9085462767456058	92285149.35419478
0.9087734133147922	92601545.47836623
0.9090006066681211	93788806.28212339
0.909227856819788	94976363.90107991
0.9094551637839932	96164218.40944281
0.9096825275749393	97352369.88143243
0.9099099482068329	98134073.48771453
0.9101374256938848	97470394.07979304
0.9103649600503083	96806548.75201987
0.9105925512903209	96142537.46291488
0.9108201994281437	95478360.17098694
0.9110479044780008	94814016.83473675
0.9112756664541204	94983184.0743067
0.911503485370734	95171476.31749834
0.9117313612420768	95359815.6337508
0.9119592940823873	95548202.03483225
0.912187283905908	95736635.53251405
0.9124153307268845	95760743.09069414
0.9126434345595664	95725198.86724736
0.9128715954182063	95689645.75774476
0.9130998133170609	95654083.75996475
0.9133280882703902	95618512.87168531
0.913556420292458	95660378.82393268
0.9137848093975312	95782126.17088471
0.9140132555998806	95903903.95467347
0.9142417589137806	96025712.18290816
0.9144703193535092	96147550.86320001
0.9146989369333476	96275965.06235641
0.9149276116675811	96424151.46771245
0.9151563435704979	96572374.91966967
0.9153851326563907	96720635.42749001
0.9156139789395548	96868933.00043724
0.9158428824342899	97014189.39350553
0.9160718431548984	96788152.66829105
0.9163008611156873	96562059.43389502
