#wavelength	surface flux
0.8	390565.9381612871
0.8002000000000001	395861.5343371328
0.8004000500000003	402210.6186963905
0.8006001500125003	408571.9182219674
0.8008003000500035	414934.80807242624
0.8010005001250161	421299.2886453506
0.8012007502500472	427665.36033840897
0.8014010504376099	432986.57485126395
0.8016014007002193	437958.59132404876
0.8018018010503944	442931.8508009517
0.8020022515006572	447906.35359272617
0.8022027520635323	452882.10001019423
0.8024033027515483	458093.60054347105
0.8026039035772362	463536.2147879494
0.8028045545531306	468980.1896859892
0.8030052556917691	474425.525577756
0.803206007005692	479872.222803491
0.8034068085074435	485635.08360879443
0.8036076602095705	492281.8210463231
0.8038085621246229	498930.2201682059
0.8040095142651542	505580.2813898733
0.8042105166437206	512232.00512684387
0.8044115692728815	518863.3569073131
0.8046126721651998	524548.6071945176
0.8048138253332411	530235.2787942895
0.8050150287895745	535923.3720619663
0.805216282546772	541612.8873529588
0.8054175866174087	547303.8250227709
0.8056189410140631	553097.7953815534
0.8058203457493168	558921.9764403388
0.8060218008357541	564747.6135443815
0.8062233062859632	570574.707057703
0.8064248621125346	576403.257344399
0.806626468328063	583162.4733026196
0.8068281249451449	590721.4567852222
0.8070298319763813	598282.3300137047
0.8072315894343755	605845.0934604886
0.8074333973317341	613409.7475981371
0.8076352556810671	619341.7421756834
0.8078371644949874	621340.5832203066
0.8080391237861113	623339.9239751913
0.8082411335670578	625339.7645652636
0.8084431938504498	627340.1051154855
0.8086453046489125	629253.899508443
0.8088474659750746	629547.5272673186
0.8090496778415686	629841.2284331343
0.809251940261029	630135.0030242412
0.8094542532460944	630428.8510589962
0.8096566168094059	630722.7725557595
0.8098590309636085	632113.529391681
0.8100614957213493	633761.339985229
0.8102640110952797	635409.5625314255
0.8104665770980536	637058.1971332594
0.8106691937423283	638707.2438937443
0.8108718610407639	641562.788383931
0.8110745790060241	645341.277014611
0.8112773476507757	649120.710267452
0.8114801669876885	652901.0883786052
0.8116830370294355	656682.4115842839
0.8118859577886929	659494.4267515937
0.8120889292781401	660291.886247835
0.8122919515104597	661089.5451089503
0.8124950244983374	661887.403384781
0.8126981482544621	662685.4611251805
0.8129013227915257	663703.9604181572
0.8131045481222237	667244.5193443164
0.8133078242592543	670785.9634102077
0.8135111512153191	674328.2928371144
0.813714529003123	677871.5078463784
0.8139179576353739	681415.6086593951
0.8141214371247829	706373.9626980777
0.8143249674840641	735490.9683944094
0.814528548725935	764615.2533421477
0.8147321808631167	793746.8193611623
0.8149358639083326	822885.6682716727
0.8151395978743097	841763.5123350712
0.8153433827737784	853708.3886129513
0.8155472186194719	865656.2511098965
0.8157511054241268	877607.1005724637
0.815955043200483	889560.9377474048
0.8161590319612831	899685.015669039
0.8163630717192736	906453.3378295682
0.8165671624872033	913223.3520706302
0.8167713042778252	919995.058815259
0.8169754971038948	926768.4584865774
0.8171797409781707	932434.5373973496
0.8173840359134155	929248.4297120924
0.8175883819223938	926061.5254999175
0.8177927790178745	922873.8245616877
0.8179972272126291	919685.3266982225
0.8182017265194322	916496.0317102948
0.8184062769510622	930797.5026653139
0.8186108785203001	947794.2416866957
0.8188155312399301	964795.2298928098
0.8190202351227402	981800.4683459945
0.819224990181521	998809.9581087817
0.8194297964290664	1012631.5782400672
0.8196346538781738	1024532.6079007122
0.8198395625416434	1036436.6128187674
0.8200445224322789	1048343.5937380572
0.820249533562887	1060253.5514025732
0.8204545959462778	1071757.4008027466
0.8206597095952644	1082605.7136884523
0.8208648745226633	1093456.7386523876
0.8210700907412941	1104310.4763725623
0.8212753582639793	1115166.927527156
0.8214806771035456	1121229.3259495848
0.8216860472728215	1097739.3120883834
0.8218914687846397	1074243.4257237155
0.822096941651836	1050741.6653874442
0.822302465887249	1027234.0296111027
0.8225080415037209	1003720.5169258043
0.8227136685140968	1017746.4653894149
0.8229193469312254	1036038.1010702434
0.8231250767679583	1054334.3096599982
0.8233308580371503	1072635.0923018903
0.8235366907516598	1090940.4501394564
0.8237425749243477	1113645.0059195564
0.8239485105680789	1138684.4645431368
0.824154497695721	1163730.183031357
0.824360536320145	1188782.162949204
0.8245666264542252	1213840.4058620292
0.8247727681108388	1235376.4606688046
0.8249789613028664	1251864.4911706427
0.8251852060431922	1268356.6436801208
0.825391502344703	1284852.9192277186
0.8255978502202894	1301353.3188442185
0.8258042496828445	1316608.3857173817
0.8260107007452654	1325799.1863499223
0.8262172034204517	1334992.2846826117
0.8264237577213068	1344187.6812898868
0.8266303636607373	1353385.3767463178
0.8268370212516525	1362585.3716266083
0.8270437305069654	1354876.4689209273
0.8272504914395923	1345844.1388066798
0.8274573040624523	1336809.5506099015
0.8276641683884679	1327772.7037660822
0.8278710844305652	1318733.597710541
0.8280780522016729	1324892.211529668
0.8282850717147234	1338000.2475529271
0.8284921429826521	1351111.5605851784
0.8286992660183978	1364226.151445698
0.8289064408349024	1377344.0209539235
0.8291136674451112	1383620.8715052498
0.8293209458619727	1381268.9739195465
0.8295282760984382	1378916.48835945
0.829735658167463	1376563.4146779606
0.8299430920820048	1374209.7527280538
0.8301505778550254	1372609.8197417203
0.8303581154994891	1374020.18832463
0.8305657050283641	1375430.9094996871
0.8307733464546212	1376841.9833550367
0.8309810397912352	1378253.4099788524
0.8311887850511829	1379665.1894593213
0.8313965822474458	1415027.4981238504
0.8316044313930077	1451974.4546327007
0.8318123325008561	1488930.6478807125
0.8320202855839813	1525896.0801770184
0.8322282906553774	1562870.7538314015
0.8324363477280413	1574870.3083469467
0.8326444568149735	1576814.2464263611
0.8328526179291771	1578758.670490293
0.8330608310836596	1580703.580660244
0.8332690962914304	1582648.977057735
0.8334774135655034	1582549.175193854
0.833685782918895	1580164.2514908249
0.8338942043646247	1577778.7315568717
0.834102677915716	1575392.6152429334
0.834311203585195	1573005.9023999185
0.8345197813860912	1579398.1415069688
0.8347284113314379	1615344.7603852092
0.8349370934342709	1651300.3659181488
0.8351458277076294	1687264.9603524283
0.8353546141645565	1723238.545935376
0.8355634528180977	1759221.1249147044
0.8357723436813022	1716716.9815747098
0.8359812867672226	1673232.9900900587
0.8361902820889144	1629738.1276075584
0.8363993296594368	1586232.3914094246
0.8366084294918518	1542715.7787772263
0.8368175815992247	1555594.8874317629
0.8370267859946247	1587904.2284157611
0.8372360426911234	1620221.646734995
0.8374453517017962	1652547.1444088058
0.8376547130397217	1684880.723457031
0.8378641267179816	1704274.1038346593
0.8380735927496613	1710824.2708315197
0.8382831111478488	1717376.0753701255
0.8384926819256358	1723929.5178598622
0.8387023050961173	1730484.598710227
0.8389119806723914	1736904.1658285419
0.8391217086675596	1742939.3458812966
0.8393314890947265	1748976.03472906
0.8395413219670003	1755014.232749036
0.8397512072974922	1761053.940318521
0.8399611450993165	1767892.7552936208
0.8401711353855914	1814341.6857204484
0.8403811781694378	1860802.2283798705
0.8405912734639802	1907274.386174969
0.8408014212823464	1953758.162009538
0.8410116216376671	2000253.5587880595
0.8412218745430766	2041912.2172065317
0.8414321800117124	2082170.603978535
0.8416425380567154	2122439.0553472503
0.8418529486912297	2162717.573828818
0.8420634119284025	2203006.1619399716
0.8422739277813847	2227860.390576501
0.8424844962633302	2239113.6892099488
0.842695117387396	2250369.8011680404
0.8429057911667428	2261628.7271541217
0.8431165176145345	2272890.4678717055
0.8433272967439382	2281417.353205853
0.8435381285681244	2283268.4319782024
0.8437490131002665	2285119.973520244
0.8439599503535415	2286971.9779476705
0.84417094034113	2288824.445376205
0.8443819830762154	2291566.497915908
0.8445930785719846	2312220.674552842
0.8448042268416277	2332880.014733923
0.8450154278983382	2353544.5197500475
0.8452266817553128	2374214.190892424
0.8454379884257517	2394889.0294525884
0.8456493479228583	2419121.1577594806
0.845860760259839	2444214.737535143
0.846072225449904	2469314.5907057486
0.8462837435062666	2494420.7188396524
0.8464953144421433	2519533.123505604
0.8467069382707537	2535709.765756344
0.8469186150053215	2544920.406211179
0.847130344659073	2554133.349326131
0.8473421272452377	2563348.595676852
0.8475539627770492	2572566.1458391706
0.8477658512677435	2583642.8681611405
0.8479777927305605	2598665.1738615464
0.8481897871787432	2613691.235138374
0.848401834625538	2628721.0529305288
0.8486139350841944	2643754.6281771227
0.8488260885679657	2656954.275259448
0.8490382950901076	2647756.4754920527
0.8492505546638802	2638556.376274711
0.8494628673025462	2629353.977032568
0.8496752330193721	2620149.2771906005
0.8498876518276269	2610942.276173685
0.8501001237405839	2511473.7274041604
0.8503126487715191	2393962.9807867752
0.850525226933712	2276422.8564828015
0.8507378582404455	2158853.3471477525
0.8509505427050057	2041254.4454353019
0.8511632803406821	1968726.5418122122
0.8513760711607672	1927066.0200768735
0.8515889151785576	1885395.0832110364
0.8518018124073523	1843713.7286110176
0.8520147628604541	1802021.9536723734
0.8522277665511693	1808000.1670343454
0.8524408234928071	1902159.0320809274
0.8526539336986805	1996341.4368437964
0.8528670971821053	2090547.387207862
0.8530803139564007	2184776.8890594076
0.8532935840348901	2283309.7137825508
0.8535069074308987	2418011.978289388
0.8537202841577566	2552747.9183624657
0.8539337142287962	2687517.5424205763
0.8541471976573534	2822320.858884617
0.8543607344567677	2957157.876177799
0.8545743246403821	3017771.553450217
0.8547879682215422	3066607.5160013787
0.8550016652135977	3115455.6875431724
0.8552154156299011	3164316.071127854
0.8554292194838088	3213188.6698084665
0.8556430767886797	3247442.251486826
0.855856987557877	3272820.697010213
0.8560709518047664	3298205.4871449647
0.8562849695427177	3323596.6234772597
0.8564990407851035	3348994.107593645
0.8567131655452999	3372605.464376987
0.8569273438366862	3393285.691099845
0.8571415756726455	3413971.0878793877
0.8573558610665638	3434661.6560081327
0.8575702000318304	3455357.3967788876
0.8577845925818384	3477251.344538014
0.857999038729984	3506602.8897512876
0.8582135384896665	3535961.7728508576
0.858428091874289	3565327.9956712043
0.8586426988972576	3594701.560047248
0.8588573595719821	3624082.4678143957
0.8590720739118751	3638503.062110038
0.8592868419303532	3651162.529870503
0.8595016636408359	3663825.1624979083
0.8597165390567462	3676490.9607834658
0.8599314681915105	3689159.9255185984
0.8601464510585584	3694966.402608414
0.860361487671323	3697130.08963055
0.8605765780432408	3699294.31757444
0.8607917221877518	3701459.0865753186
0.8610069201182988	3703624.3967684465
0.8612221718483286	3680808.2252078103
0.8614374773912907	3621971.3825127245
0.8616528367606385	3563119.8306069807
0.8618682499698288	3504253.565813224
0.8620837170323213	3445372.5844532778
0.8622992379615795	3398780.3506097314
0.8625148127710699	3413061.6169734895
0.8627304414742627	3427346.4536538403
0.8629461240846313	3441634.861543363
0.8631618606156526	3455926.8415348595
0.8633776510808066	3470222.3945213514
0.8635934954935769	3531570.198290374
0.8638093938674504	3596790.004149281
0.8640253462159173	3662026.11495965
0.8642413525524714	3727278.534797721
0.8644574128906095	3792547.2677407376
0.8646735272438323	3805733.1587003595
0.8648896956256433	3794694.793521065
0.8651059180495498	3783653.6687504747
0.8653221945290621	3772609.7836987027
0.8655385250776946	3761563.1376756523
0.8657549097089641	3779204.03706368
0.8659713484363913	3833579.246586831
0.8661878412735006	3887968.049912388
0.866404388233819	3942370.450438769
0.8666209893308775	3996786.4515652563
0.8668376445782103	4043343.732192374
0.8670543539893549	4057781.6995460163
0.8672711175778525	4072223.2763915067
0.8674879353572469	4086668.4636311927
0.8677048073410862	4101117.262167694
0.8679217335429217	4115569.6729038386
0.8681387139763074	4140490.557806552
0.8683557486548015	4165937.540566567
0.8685728375919655	4191390.8850723025
0.8687899808013633	4216850.59291411
0.8690071782965637	4242316.66568291
0.869224430091138	4266544.694652679
0.8694417361986609	4290272.431644715
0.8696590966327107	4314006.100570994
0.869876511406869	4337745.702914506
0.8700939805347206	4361491.240158593
0.8703115040298544	4387510.585788585
0.870529081905862	4416129.270023757
0.8707467141763385	4444755.108929977
0.8709644008548827	4473388.1042959215
0.8711821419550964	4502028.257910691
0.8713999374905854	4529356.231238839
0.871617787474958	4552137.535338722
0.8718356919218269	4574924.53476465
0.8720536508448075	4597717.230940437
0.8722716642575187	4620515.625290254
0.8724897321735832	4643319.719238669
0.8727078546066265	4666096.353315233
0.8729260315702784	4688878.177064352
0.873144263078171	4711665.696269384
0.8733625491439405	4734458.912354219
0.8735808897812266	4757257.826743085
0.8737992850036719	4759774.85895087
0.874017734824923	4755106.992488375
0.8742362392586293	4750437.959059265
0.874454798318444	4745767.758371799
0.8746734120180236	4741096.390134161
0.8748920803710283	4745320.890669885
0.875110803391121	4758487.121359729
0.8753295810919689	4771656.643607253
0.875548413487242	4784829.458235339
0.8757673005906139	4798005.566067083
0.8759862424157616	4823513.842281914
0.8762052389763657	4884702.675348322
0.8764242902861098	4945906.805622954
0.8766433963586814	5007126.236930171
0.8768625572077712	5068360.973095234
0.8770817728470732	5128931.753951046
0.8773010432902849	5136482.458849301
0.8775203685511077	5144035.05142379
0.8777397486432454	5151589.532146415
0.8779591835804065	5159145.901489228
0.8781786733763015	5166704.159924368
0.8783982180446457	5141541.813689197
0.878617817599157	5106638.84646285
0.8788374720535569	5071727.153494714
0.8790571814215703	5036806.732603344
0.8792769457169257	5001877.58160675
0.879496764953355	4962962.844844418
0.8797166391445934	4920462.926916773
0.8799365683043796	4877952.384009644
0.8801565524464557	4835431.21346679
0.8803765915845676	4792899.412631258
0.8805966857324639	4781118.97929375
0.880816834903897	4846600.523903779
0.881037039112623	4912098.438899986
0.8812572983724012	4977612.728374937
0.8814776126969944	5043143.396422285
0.8816979821001687	5106052.804141252
0.8819184065956938	5106887.379135819
0.8821388861973429	5107722.162774136
0.8823594209188923	5108557.155108362
0.882580010774122	5109392.356190671
0.8828006557768155	5110227.766073251
0.8830213559407598	5140313.895370954
0.8832421112797452	5177764.346521143
0.8834629218075651	5215224.160284098
0.8836837875380171	5252693.339000505
0.8839047084849018	5290171.885011598
0.884125684662023	5292533.993105666
0.8843467160831886	5266747.843054493
0.8845678027622095	5240955.246465807
0.8847889447129001	5215156.20172797
0.8850101419490785	5189350.707228952
0.8852313944845657	5201983.199952642
0.885452702333187	5298769.01165082
0.8856740655087704	5395579.019801909
0.8858954840251476	5492413.230455009
0.8861169578961539	5589271.649660728
0.886338487135628	5669309.695110926
0.886560071757412	5525209.959943941
0.8867817117753515	5381074.199843167
0.8870034072032955	5236902.405802304
0.8872251580550963	5092694.568813099
0.8874469643446101	4948450.679864557
0.8876688260856963	4968124.798822384
0.8878907432922178	5021736.232058464
0.8881127159780409	5075361.068152816
0.8883347441570356	5128999.310456257
0.8885568278430749	5182650.962320219
0.8887789670500358	5217790.595390722
0.8890011617917983	5239797.560361718
0.8892234120822464	5261810.027073965
0.8894457179352669	5283827.996902875
0.8896680793647509	5305851.471224258
0.8898904963845921	5283679.725952935
0.8901129690086883	5177166.290074101
0.8903354972509405	5070626.225836324
0.8905580811252535	4964059.526582404
0.8907807206455347	4857466.185653814
0.8910034158256963	4746584.076588316
0.8912261666796527	4597583.836331207
0.8914489732213227	4448546.346013994
0.8916718354646282	4299471.596324054
0.8918947534234944	4150359.5779468357
0.8921177271118502	4001210.281565116
0.8923407565436284	3805604.69804356
0.8925638417327644	3602378.012064361
0.8927869826931977	3399100.519413599
0.8930101794388711	3195772.2073896877
0.8932334319837308	2992393.063287803
0.8934567403417267	2856861.2198392074
0.8936801045268123	2763486.1981871543
0.8939035245529441	2670087.8327797507
0.8941270004340824	2576666.1177809592
0.894350532184191	2483221.047353442
0.8945741198172371	2542885.8976787645
0.8947977633471915	2856518.946139966
0.8950214627880284	3170230.4028632706
0.8952452181537254	3484020.2874505697
0.8954690294582639	3797888.6195092034
0.8956928967156286	4083331.552824269
0.8959168199398075	4183865.91154337
0.8961407991447926	4284425.403852176
0.8963648343445789	4385010.036034057
0.896588925553165	4485619.814373927
0.8968130727845534	4586254.745158394
0.8970372760527496	4573720.917307263
0.8972615353717629	4547021.117420018
0.8974858507556059	4520314.642582797
0.8977102222182949	4493601.491126875
0.8979346497738496	4466881.661383075
0.8981591334362931	4674204.667489457
0.8983836732196523	5009575.681208673
0.8986082691379572	5345030.537681097
0.8988329212052417	5680569.257867642
0.8990576294355432	6016191.862734521
0.8992823938429022	6238385.094390731
0.8995072144413631	6291854.054015485
0.8997320912449734	6345336.380880125
0.8999570242677847	6398832.078326468
0.9001820135238516	6452341.149697178
0.9004070590272328	6503807.675171358
0.9006321607919896	6544509.216643598
0.9008573188321878	6585220.933501248
0.9010825331618959	6625942.828288092
0.9013078037951865	6666674.90354864
0.9015331307461353	6707417.161827982
0.9017585140288219	6783611.319615159
0.9019839536573292	6862877.212628534
0.9022094496457435	6942162.922115105
0.9024350020081551	7021468.453029137
0.9026606107586572	7100793.810325873
0.902886275911347	7261273.138668542
0.9031119974803249	7460904.889640456
0.9033377754796951	7660586.548550117
0.903563609923565	7860318.127874414
0.903789500826046	8060099.640093678
0.9040154482012526	8143819.927404447
0.904241452063303	8077149.26189313
0.9044675124263188	8010461.928715449
0.9046936293044254	7943757.923704484
0.9049198027117517	7877037.242692233
0.9051460326624297	7841569.410108868
0.9053723191705955	7939245.637759393
0.9055986622503881	8036946.284466739
0.9058250619159507	8134671.356335766
0.9060515181814298	8232420.859472821
0.9062780310609752	8330194.799985592
0.9065046005687405	8121911.175859157
0.906731226718883	7896500.070530136
0.9069579095255627	7671032.612425078
0.907184649002944	7445508.787455475
0.907411445165195	7219928.581529401
0.9076382980264862	7373149.520320932
0.907865207600993	7683747.598936035
0.9080921739028933	7994423.327070701
0.9083191969463691	8305176.72413735
0.9085462767456058	8616007.809553418
0.9087734133147922	8773587.645802595
0.9090006066681211	8754110.031198977
0.909227856819788	8734627.547191733
0.9094551637839932	8715140.192563461
0.9096825275749393	8695647.966096537
0.9099099482068329	8702632.87401676
0.9101374256938848	8803737.041807044
0.9103649600503083	8904866.48563923
0.9105925512903209	9006021.211832352
0.9108201994281437	9107201.226707129
0.9110479044780008	9208406.53658551
0.9112756664541204	9317253.59500978
0.911503485370734	9426302.204332717
0.9117313612420768	9535378.075807987
0.9119592940823873	9644481.216251092
0.912187283905908	9753611.632479344
0.9124153307268845	9486525.750633452
0.9126434345595664	9082818.669558505
0.9128715954182063	8679010.66171367
0.9130998133170609	8275101.70186667
0.9133280882703902	7871091.7647797335
0.913556420292458	7725736.896115431
0.9137848093975312	7847204.645296578
0.9140132555998806	7968702.761415007
0.9142417589137806	8090231.252062471
0.9144703193535092	8211790.124832676
0.9146989369333476	8297721.862707477
0.9149276116675811	8276130.877241345
