#wavelength	surface flux
0.7	392586.00505205576
0.7001166666666666	393231.6544064325
0.7002333527777778	393780.4143927315
0.700350058336574	394329.2658390279
0.7004667833462966	394878.20876056456
0.7005835278101878	395427.24317258975
0.7007002917314895	395976.36909034936
0.7008170751134447	396525.5865290952
0.7009338779592968	397074.8955040805
0.7010507002722901	397529.0951971416
0.7011675420556689	397867.51750510617
0.701284403312678	398205.9962167882
0.7014012840465635	398544.5313415893
0.7015181842605713	398883.12288891117
0.701635103957948	399221.7708681573
0.701752043141941	399560.4752887333
0.701869001815798	399899.23616004654
0.7019859799827672	400326.83219048375
0.7021029776460976	400816.28446248814
0.7022199948090387	401305.81830987183
0.7023370314748403	401795.4337462299
0.7024540876467528	402285.1307851606
0.702571163328027	402774.90944026364
0.7026882585219152	403264.76972514385
0.7028053732316688	403754.71165340417
0.7029225074605406	404530.7328275756
0.7030396612117841	405417.3201238781
0.7031568344886527	406304.0551847301
0.7032740272944008	407190.9380347584
0.7033912396322832	408077.9686985955
0.7035084715055552	408965.1472008757
0.7036257229174727	409852.4735662399
0.7037429938712924	410739.94781933253
0.7038602843702709	411542.6628645377
0.7039775944176659	412331.1108266504
0.7040949240167356	413119.69019675715
0.7042122731707383	413908.40099675854
0.7043296418829335	414697.2432485603
0.7044470301565806	415486.21697407064
0.70456443799494	416275.32219520124
0.7046818654012724	417064.5589338692
0.7047993123788394	417724.33761768683
0.7049167789309024	418384.07755480683
0.7050342650607243	419043.92744858406
0.7051517707715678	419703.88731734327
0.7052692960666963	420363.9571794136
0.705386840949374	421024.1370531273
0.7055044054228656	421684.42695682106
0.7056219894904361	422316.0098846857
0.7057395931553511	422764.5689556349
0.705857216420877	423213.2027864296
0.7059748592902804	423661.9113895292
0.7060925217668288	424110.69477739645
0.70621020385379	424559.5529624949
0.7063279055544321	425008.48595729034
0.7064456268720246	425457.49377425225
0.7065633678098366	425939.2909180019
0.7066811283711383	426511.2646725629
0.7067989085592001	427083.333756083
0.7069167083772933	427655.4981844499
0.7070345278286895	428227.7579735553
0.707152366916661	428800.11313929234
0.7072702256444803	429372.5636975563
0.7073881040154211	429945.10966424743
0.7075060020327569	430588.1180746701
0.7076239196997625	431333.71247643867
0.7077418570197124	432079.4311439402
0.7078598139958823	432825.2740978862
0.7079777906315483	433571.241358992
0.7080957869299869	434317.33294797404
0.7082138028944751	435063.54888555384
0.7083318385282908	435809.88919245714
0.7084498938347124	436312.55597467447
0.708567968817018	436608.60968101554
0.7086860634784875	436904.71272964135
0.7088041778224007	437200.8651287755
0.7089223118520377	437497.0668866424
0.7090404655706796	437793.3180114688
0.709158638981608	438089.6185114831
0.709276832088105	438385.968394914
0.7093950448934531	439026.09869989095
0.7095132774009353	439830.26472958754
0.7096315296138355	440634.56478695606
0.7097498015354378	441438.9988943339
0.7098680931690269	442243.56707406224
0.7099864045178884	443048.2693484882
0.7101047355853081	443853.10573995975
0.7102230863745722	444658.0762708293
0.7103414568889679	445422.35152964114
0.7104598471317828	446177.47675835964
0.7105782571063047	446932.7278412824
0.7106966868158224	447688.1047993856
0.710815136263625	448443.60765364836
0.7109336054530023	449199.2364250539
0.7110520943872445	449954.9911345878
0.7111706030696424	450710.8718032404
0.7112891315034873	451292.0940146462
0.7114076796920712	451865.0736275419
0.7115262476386865	452438.1487370397
0.7116448353466263	453011.3193590554
0.711763442819184	453584.5855095084
0.711882070059654	454157.9472043203
0.7120007170713306	454731.40445941425
0.7121193838575091	455307.5479804486
0.7122380704214853	455910.8077561576
0.7123567767665555	456514.1680751619
0.7124755028960166	457117.6289542197
0.7125942488131658	457721.1904100902
0.7127130145213015	458324.8524595384
0.7128318000237216	458928.6151193262
0.7129506053237256	459532.4784062249
0.7130694304246129	460130.49215933465
0.7131882753296837	460707.8016641322
0.7133071400422386	461285.20738718077
0.7134260245655789	461862.70934451604
0.7135449289030065	462440.30755217775
0.7136638530578235	463018.00202620705
0.7137827970333332	463595.7927826496
0.7139017608328388	464173.6798375514
0.7140207444596443	464748.19472235057
0.7141397479170543	465316.6179273263
0.7142587712083737	465885.1358695021
0.7143778143369084	466453.74856466864
0.7144968773059646	467022.45602861786
0.7146159601188489	467591.2582771442
0.7147350627788687	468160.1553260454
0.7148541852893318	468729.1471911211
0.7149733276535467	469158.855751301
0.7150924898748222	469448.0901316315
0.715211671956468	469737.3727176922
0.7153308739017941	470026.7035175175
0.715450095714111	470316.0825391425
0.71556933739673	470605.5097906046
0.7156885989529628	470894.9852799418
0.7158078803861218	471184.50901519443
0.7159271816995193	470968.1355212093
0.7160465028964692	470454.76753150055
0.7161658439802853	469941.31398046017
0.7162852049542819	469427.774853828
0.7164045858217744	468914.1501373412
0.716523986586078	468400.4398167351
0.7166434072505089	467886.6438777425
0.716762847818384	467372.76230609324
0.7168823082930204	467481.6145796615
0.7170017886777359	467773.7158393962
0.7171212889758488	468065.86578267394
0.7172408091906781	468358.06441760896
0.7173603493255433	468650.3117523166
0.7174799093837642	468942.6077949132
0.7175994893686615	469234.952553517
0.7177190892835562	469527.3460362471
0.7178387091317702	471438.7584301524
0.7179583489166254	473513.0062695785
0.7180780086414448	475587.5998169795
0.7181976883095517	477662.5391299716
0.7183173879242699	479737.8242661828
0.718437107488924	481813.4552832505
0.7185568470068389	483889.4322388218
0.7186766064813399	485903.10758108983
0.7187963859157535	486350.79023573635
0.7189161853134061	486798.5475041586
0.719036004677625	487246.3793987922
0.7191558440117378	487694.28593207477
0.7192757033190732	488142.2671164468
0.7193955826029597	488590.322964349
0.7195154818667269	489038.4534882262
0.7196354011137046	489433.1494646719
0.7197553403472235	489581.54513710045
0.7198752995706147	489729.965542141
0.7199952787872098	489878.41068391583
0.720115278000341	490026.8805665477
0.7202352972133411	490175.3751941599
0.7203553364295432	490323.89457087655
0.7204753956522815	490472.4387008228
0.7205954748848902	490884.2435851972
0.7207155741307044	491876.4540939732
0.7208356933930594	492868.8299711657
0.7209558326752915	493861.3712443379
0.7210759919807375	494854.0779410569
0.7211961713127342	495846.95008889085
0.7213163706746197	496839.9877154176
0.7214365900697322	497833.19084821444
0.7215568295014103	498378.7856088791
0.721677088972994	498390.2015988423
0.7217973684878227	498401.61949147045
0.7219176680492374	498413.03928708076
0.7220379876605789	498424.46098599024
0.722158327325189	498435.88458851626
0.7222786870464099	498447.31009497604
0.7223990668275843	498458.73750568694
0.7225194666720555	498837.8348719122
0.7226398865831676	499477.57097326766
0.7227603265642646	500117.4136973052
0.722880786618692	500757.36306179804
0.7230012667497951	501397.4190845179
0.7231217669609201	502037.58178324165
0.7232422872554135	502677.8511757479
0.7233628276366229	503318.22727982077
0.7234833881078956	504288.8594647618
0.7236039686725803	505384.99838945124
0.7237245693340255	506481.3200039597
0.7238451900955812	507577.8243387393
0.7239658309605971	508674.51142424
0.7240864919324239	509771.38129092316
0.7242071730144127	510868.43396925076
0.724327874209915	511965.6694896892
0.7244485955222832	511243.3327108056
0.7245693369548704	510219.994398973
0.7246900985110294	509196.4855307566
0.7248108801941148	508172.80607772607
0.7249316820074803	507148.95601145684
0.7250525039544815	506124.9353035082
0.7251733460384739	505100.7439254414
0.7252942082628137	504080.561027851
0.7254150906308574	505481.75680161524
0.7255359931459625	506883.1861080086
0.7256569158114868	508284.84898595343
0.7257778586307888	509686.7454743786
0.7258988216072273	511088.8756122181
0.7260198047441617	512491.23943841236
0.7261408080449525	513893.83699191344
0.72626183151296	515208.48500764987
0.7263828751515454	515937.32348049036
0.7265039389640706	516666.2834264096
0.726625022953898	517395.3648656535
0.7267461271243904	518124.567818471
0.7268672514789111	518853.8923051135
0.7269883960208241	519583.3383458365
0.7271095607534942	520312.9059609
0.7272307456802866	520990.06648818805
0.7273519508045666	521525.44722544693
0.7274731761297006	522060.9171928285
0.7275944216590555	522596.47640520456
0.7277156873959987	523132.1248774496
0.7278369733438982	523667.8626244408
0.727958279506122	524203.68966105516
0.7280796058860397	524739.6060021762
0.7282009524870207	524945.4093180984
0.7283223193124353	524662.840895637
0.7284437063656539	524380.2253784391
0.7285651136500483	524097.5627586545
0.7286865411689898	523814.85302843375
0.7288079889258514	523532.09617992403
0.7289294569240056	523249.2922052735
0.7290509451668262	522966.4410966269
0.7291724536576875	522914.040478382
0.7292939823999636	523052.6232275689
0.7294155313970303	523191.22907388094
0.7295371006522632	523329.8580211673
0.7296586901690385	523468.5100732781
0.7297802999507332	523607.1852340642
0.7299019300007252	523745.88350737747
0.7300235803223919	523884.6048970692
0.7301452509191123	524580.5188760055
0.7302669417942654	525533.7212455787
0.7303886529512311	526487.0824822137
0.7305103843933897	527440.6026123886
0.7306321361241218	528394.2816625842
0.7307539081468093	529348.11965929
0.7308757004648336	530302.1166289932
0.7309975130815778	531256.2725981924
0.7311193460004248	532618.9801179752
0.7312411992247582	534074.3696096904
0.7313630727579622	535530.0016663205
0.7314849666034219	536985.8763282949
0.7316068807645224	538441.9936360454
0.7317288152446498	539898.3536300146
0.7318507700471907	541354.95635065
0.7319727451755319	542811.8018384052
0.732094740633061	543007.6916077274
0.7322167564231665	543146.8344682817
0.7323387925492371	543286.0005193129
0.7324608490146619	543425.1897646858
0.732582925822831	543564.4022082663
0.7327050229771347	543703.6378539206
0.7328271404809642	543842.896705516
0.7329492783377112	543964.6566553663
0.7330714365507675	543914.1759982287
0.7331936151235259	543863.6869276484
0.7333158140593796	543813.1894422229
0.7334380333617229	543762.6835405498
0.7335602730339499	543712.1692212265
0.7336825330794556	543661.6464828498
0.7338048135016354	543611.115324017
0.7339271143038857	543871.6271493424
0.734049435489603	545174.4178927317
0.7341717770621846	546477.4257679118
0.7342941390250283	547780.6508110705
0.7344165213815324	549084.0930584024
0.734538924135096	550387.7525461109
0.7346613472891185	551691.6293103988
0.734783790847	552995.7233874814
0.7349062548121412	553686.9673752453
0.7350287391879431	553294.70483496
0.7351512439778078	552902.3769175839
0.7352737691851374	552509.9836122219
0.735396314813335	552117.5249079755
0.7355188808658037	551725.0007939455
0.7356414673459482	551332.4112592292
0.7357640742571725	550939.756292924
0.7358867016028818	550926.4351250377
0.7360093493864824	551287.8027017147
0.7361320176113801	551649.2305063206
0.736254706280982	552010.7185488939
0.7363774153986956	552372.2668394749
0.7365001449679286	552733.8753881035
0.7366228949920899	553095.5442048238
0.7367456654745885	553457.2732996803
0.7368684564188344	553980.8806328588
0.7369912678282374	554596.0313291192
0.7371140997062088	555211.2845504959
0.7372369520561599	555826.6403140768
0.7373598248815024	556442.0986369502
0.7374827181856494	557057.6595362118
0.7376056319720137	557673.3230289567
0.7377285662440091	558289.0891322837
0.7378515210050496	558704.7348188306
0.7379744962585505	559060.2087566624
0.738097492007927	559415.7419401504
0.7382205082565949	559771.3343791687
0.738343545007971	560126.9860835935
0.7384666022654723	560482.6970633027
0.7385896800325165	560838.4673281746
0.7387127783125219	561194.2968880911
0.7388358971089073	561616.1222801262
0.7389590364250921	562044.6315737294
0.7390821962644963	562473.2122855487
0.7392053766305403	562901.8644274859
0.7393285775266454	563330.588011447
0.7394517989562333	563759.3830493393
0.7395750409227259	564188.2495530704
0.7396983034295463	564600.2914350535
0.739821586480118	564636.5356830845
0.7399448900778645	564672.7859718234
0.7400682142262109	564709.0423022773
0.740191558928582	564745.3046754529
0.7403149241884034	564781.5730923573
0.7404383100091014	564817.8475539978
0.7405617163941028	564854.1280613819
0.7406851433468352	564792.9094061279
0.7408085908707264	564285.6176639226
0.7409320589692048	563778.2413730939
0.7410555476456997	563270.7805195497
0.7411790569036406	562763.2350891969
0.7413025867464579	562255.6050679389
0.7414261371775823	561747.8904416773
0.7415497082004452	561240.0911963116
0.7416732998184786	560759.3764073447
0.741796912035115	560336.8645456438
0.7419205448537874	559914.2822652992
0.7420441982779297	559491.6295545747
0.742167872310976	559068.9064017314
0.7422915669563612	558646.1127950293
0.7424152822175206	558223.2487227261
0.7425390180978901	557800.3141730778
0.7426627746009065	557682.7117755694
0.7427865517300065	557937.3974666733
0.7429103494886282	558192.1256053926
0.7430341678802096	558446.8961988017
0.7431580069081896	558701.7092539762
0.7432818665760077	558956.5647779936
0.7434057468871037	559211.4627779315
0.7435296478449182	559466.4032608692
0.7436535694528923	559452.0634756144
0.7437775117144678	559253.3616113943
0.7439014746330868	559054.6266301972
0.7440254582121922	558855.858526503
0.7441494624552276	558657.0572947913
0.7442734873656368	558458.2229295411
0.7443975329468645	558259.35542523
0.7445215992023557	558060.4547763348
0.7446456861355559	557595.3269862246
0.7447697937499119	557032.0628764642
0.7448939220488703	556468.7048893522
0.7450180710358784	555905.2530092429
0.7451422407143843	555341.707220487
0.7452664310878367	554778.0675074322
0.7453906421596846	554214.3338544259
0.7455148739333779	553650.5062458107
0.7456391264123667	552922.4460145028
0.7457633996001021	552168.0195770884
0.7458876935000356	551413.4674019332
0.7460120081156189	550658.7894680835
0.7461363434503048	549903.9857545779
0.7462606995075466	549149.0562404527
0.7463850762907978	548394.0009047429
0.7465094738035127	547638.4846932718
0.7466338920491467	546795.1997395947
0.746758331031155	545951.7742384246
0.7468827907529935	545108.2081663387
0.7470072712181189	544264.5014999073
0.7471317724299886	543420.6542156981
0.7472562943920602	542576.6662902754
0.7473808371077922	541732.5377001978
0.7475054005806435	540859.9478796136
0.7476299848140736	539812.7691927677
0.7477545898115426	538765.4159761404
0.7478792155765113	537717.8882006435
0.7480038621124406	536670.1858371847
0.7481285294227926	535622.3088566656
0.7482532175110298	534574.2572299821
0.7483779263806148	533526.0309280287
0.7485026560350116	532407.1123402242
0.7486274064776842	531097.1540726721
0.748752177712097	529786.9774787445
0.7488769697417158	528476.5825220483
0.749001782570006	527165.9691661943
0.7491266162004343	525855.1373747813
0.7492514706364677	524544.0871114027
0.7493763458815739	523232.8183396453
0.7495012419392209	521774.2204414092
0.7496261588128773	520103.8904512424
0.7497510965060128	518433.2820727427
0.7498760550220971	516762.3952595139
0.7500010343646007	515091.2299651493
0.7501260345369949	513419.7861432348
0.750251055542751	511748.0637473519
0.7503760973853414	510076.06273106864
0.7505011600682389	508207.6064956873
0.750626243594917	506175.0359155737
0.7507513479688495	504142.1265736999
0.7508764731935109	502108.8784136017
0.7510016192723765	500075.29137880966
0.7511267862089218	498041.365412847
0.7512519740066232	496007.1004592227
0.7513771826689577	493972.49646143825
0.7515024121994025	491698.48899229843
0.7516276626014359	489312.6372776134
0.751752933878536	486926.38792098005
0.7518782260341824	484539.7408561198
0.7520035390718548	482152.6960167477
0.7521288729950334	479765.2533365702
0.7522542278071992	477377.41274927923
0.7523796035118337	474989.17418855586
0.7525050001124189	472234.424078616
0.7526304176124378	469399.59334325907
0.7527558560153731	466564.2901361165
0.752881315324709	463728.51437843667
0.7530067955439299	460892.2659914629
0.7531322966765205	458055.54489642836
0.7532578187259665	455218.35101454385
0.7533833616957542	452380.6842670124
0.75350892558937	449120.3288992657
0.7536345104103016	445839.57635117375
0.7537601161620366	442558.27701099217
0.7538857428480638	439276.43078758405
0.7540113904718717	435994.03758980957
0.7541370590369503	432711.0973265029
0.7542627485467898	429427.60990648356
0.7543884590048808	426101.81528846815
0.7545141904147151	422359.0314170825
0.7546399427797842	418615.62374839094
0.7547657161035808	414871.5921784207
0.754891510389598	411126.936603189
0.7550173256413296	407381.6569186933
0.7551431618622698	403635.75302091765
0.7552690190559135	399889.2248058266
0.7553948972257561	396009.77424101124
0.7555207963752938	391685.6027634123
0.755646716508023	387360.71059056954
0.755772657627441	383035.0976023631
0.7558986197370455	378708.763678658
0.756024602840335	374381.70869930007
0.7561506069408084	370053.9325441123
0.7562766320419653	365725.43509289477
0.7564026781473054	361140.311060755
0.75652874526033	356104.09802486363
0.7566548333845401	351067.0456201304
0.7567809425234375	346029.1537066648
0.7569070726805247	340990.42214454984
0.7570332238593047	335950.8507938419
0.7571593960632813	330910.43951457064
0.7572855892959586	325869.1881667526
0.7574118035608413	320705.69318541855
0.7575380388614347	315422.56468890497
0.7576642952012449	310138.55567097326
0.7577905725837782	304853.6659848796
0.7579168710125422	299567.89548382873
0.7580431904910444	294281.2440210258
0.7581695310227928	288993.7114496524
0.7582958926112967	283705.29762284376
0.7584222752600652	278123.06473297905
0.7585486789726085	272371.61996459047
0.7586751037524372	266619.21662207163
0.7588015496030628	260865.85454565118
0.7589280165279966	255111.53357556267
0.7590545045307512	249356.25355197914
0.7591810136148396	243600.0143150585
0.7593075437837755	237842.8157049232
0.7594340950410726	231903.13289800676
0.7595606673902461	225909.79320032816
0.7596872608348112	219915.45461269392
0.7598138753782836	213920.11696863506
0.75994051102418	207923.7801016299
0.7600671677760173	201926.44384515157
0.7601938456373134	195928.10803262593
0.7603205446115863	189928.77249746822
0.7604472647023548	183848.56700889423
0.7605740059131385	177759.40907789936
0.7607007682474575	171669.23628724337
0.7608275517088319	165578.0484678025
0.7609543563007835	159485.84545037817
0.7610811820268336	153392.62706578794
0.7612080288905045	147298.39314481197
0.7613348968953197	141204.64814040659
0.7614617860448022	135140.7590379377
0.7615886963424764	129075.85928727682
0.7617156277918667	123009.94871999668
0.7618425803964988	116943.02716761701
0.7619695541598982	110875.09446164688
0.7620965490855914	104806.15043356357
0.7622235651771058	98736.19491480189
0.7623506024379685	92855.64999620122
0.7624776608717082	87808.76653602126
0.7626047404818536	82761.04192859771
0.7627318412719337	77712.47603374826
0.762858963245479	72663.06871124648
0.7629861064060198	67612.81982085718
0.7631132707570876	62561.72922231424
0.7632404563022137	57509.79677534274
0.7633676630449308	52845.12178627477
0.7634948909887717	49005.804216720004
0.7636221401372697	45165.84676090864
0.7637494104939593	41325.24931218436
0.7638767020623748	37484.01176389083
0.7640040148460518	33642.13400933487
0.7641313488485262	29799.615941819964
0.7642587040733344	25956.45745462278
0.7643860805240132	22815.772798580656
0.7645134782041005	20513.590896747686
0.7646408971171346	18211.02529793012
0.764768337266654	15908.075938180258
0.7648957986561985	13604.742753536362
0.7650232812893079	11301.025680028664
0.7651507851695227	8996.92465367536
0.7652783103003843	6692.439610484613
0.7654058566854343	5381.521174877714
0.7655334243282153	4747.787636080587
