#wavelength	surface flux
0.428837	187.11719614471767
0.43312537	367.7208875398701
0.43745662370000005	435.30615375994483
0.4418311899370001	514.5667915850039
0.44624950183637	606.9534459384006
0.4507119968547338	713.5041360431036
0.45521911682328114	835.859717010433
0.4597713079915139	982.375024568356
0.4643690210714291	1149.0904563388992
0.4690127112821433	1340.1965384162863
0.47370283839496474	1559.9835096111053
0.47843986677891437	1808.5058420878736
0.48322426544670355	2094.3758054338423
0.48805650810117057	2422.184474084468
0.4929370731821824	2789.2489009654
0.49786644391400414	3198.9380194803857
0.5028451083531442	3653.2152081133645
0.5078735594366757	4147.820350195512
0.5129522950310424	4653.113333016539
0.5180818179813528	5163.789113660385
0.5232626361611664	5913.501623497917
0.5284952625227781	6553.778695303023
0.5337802151480058	7145.669769677645
0.5391180172994858	7652.977452627206
0.5445091974724807	7980.7338801008145
0.5499542894472055	8011.760192287631
0.5554538323416777	7577.838443354032
0.5610083706650945	6519.994460791236
0.5666184543717453	4781.717487924594
0.5722846389154628	2681.6967052655446
0.5780074853046174	929.8517008492139
0.5837875601576636	133.02560925144027
0.5896254357592402	5.459463680111606
0.5955216901168326	262.14638393299396
0.6014769070180009	1818.1068811387636
0.607491676088181	5749.206436449828
0.6135665928490629	12040.379546387972
0.6197022587775535	20017.03061394143
0.625899281365329	29057.893820323163
0.6321582741789823	38787.6255392975
0.6384798569207721	49085.78097945524
0.6448646554899798	59725.93105711442
0.6513133020448797	71230.2702722731
0.6578264350653285	82995.09482420741
0.6644046994159818	95808.39528227113
0.6710487464101416	89654.62123324136
0.677759233874243	124153.49997590222
0.6845368262129854	139821.20225433144
0.6913821944751153	153487.07600791877
0.6982960164198664	172098.45367646153
0.7052789765840651	189465.7884382341
0.7123317663499058	206726.5871249942
0.7194550840134049	217710.66184412144
0.7266496348535388	226843.41529349715
0.7339161312020743	235918.87445868147
0.741255292514095	231901.89053720227
0.748667845439236	197155.24843118954
0.7561545238936284	109682.35445626611
0.7637160691325647	11942.698498179805
0.7713532298238903	9143.781836671731
0.7790667621221293	118876.39412527632
0.7868574297433505	306953.27449681115
0.7947260040407841	260368.8627268023
0.8026732640811919	542290.3840455163
0.8106999967220039	606551.135591177
0.8188069966892239	701934.5492914171
0.8269950666561161	779544.265687556
0.8352650173226772	845287.9868525403
0.8436176674959041	949312.9409687163
0.852053844170863	1023643.0954008773
0.8605743826125718	1135036.2317426612
0.8691801264386976	1227605.7488363944
0.8778719277030844	1312669.9348913888
0.8866506469801153	1368189.8397363913
0.8955171534499164	1356658.5900572687
0.9044723249844157	1607450.8841182687
0.9135170482342599	1707885.6914760664
0.9226522187166025	1782929.1696923664
0.9318787409037684	1165570.9678819876
0.941197528312806	1570447.2925844349
0.9506095035959342	1472783.206961657
0.9601155986318936	1472143.2746722596
0.9697167546182125	1709134.321228609
0.9794139221643946	2259332.785828633
0.9892080613860387	2612259.061267107
0.9991001419998989	2936068.2483618907
1.0090911434198981	3190321.9393619164
1.019182054854097	3468836.8913973332
1.0293738754026378	3544676.6033572997
1.0396676141566643	3908937.07786711
1.050064290298231	4087845.051054683
1.0605649332012133	4346463.045803642
1.0711705825332256	4526790.619254632
1.0818822883585577	4771539.020751992
1.0927011112421434	4702271.063552966
1.1036281223545648	2735378.7891569375
1.1146644035781104	2327024.9652149943
1.1258110476138916	2404315.630903936
1.1370691580900303	2714094.707784165
1.1484398496709307	3345943.6805315097
1.1599242481676402	1650453.790824187
1.1715234906493166	3271904.272554503
1.1832387255558097	5696624.222056054
1.1950711128113678	6807750.420875362
1.2070218239394814	7341631.030042433
1.2190920421788762	7916375.671094763
1.2312829626006652	8410986.683383593
1.2435957922266716	8840834.655753976
1.2560317501489384	9185607.87245031
1.2685920676504279	9389553.795155637
1.281277988326932	9537717.52541487
1.2940907682102014	9230479.82786885
1.3070316758923035	8938078.645719033
1.3201019926512265	9362110.063152634
1.3333030125777388	3447888.051706372
1.3466360427035162	584268.6234109309
1.3601024031305513	157109.69706210287
1.373703427161857	858494.0206041099
1.3874404614334754	101473.91612298372
1.4013148660478103	406281.255374779
1.4153280147082883	300850.1715289604
1.4294812948553712	474426.1033005548
1.443776107803925	1055328.94577504
1.4582138688819641	3266125.553210221
1.4727960075707838	2932019.8724894472
1.4875239676464918	5554542.837988609
1.5023992073229566	6714648.958538897
1.5174231993961862	8994837.03461998
1.532597431390148	11617785.310429532
1.5479234057040496	13439148.989175005
1.5634026397610903	14476351.308092045
1.579036666158701	13713773.306073738
1.594827032820288	15559110.64910977
1.610775303148491	14470190.598186288
1.6268830561799759	10755384.786771873
1.6431518867417756	14394346.286559094
1.6595834056091934	13180512.49726002
1.6761792396652853	11304065.420492038
1.6929410320619382	8022966.235028192
1.7098704423825577	8395215.539317587
1.7269691468063835	10516074.394984987
1.744238838274447	7911633.5955947675
1.7616812266571917	8327264.427947739
1.7792980389237634	1411938.0652550294
1.7970910193130012	2482011.2648153775
1.815061929506131	676187.9618779173
1.8332125488011928	432411.7242970518
1.8515446742892046	1001398.2744000691
1.8700601210320964	440385.06647651724
1.8887607222424174	2502370.076768604
1.9076483294648416	257794.77299139538
1.92672481275949	281277.6628561309
1.9459920608870853	935989.8803768788
1.9654519814959561	1268723.262585524
1.9851065013109155	4094485.79136257
2.0049575663240247	6020199.554103676
2.025007141987265	9331297.196681041
2.0452572134071376	15682929.283027077
2.065709785541209	18147795.718212858
2.086366883396621	18656695.586778723
2.107230552230587	17488291.52628463
2.1283028577528933	16257795.109447805
2.1495858863304225	12554937.832251327
2.1710817451937263	11084602.203482172
2.1927925626456637	5659884.143547239
2.2147204882721203	2565058.753810387
2.2368676931548412	1072862.352085846
2.25923637008639	1021962.9155129412
2.281828733787254	838987.3431116727
2.3046470211251266	1354989.3172301278
2.327693491336378	541296.6074291721
2.3509704262497415	517653.12753227964
2.374480130512239	406610.2119280047
2.3982249318173614	764759.945311737
2.4222071811355352	1590841.6414668907
2.4464292529468903	1662341.0424697404
2.4708935454763594	1196799.3275427925
2.4956024809311232	557701.8362273107
2.5205585057404343	204532.22677982753
2.5457640907978387	430680.56935758604
2.5712217317058172	125363.24450744859
2.5969339490228753	81220.48203954494
2.622903288513104	330811.188031232
2.6491323213982354	562404.0349784672
2.6756236446122177	35630.90284412358
2.7023798810583397	240232.1130699608
2.729403679868923	805574.8459781288
2.7566977166676123	240436.36933471254
2.7842646938342885	185637.80793055022
2.812107340772631	246097.38004686026
2.8402284141803578	637119.9674816949
2.8686306983221614	385236.59951719496
2.897317005305383	556921.5817930473
2.926290175358437	1445089.5223152686
2.9555530771120213	1729041.9815741342
2.9851086078831415	1828821.9727592238
3.014959693961973	2203438.708435841
3.0451092909015927	1785012.7356992431
3.0755603838106085	2037972.9090888673
3.1063159876487147	1255218.201287208
3.137379147525202	835596.133028882
3.168752939000454	539223.5346970834
3.200440468390459	400937.2218614237
3.232444873074363	255138.6901755235
3.264769321805107	798560.8679083887
3.297417015023158	808847.0903595914
3.330391185173389	133636.3113294807
3.3636950970251234	605064.7246759806
3.397332047995375	479560.031813225
3.4313053684753285	347520.44207323465
3.465618422160081	420473.71376665035
3.5002746063816828	665069.511708606
3.5352773524454997	871775.8371927285
3.570630125969955	1261136.4762808108
3.606336427229654	1719625.1710703804
3.6423997915019504	2466919.486968861
3.67882378941697	3369764.4403460138
3.7156120273111397	3703896.2642050227
3.7527681475842516	4762126.35650357
3.7902958290600934	4786876.75060642
3.8281987873506953	6596987.698787503
3.8664807752242023	6671901.490998711
3.905145582976444	7026413.425958796
3.9441970388062084	8047436.994574193
3.983639009194271	8291164.685212176
4.023475399286213	8931493.686254254
4.063710153279075	9198704.693756262
4.1043472548118665	9028434.993078312
4.145390727359985	8561318.667380413
4.186844634633585	8140539.239617527
4.2287130809799205	7305119.85423642
4.27100021178972	6736899.91045404
4.313710213907617	6697014.964748695
4.356847316046694	5706309.550772792
4.40041578920716	5072717.067045743
4.444419947099232	4522942.377023183
4.488864146570225	4228666.007045691
4.533752788035927	3808422.946544397
4.579090315916286	3977776.8258412564
4.624881219075449	3689928.4417533358
4.671130031266204	3702413.7122468934
4.717841331578866	3298286.963980116
4.765019744894654	3540095.876691217
4.812669942343601	3337836.238421462
4.8607966417670365	3526961.5914032175
4.9094046081847065	3149867.4783720323
4.958498654266554	1729347.8792260145
5.008083640809219	2220497.921418939
5.058164477217312	3009401.287390374
5.108746121989485	2298368.5036515603
5.15983358320938	1494492.8293176673
5.211431919041474	1045871.5542135334
5.263546238231889	1454024.6573265002
5.316181700614208	1861578.3223023154
5.36934351762035	850731.9093389758
5.423036952796553	585528.7419159891
5.4772673223245185	631411.7367066012
5.532039995547764	735583.6068394647
5.587360395503242	492967.87119809317
5.643233999458275	372471.37805754907
5.6996663394528575	357118.5900161251
5.756663002847385	334132.1554978843
5.814229632875859	421606.98618715035
5.872371929204618	275482.3572945299
5.931095648496664	360104.9962621577
5.990406604981631	484644.29989664676
6.050310671031448	398365.2506593018
6.110813777741763	447777.757690393
6.17192191551918	415047.87064175005
6.233641134674372	1242673.466062341
6.295977546021115	1379942.068644367
6.358937321481327	788092.5054931738
6.42252669469614	224911.61153850664
6.486751961643101	194756.73238479777
6.551619481259532	249317.1592297582
6.617135676072128	216186.26063403097
6.683307032832849	393267.2736815674
6.750140103161177	494715.3520378764
6.81764150419279	491153.39335989626
6.885817919234718	329564.4289831394
6.954676098427065	505826.91605487553
7.024222859411336	280550.8475632279
7.094465088005449	466995.66473264
7.165409738885503	300987.18834248994
7.237063836274358	336990.2226525563
7.309434474637103	268129.11159034725
7.382528819383473	223936.38913046426
7.456354107577308	216933.9511128329
7.530917648653081	306589.64341480646
7.606226825139612	341308.0359445313
7.682289093391009	164773.827161199
7.759111984324918	267588.33100600727
7.836703104168168	285441.63128151494
7.91507013520985	268125.49474644015
7.994220836561947	321874.0957953353
8.074163044927568	329033.21193208173
8.154904675376844	363830.7049274453
8.23645372213061	426113.388002717
8.318818259351918	478287.0978751132
8.402006441945437	501860.78690633154
8.486026506364892	613316.4679384215
8.57088677142854	675761.4146387362
8.656595639142825	745365.5008659518
8.743161595534254	818180.1843365922
8.830593211489598	892686.8471377927
8.918899143604493	854107.6212830032
9.00808813504054	897090.1690342382
9.098169016390944	984369.2917454407
9.189150706554853	1022817.9023545826
9.281042213620402	963633.0111317729
9.373852635756606	792557.4552852911
9.467591162114172	1008254.2191388278
9.562267073735315	1123298.954227397
9.657889744472667	882796.0233638207
9.754468641917395	1063599.7855079498
9.852013328336568	821531.1701959573
9.950533461619933	1049397.092937745
10.050038796236134	955408.1993550756
10.150539184198495	1013792.7582204993
10.252044576040479	861995.442661267
10.354565021800884	557082.8280646305
10.458110672018893	651617.5783555228
10.562691778739081	763698.7898123162
10.668318696526473	701092.5471682934
10.775001883491738	657962.2746400042
10.882751902326655	641420.6512377892
10.991579421349924	472574.3344072165
11.101495215563421	680862.8436041604
11.212510167719055	540984.8452313978
11.324635269396246	573257.1648770433
11.43788162209021	635587.6532281713
11.552260438311112	403935.2420106325
11.667783042694223	451098.19470464677
11.784460873121166	429486.64807836944
11.902305481852377	489150.2141740675
12.0213285366709	499953.7135085473
12.14154182203761	535320.635182024
12.262957240257986	376074.4523527446
12.385586812660566	303659.92654374294
12.509442680787172	302051.7722091979
12.634537107595044	375787.60505595215
12.760882478670995	348912.86749840056
12.888491303457704	324521.0806497996
13.01737621649228	271772.69603840413
13.147549978657205	295165.39477075887
13.279025478443776	212166.58694384602
13.411815733228213	204972.87571641387
13.545933890560496	270209.0557149658
13.681393229466101	223699.1009818122
13.818207161760762	229406.5284824207
13.956389233378369	223990.06259659387
14.095953125712155	235774.8283157568
14.236912656969274	205788.09785724367
14.379281783538968	148101.15774226424
14.523074601374358	140470.1403056797
14.6683053473881	191851.07628163736
14.814988400861985	172627.53534462408
14.963138284870602	152383.3775016559
15.11276966771931	169437.01199705465
15.263897364396504	189609.71450604365
15.41653633804047	145545.7863489974
15.570701701420873	103707.14208872317
15.726408718435081	90813.40134483593
15.883672805619431	173830.68798340362
16.042509533675627	116708.83452276335
16.202934629012383	108009.44055816866
16.36496397530251	105972.84552855916
16.528613615055534	98952.09414048097
16.69389975120609	82988.90055297094
16.86083874871815	76905.24197821689
17.02944713620533	99582.36239699485
17.199741607567383	69104.12001934144
17.37173902364306	62931.99816579122
17.54545641387949	68283.24439689355
17.720910978018285	68109.59097667749
17.898120087798468	64120.99590971313
18.077101288676452	68182.6264667352
18.257872301563214	57935.86930442469
18.44045102457885	61834.504011952864
18.62485553482464	52665.23029366263
18.811104090172883	84425.647675338
18.999215131074614	45199.179392204525
19.189207282385357	47249.85215578797
19.381099355209216	37527.5821983073
19.574910348761303	40072.91062061003
19.77065945224892	42076.7365679878
19.968366046771408	54305.163864762166
20.16804970723912	46604.16145252856
20.369730204311512	36825.901465367606
20.573427506354626	31757.037253890652
20.779161781418175	38512.82562164857
20.98695339923236	29242.107754980727
21.19682293322468	28070.79597663764
21.408791162556927	38575.96368156731
21.622879074182496	26763.343849543166
21.839107864924323	23054.30443623414
22.057498943573567	24565.563978957787
22.278073933009303	28343.83293843664
22.500854672339393	20557.698188682367
22.72586321906279	39197.418678663445
22.953121851253417	19481.57652385905
23.18265306976595	33208.40320741345
23.41447960046361	27071.581728465833
23.648624396468247	16486.281804358714
23.88511064043293	14830.046006638764
24.12396174683726	30608.0090360599
24.365201364305634	28007.492952296903
24.608853377948687	26275.198839204088
24.854941911728176	21022.370562315373
25.103491330845458	11883.491006441209
25.354526244153913	12190.181402069578
25.608071506595454	21233.33931501114
25.864152221661406	16448.593727714597
26.122793743878024	16156.305690755564
26.384021681316803	17890.432496731148
26.64786189812997	9298.578626909442
26.91434051711127	13911.585898926582
27.18348392228238	16408.23326459084
27.455318761505207	20422.998351259183
27.72987194912026	15646.046497624548
28.007170668611465	8868.74917742383
28.28724237529758	7660.797947265263
28.57011479905055	7668.485186584492
28.855815947041062	11937.411107657857
29.144374106511474	8369.578212045843
29.435817847576587	9949.753946978479
29.730176026052348	8256.292127631226
30.027477786312875	10524.501537210066
30.327752564176006	6849.476048511817
30.631030089817763	7597.10606679783
30.93734039071594	6708.550199740984
31.246713794623105	8458.450955788405
31.559180932569333	9792.927200922879
31.874772741895026	7052.002089129736
32.19352046931398	9047.504961455526
32.51545567400712	8565.480499885292
32.84061023074719	4504.232760273546
33.169016333054664	4995.0772649882365
33.500706496385206	5363.991289895419
33.83571356134906	8838.604304681794
34.17407069696255	5518.512835017145
34.51581140393218	4132.703842998899
34.8609695179715	4916.47253451184
35.209579213151216	4199.258476873715
35.56167500528272	3418.930451357348
35.917291755335555	3173.927082799321
36.27646467288891	4439.633514263503
36.639229319617804	4279.236101176537
37.005621612813975	5990.9507210087195
37.37567782894212	3310.537499946278
37.74943460723154	3893.7439667427147
38.12692895330385	5445.341457295479
38.5081982428369	4913.1606061306475
38.893280225265265	2966.0127121624014
39.28221302751791	2255.754737158381
39.6750351577931	3741.7311450600987
40.071785509371026	2296.5344485550236
40.47250336446474	2287.85443653237
40.87722839810939	2339.1145837486033
41.28600068209048	3737.3466861702377
41.69886068891139	3716.3595191104146
42.1158492958005	2843.889525790847
42.53700778875851	2771.4172921100144
42.962377866646094	1995.043829012413
43.392001645312554	1878.156804920476
43.825921661765676	1598.7790988938693
44.264180878383335	1667.0242631478425
44.70682268716717	1655.3709094232543
45.15389091403884	1761.9555888659677
45.60542982317923	2340.260047597401
46.06148412141103	1874.4421981451762
46.52209896262513	1440.1988014403876
46.98731995225138	1414.2115280381342
47.4571931517739	2050.187932440105
47.93176508329164	1218.6626602211727
48.411082734124555	1800.6166813683712
48.8951935614658	1167.3661609363471
49.38414549708046	1017.4016010303565
49.877986952051266	1088.8300173842329
50.37676682157178	1050.6951548627208
50.88053448978749	1013.854545358676
51.38933983468537	978.2575664045248
51.903233233032225	943.8724681609099
52.422265565362544	910.653453547823
52.946488221016175	878.5635378826535
53.47595310322633	847.5744315112896
54.010712634258596	817.6394934674821
54.550819760601186	788.7296995877576
55.0963279582072	760.8107192684266
55.647291237789275	733.8488199147224
56.20376415016716	707.8163002749446
56.765801791668835	682.677340393052
57.33345980958552	658.4069340413689
57.906794407681375	634.974919858412
58.48586235175819	612.3514496034877
59.070720975275776	590.5141895191247
59.661428185028534	569.4310524678447
60.25804246687882	549.0830468133414
60.860622891547614	529.440907826372
61.46922912046309	510.48294340651665
62.083921411667724	492.18724064088974
62.7047606257844	474.528076549356
63.331808232042235	457.4896268607223
63.965126314362664	441.04613879913285
64.60477757750628	425.17869257517975
65.25082535328136	409.8691822006138
65.90333360681416	395.09551364063657
66.56236694288232	380.84433000587677
67.22799061231113	367.0939604250823
67.90027051843424	353.82829889300126
68.57927322361859	341.03193739126317
69.26506595585477	328.68651415901866
69.95771661541333	316.779932705832
70.65729378156746	305.2941386739025
71.36386671938313	294.2159063600118
72.07750538657696	283.531395055144
72.79828044044274	273.2259469819104
73.52626324484716	263.2881459256661
74.26152587729563	253.70347182893116
75.00414113606858	244.46152294886576
75.75418254742928	235.54918220221035
76.51172437290357	226.9548673429046
77.27684161663261	218.66896401730983
78.04961003279894	210.67866267903747
78.83010613312693	202.97579419037413
79.6184071944582	195.54875407733826
80.41459126640278	188.3881925795603
81.2187371790668	181.48572132737138
82.03092455085748	174.83093110437048
82.85123379636605	168.4163549092013
83.6797461343297	162.23270117072823
84.51654359567301	156.27189908081678
85.36170903162974	150.5268405547553
86.21532612194603	144.98876434535225
87.0774793831655	139.65163588704152
87.94825417699715	134.50741217611218
88.82773671876713	129.54967537607794
89.71601408595481	124.77179577241417
90.61317422681435	120.16684047123762
91.5193059690825	115.73004533315742
92.43449902877332	111.45355862517364
93.35884401906105	107.33345102892339
