#wavelength	surface flux
0.8	456943.1127387431
0.8002000000000001	460568.25698942813
0.8004000500000003	464502.1991412632
0.8006001500125003	468440.23478709685
0.8008003000500035	472379.2549418422
0.8010005001250161	476319.2598516281
0.8012007502500472	480260.24976263574
0.8014010504376099	483614.5465674128
0.8016014007002193	486772.8276521271
0.8018018010503944	489931.8983071125
0.8020022515006572	493091.75872976315
0.8022027520635323	496252.4091175167
0.8024033027515483	499461.6284743015
0.8026039035772362	502718.47150414943
0.8028045545531306	505976.12874475494
0.8030052556917691	509234.6003996722
0.803206007005692	512493.88667250035
0.8034068085074435	515847.1954572173
0.8036076602095705	519462.6173972257
0.8038085621246229	523078.9431927163
0.8040095142651542	526696.173069658
0.8042105166437206	530314.3072540676
0.8044115692728815	533921.4482512169
0.8046126721651998	537017.7490994884
0.8048138253332411	540114.8240229693
0.8050150287895745	543212.6732151841
0.805216282546772	546311.2968696961
0.8054175866174087	549410.6951801202
0.8056189410140631	552484.9955571996
0.8058203457493168	555552.7408337401
0.8060218008357541	558621.253046596
0.8062233062859632	561690.5323875064
0.8064248621125346	564760.57904825
0.806626468328063	568109.4263190544
0.8068281249451449	571697.9075983593
0.8070298319763813	575287.2859979883
0.8072315894343755	578877.5617422145
0.8074333973317341	582468.7350553782
0.8076352556810671	585463.479208401
0.8078371644949874	587021.1063278969
0.8080391237861113	588579.122854173
0.8082411335670578	590137.5288845797
0.8084431938504498	591696.3245164957
0.8086453046489125	593221.4248302066
0.8088474659750746	594112.3044666079
0.8090496778415686	595003.4068229196
0.809251940261029	595894.7319548196
0.8094542532460944	596786.2799180035
0.8096566168094059	597678.0507681771
0.8098590309636085	598931.260746603
0.8100614957213493	600269.3296251799
0.8102640110952797	601607.7330209767
0.8104665770980536	602946.4710176229
0.8106691937423283	604285.5436987688
0.8108718610407639	606029.0947168105
0.8110745790060241	608082.1089975921
0.8112773476507757	610135.6365319458
0.8114801669876885	612189.6774481825
0.8116830370294355	614244.231874647
0.8118859577886929	615940.5124841967
0.8120889292781401	616891.9999297762
0.8122919515104597	617843.7252472171
0.8124950244983374	618795.6884959873
0.8126981482544621	619747.8897355697
0.8129013227915257	620777.0666724262
0.8131045481222237	622685.1586932677
0.8133078242592543	624593.7277371148
0.8135111512153191	626502.7739232222
0.813714529003123	628412.2973708764
0.8139179576353739	630322.2981993929
0.8141214371247829	638990.9375919836
0.8143249674840641	648972.2652457545
0.814528548725935	658956.0882314328
0.8147321808631167	668942.407172871
0.8149358639083326	678931.2226940416
0.8151395978743097	685471.4781415188
0.8153433827737784	689681.6895622634
0.8155472186194719	693892.9535358619
0.8157511054241268	698105.2703254529
0.815955043200483	702318.6401942442
0.8161590319612831	705933.2619501387
0.8163630717192736	708449.7243073075
0.8165671624872033	710966.8157800628
0.8167713042778252	713484.5365256887
0.8169754971038948	716002.8867015023
0.8171797409781707	718181.9861632254
0.8173840359134155	717648.2606878007
0.8175883819223938	717114.4017810079
0.8177927790178745	716580.409409488
0.8179972272126291	716046.2835398751
0.8182017265194322	715512.0241387952
0.8184062769510622	720100.8005573242
0.8186108785203001	725479.1041115165
0.8188155312399301	730858.7522415901
0.8190202351227402	736239.7452837022
0.819224990181521	741622.0835740713
0.8194297964290664	746187.6461209686
0.8196346538781738	750261.2288792115
0.8198395625416434	754335.8300331421
0.8200445224322789	758411.4498373631
0.820249533562887	762488.088546534
0.8204545959462778	766294.9172277927
0.8206597095952644	769666.8053502222
0.8208648745226633	773039.5364446847
0.8210700907412941	776413.1107219205
0.8212753582639793	779787.528392722
0.8214806771035456	781981.4697676367
0.8216860472728215	776897.5897864677
0.8218914687846397	771812.4388353032
0.822096941651836	766726.0165963983
0.822302465887249	761638.3227519366
0.8225080415037209	756549.356984011
0.8227136685140968	760747.4793530304
0.8229193469312254	766001.074281377
0.8231250767679583	771255.9826084574
0.8233308580371503	776512.2046626167
0.8235366907516598	781769.7407722934
0.8237425749243477	787918.0673584276
0.8239485105680789	794539.3689916743
0.824154497695721	801162.3259503251
0.824360536320145	807786.9386482168
0.8245666264542252	814413.2074992827
0.8247727681108388	820042.6954920406
0.8249789613028664	824243.6405447882
0.8251852060431922	828445.6358338026
0.825391502344703	832648.6816216374
0.8255978502202894	836852.778170923
0.8258042496828445	840828.680153503
0.8260107007452654	843692.228755298
0.8262172034204517	846556.4932442404
0.8264237577213068	849421.4737993059
0.8266303636607373	852287.1705995114
0.8268370212516525	855153.5838239155
0.8270437305069654	854292.7019475603
0.8272504914395923	853140.2849649583
0.8274573040624523	851987.5798781104
0.8276641683884679	850834.586614992
0.8278710844305652	849681.3051035563
0.8280780522016729	851748.5767940193
0.8282850717147234	855288.6059977666
0.8284921429826521	858829.5202088112
0.8286992660183978	862371.3196484112
0.8289064408349024	865914.0045378687
0.8291136674451112	867967.1037165498
0.8293209458619727	868141.3064438778
0.8295282760984382	868315.5527218874
0.829735658167463	868489.8425614666
0.8299430920820048	868664.1759735055
0.8301505778550254	868959.5609695062
0.8303581154994891	869737.9981779017
0.8305657050283641	870516.6299956001
0.8307733464546212	871295.4564712524
0.8309810397912352	872074.4776535248
0.8311887850511829	872853.6935910912
0.8313965822474458	880731.4110633378
0.8316044313930077	888940.5679285809
0.8318123325008561	897151.777083048
0.8320202855839813	905365.0390397997
0.8322282906553774	913580.3543120413
0.8324363477280413	916810.2870240603
0.8326444568149735	918033.1029240281
0.8328526179291771	919256.2245279695
0.8330608310836596	920479.6519123137
0.8332690962914304	921703.3851535023
0.8334774135655034	922522.8816742101
0.833685782918895	922890.6956398775
0.8338942043646247	923258.6015590361
0.834102677915716	923626.5994546748
0.834311203585195	923994.6893497871
0.8345197813860912	925968.4881853994
0.8347284113314379	933347.4371677383
0.8349370934342709	940728.2308873186
0.8351458277076294	948110.8698053198
0.8353546141645565	955495.3543830629
0.8355634528180977	962881.6850819472
0.8357723436813022	955799.0101030458
0.8359812867672226	948535.8863018898
0.8361902820889144	941270.9467197871
0.8363993296594368	934004.1909027868
0.8366084294918518	926735.6183968297
0.8368175815992247	929926.4629494131
0.8370267859946247	936721.0617211224
0.8372360426911234	943517.3591425223
0.8374453517017962	950315.355638277
0.8376547130397217	957115.0516331549
0.8378641267179816	961623.8897981106
0.8380735927496613	963859.0419283658
0.8382831111478488	966094.7528466523
0.8384926819256358	968331.0226926671
0.8387023050961173	970567.8516061454
0.8389119806723914	972718.9776791881
0.8391217086675596	974627.8719446186
0.8393314890947265	976537.243433614
0.8395413219670003	978447.0922654818
0.8397512072974922	980357.418559559
0.8399611450993165	982397.662523082
0.8401711353855914	990866.3650520949
0.8403811781694378	999337.1847567378
0.8405912734639802	1007810.122166309
0.8408014212823464	1016285.1778102366
0.8410116216376671	1024762.352218074
0.8412218745430766	1031946.5368732663
0.8414321800117124	1038755.690818694
0.8416425380567154	1045566.5470526111
0.8418529486912297	1052379.1060005885
0.8420634119284025	1059193.368088297
0.8422739277813847	1063713.072599547
0.8424844962633302	1066210.8118673412
0.842695117387396	1068709.1755699492
0.8429057911667428	1071208.1638634827
0.8431165176145345	1073707.776904091
0.8433272967439382	1075910.2599584023
0.8435381285681244	1077386.9868903717
0.8437490131002665	1078864.083004074
0.8439599503535415	1080341.5483918036
0.84417094034113	1081819.3831458814
0.8443819830762154	1083401.5553050435
0.8445930785719846	1087078.5661753432
0.8448042268416277	1090756.4962983585
0.8450154278983382	1094435.3459039042
0.8452266817553128	1098115.115221851
0.8454379884257517	1101795.8044821278
0.8456493479228583	1105945.7832194995
0.845860760259839	1110209.5884092154
0.846072225449904	1114474.459550229
0.8462837435062666	1118740.3969090285
0.8464953144421433	1123007.4007521702
0.8467069382707537	1126196.3576199822
0.8469186150053215	1128544.9757188824
0.847130344659073	1130894.1809723082
0.8473421272452377	1133243.9735270448
0.8475539627770492	1135594.3535299224
0.8477658512677435	1138224.5137139508
0.8479777927305605	1141448.1601300535
0.8481897871787432	1144672.6124577592
0.848401834625538	1147897.870898549
0.8486139350841944	1151123.9356539468
0.8488260885679657	1154196.1757835506
0.8490382950901076	1155384.2852466686
0.8492505546638802	1156572.6917371529
0.8494628673025462	1157761.3953292593
0.8496752330193721	1158950.3960972654
0.8498876518276269	1160139.694115462
0.8501001237405839	1152626.0184450743
0.8503126487715191	1143373.1386074107
0.850525226933712	1134117.9455497928
0.8507378582404455	1124860.4386939108
0.8509505427050057	1115600.6174613093
0.8511632803406821	1109467.1676115291
0.8513760711607672	1105474.7616259495
0.8515889151785576	1101481.3575388673
0.8518018124073523	1097486.9551007666
0.8520147628604541	1093491.554062059
0.8522277665511693	1095584.7100705772
0.8524408234928071	1108940.2869132361
0.8526539336986805	1122299.2026501093
0.8528670971821053	1135661.4581159176
0.8530803139564007	1149027.0541455767
0.8532935840348901	1162285.6488029987
0.8535069074308987	1174615.6570204478
0.8537202841577566	1186948.7477399614
0.8539337142287962	1199284.9217321565
0.8541471976573534	1211624.1797678417
0.8543607344567677	1223966.5226180383
0.8545743246403821	1230076.976166289
0.8547879682215422	1235198.7720535619
0.8550016652135977	1240321.8483898058
0.8552154156299011	1245446.205495134
0.8554292194838088	1250571.8436897425
0.8556430767886797	1254559.3026389885
0.855856987557877	1257855.9080382544
0.8560709518047664	1261153.3375888679
0.8562849695427177	1264451.5914968704
0.8564990407851035	1267750.6699683506
0.8567131655452999	1270940.247040158
0.8569273438366862	1273949.8483959518
0.8571415756726455	1276960.2021520855
0.8573558610665638	1279971.3084966592
0.8575702000318304	1282983.1676178155
0.8577845925818384	1286075.1175643029
0.857999038729984	1289663.414003583
0.8582135384896665	1293252.6075169719
0.858428091874289	1296842.6983287395
0.8586426988972576	1300433.686663209
0.8588573595719821	1304025.5727447632
0.8590720739118751	1306683.4487966637
0.8592868419303532	1309231.7608707438
0.8595016636408359	1311780.7100228425
0.8597165390567462	1314330.2964122284
0.8599314681915105	1316880.5201982122
0.8601464510585584	1319212.407144729
0.860361487671323	1321428.6469824833
0.8605765780432408	1323645.4408801964
0.8607917221877518	1325862.7889763857
0.8610069201182988	1328080.6914095983
0.8612221718483286	1328534.2330232533
0.8614374773912907	1326443.5237781506
0.8616528367606385	1324352.2918557373
0.8618682499698288	1322260.5371253423
0.8620837170323213	1320168.2594562648
0.8622992379615795	1318922.5205837372
0.8625148127710699	1321868.2549260245
0.8627304414742627	1324814.7257018976
0.8629461240846313	1327761.9330954652
0.8631618606156526	1330709.8772908815
0.8633776510808066	1333658.5584723458
0.8635934954935769	1339740.069897666
0.8638093938674504	1346079.845034897
0.8640253462159173	1352421.2051159125
0.8642413525524714	1358764.1505369477
0.8644574128906095	1365108.681694337
0.8646735272438323	1367935.5376401048
0.8648896956256433	1369126.5462606044
0.8651059180495498	1370317.852633259
0.8653221945290621	1371509.4568325058
0.8655385250776946	1372701.358932804
0.8657549097089641	1375753.3101304423
0.8659713484363913	1381186.9145722825
0.8661878412735006	1386621.8774152356
0.866404388233819	1392058.1989988987
0.8666209893308775	1397495.8796629554
0.8668376445782103	1402409.5188409656
0.8670543539893549	1405179.9586157473
0.8672711175778525	1407951.0910004745
0.8674879353572469	1410722.9161682948
0.8677048073410862	1413495.4342924082
0.8679217335429217	1416268.6455460542
0.8681387139763074	1419235.2431222564
0.8683557486548015	1422212.154846145
0.8685728375919655	1425189.8107979686
0.8687899808013633	1428168.2111637737
0.8690071782965637	1431147.356129674
0.869224430091138	1434860.5371903782
0.8694417361986609	1438873.0218528141
0.8696590966327107	1442886.5096364145
0.869876511406869	1446901.000791961
0.8700939805347206	1450916.4955702948
0.8703115040298544	1454931.5639623557
0.870529081905862	1458946.0009206147
0.8707467141763385	1462961.4414881119
0.8709644008548827	1466977.8859157506
0.8711821419550964	1470995.334454494
0.8713999374905854	1474827.1380571132
0.871617787474958	1478015.7081222723
0.8718356919218269	1481205.0753299505
0.8720536508448075	1484395.239879431
0.8722716642575187	1487586.2019700469
0.8724897321735832	1490777.961801187
0.8727078546066265	1493730.2608335286
0.8729260315702784	1496679.6428170742
0.873144263078171	1499629.7621461125
0.8733625491439405	1502580.6190049835
0.8735808897812266	1505532.21357807
0.8737992850036719	1507284.749361094
0.874017734824923	1508612.7750189085
0.8742362392586293	1509941.132683137
0.874454798318444	1511269.8224367816
0.8746734120180236	1512598.8443628643
0.8748920803710283	1514438.1636807963
0.875110803391121	1516790.4091976958
0.8753295810919689	1519143.2427759757
0.875548413487242	1521496.6645626503
0.8757673005906139	1523850.6747047715
0.8759862424157616	1526866.387099
0.8762052389763657	1531795.8172554676
0.8764242902861098	1536726.4797694709
0.8766433963586814	1541658.374949104
0.8768625572077712	1546591.5031025335
0.8770817728470732	1551492.6866172412
0.8773010432902849	1553804.6470905982
0.8775203685511077	1556117.185554077
0.8777397486432454	1558430.3021521687
0.8779591835804065	1560743.9970294128
0.8781786733763015	1563058.2703303732
0.8783982180446457	1563826.7505029093
0.878617817599157	1564135.406119607
0.8788374720535569	1564444.1389002085
0.8790571814215703	1564752.9488640053
0.8792769457169257	1565061.8360302928
0.879496764953355	1563958.4362757287
0.8797166391445934	1561584.9525412463
0.8799365683043796	1559210.87543583
0.8801565524464557	1556836.2048111374
0.8803765915845676	1554460.9405187864
0.8805966857324639	1554513.395794476
0.880816834903897	1560665.0594263375
0.881037039112623	1566818.2609741092
0.8812572983724012	1572973.0008222675
0.8814776126969944	1579129.2793553905
0.8816979821001687	1585017.7893667684
0.8819184065956938	1584568.225475076
0.8821388861973429	1584118.5491924102
0.8823594209188923	1583668.760490674
0.882580010774122	1583218.8593417625
0.8828006557768155	1582768.8457175638
0.8830213559407598	1584548.6032718744
0.8832421112797452	1586889.6441464932
0.8834629218075651	1589231.2702813295
0.8836837875380171	1591573.4818227
0.8839047084849018	1593916.2789169564
0.884125684662023	1596726.1647504745
0.8843467160831886	1599910.595662709
0.8845678027622095	1603095.8226826717
0.8847889447129001	1606281.84600939
0.8850101419490785	1609468.6658419392
0.8852313944845657	1612703.2948286883
0.885452702333187	1616041.6369579725
0.8856740655087704	1619380.8136727887
0.8858954840251476	1622720.8251817827
0.8861169578961539	1626061.6716936524
0.886338487135628	1628724.3645632626
0.886560071757412	1622352.142197046
0.8867817117753515	1615978.326775238
0.8870034072032955	1609602.9178995716
0.8872251580550963	1603225.9151716938
0.8874469643446101	1596847.3181931302
0.8876688260856963	1600472.6120101116
0.8878907432922178	1606169.575591131
0.8881127159780409	1611867.9634130422
0.8883347441570356	1617567.7758319157
0.8885568278430749	1623269.013203888
0.8887789670500358	1628961.4721441825
0.8890011617917983	1634648.1159342509
0.8892234120822464	1640336.1813852692
0.8894457179352669	1646025.6688526457
0.8896680793647509	1651716.5786918935
0.8898904963845921	1653768.869279859
0.8901129690086883	1648876.3770285957
0.8903354972509405	1643982.6616542707
0.8905580811252535	1639087.7228510983
0.8907807206455347	1634191.5603132318
0.8910034158256963	1628919.233384524
0.8912261666796527	1620294.760011952
0.8914489732213227	1611668.1305210344
0.8916718354646282	1603039.3443727354
0.8918947534234944	1594408.4010279079
0.8921177271118502	1585775.2999472492
0.8923407565436284	1572353.451728884
0.8925638417327644	1558147.4252515356
0.8927869826931977	1543937.847267563
0.8930101794388711	1529724.7168890955
0.8932334319837308	1515508.0332280356
0.8934567403417267	1501922.4340152747
0.8936801045268123	1488727.7915980238
0.8939035245529441	1475529.8505201773
0.8941270004340824	1462328.6099570564
0.894350532184191	1449124.0690837977
0.8945741198172371	1453885.9217671584
0.8947977633471915	1488449.5600680623
0.8950214627880284	1523021.8392785399
0.8952452181537254	1557602.7615587995
0.8954690294582639	1592192.3290696498
0.8956928967156286	1622726.091183087
0.8959168199398075	1626890.6360078922
0.8961407991447926	1631056.2219689046
0.8963648343445789	1635222.8493264068
0.896588925553165	1639390.5183407464
0.8968130727845534	1643559.22927234
0.8970372760527496	1642888.9873228609
0.8972615353717629	1641612.9969624789
0.8974858507556059	1640336.6876045065
0.8977102222182949	1639060.0591691951
0.8979346497738496	1637783.1115767742
0.8981591334362931	1656101.976393349
0.8983836732196523	1685142.0845487406
0.8986082691379572	1714189.4527311516
0.8988329212052417	1743244.0827556085
0.8990576294355432	1772305.9764375966
0.8992823938429022	1792456.2563649458
0.8995072144413631	1799350.3338661033
0.8997320912449734	1806246.1348866334
0.8999570242677847	1813143.659857417
0.9001820135238516	1820042.9092094437
0.9004070590272328	1826170.7938318353
0.9006321607919896	1828247.411296616
0.9008573188321878	1830324.547915765
0.9010825331618959	1832402.2038190681
0.9013078037951865	1834480.3791363472
0.9015331307461353	1836559.0739974545
0.9017585140288219	1839287.200965726
0.9019839536573292	1842071.9024756115
0.9022094496457435	1844857.3001608725
0.9024350020081551	1847643.394195558
0.9026606107586572	1850430.1847537514
0.902886275911347	1861156.6646915458
0.9031119974803249	1875712.9733270416
0.9033377754796951	1890272.9210396965
0.903563609923565	1904836.508739273
0.903789500826046	1919403.7373357844
0.9040154482012526	1928941.1037277346
0.904241452063303	1931960.3895130241
0.9044675124263188	1934980.4301197594
0.9046936293044254	1938001.2257366457
0.9049198027117517	1941022.7765524378
0.9051460326624297	1944132.1974497046
0.9053723191705955	1947613.3503342867
0.9055986622503881	1951095.3735070867
0.9058250619159507	1954578.26718568
0.9060515181814298	1958062.0315876952
0.9062780310609752	1961546.6669308085
0.9065046005687405	1946898.1989770778
0.906731226718883	1931234.4280848808
0.9069579095255627	1915566.741249981
0.907184649002944	1899895.1374933717
0.907411445165195	1884219.615835807
0.9076382980264862	1894577.1832478375
0.907865207600993	1915750.4612305486
0.9080921739028933	1936929.032532749
0.9083191969463691	1958112.8984777718
0.9085462767456058	1979302.060389291
0.9087734133147922	1991921.9331986508
0.9090006066681211	1994641.2074087255
0.909227856819788	1997361.161437349
0.9094551637839932	2000081.7954544832
0.9096825275749393	2002803.109630121
0.9099099482068329	2006553.7691923126
0.9101374256938848	2013961.25987224
0.9103649600503083	2021370.6024248342
0.9105925512903209	2028781.7973130648
0.9108201994281437	2036194.8450000254
0.9110479044780008	2043609.745948899
0.9112756664541204	2050272.2501553893
0.911503485370734	2056919.1553276968
0.9117313612420768	2063567.7222262975
0.9119592940823873	2070217.951266621
0.912187283905908	2076869.8428642065
0.9124153307268845	2065170.2633237978
0.9126434345595664	2046806.643975734
0.9128715954182063	2028438.4337228504
0.9130998133170609	2010065.6314173946
0.9133280882703902	1991688.2359113633
0.913556420292458	1988300.8926271182
0.9137848093975312	2000376.9029172945
0.9140132555998806	2012455.9322100421
0.9142417589137806	2024537.9812601137
