#wavelength	surface flux
0.7	60100.00898945084
0.7001166666666666	60235.030236571954
0.7002333527777778	60316.06709960724
0.700350058336574	60397.11746878631
0.7004667833462966	60478.18134636014
0.7005835278101878	60559.258734580464
0.7007002917314895	60640.349635698694
0.7008170751134447	60721.4540519671
0.7009338779592968	60802.57198563818
0.7010507002722901	60834.335469789425
0.7011675420556689	60806.026711493985
0.701284403312678	60777.71323507221
0.7014012840465635	60749.395039737654
0.7015181842605713	60721.07212470389
0.701635103957948	60692.7444891843
0.701752043141941	60664.41213239212
0.701869001815798	60636.075053540444
0.7019859799827672	60673.43218786329
0.7021029776460976	60756.51830848746
0.7022199948090387	60839.61827679851
0.7023370314748403	60922.732095104235
0.7024540876467528	61005.859765713
0.702571163328027	61089.0012909334
0.7026882585219152	61172.15667307488
0.7028053732316688	61255.325914446614
0.7029225074605406	61455.20990483275
0.7030396612117841	61700.19077391076
0.7031568344886527	61945.21247313366
0.7032740272944008	62190.275009306264
0.7033912396322832	62435.37838923503
0.7035084715055552	62680.52261972688
0.7036257229174727	62925.70770759056
0.7037429938712924	63170.93365963579
0.7038602843702709	63363.3053885669
0.7039775944176659	63546.73778441475
0.7040949240167356	63730.200752328645
0.7042122731707383	63913.69429740377
0.7043296418829335	64097.2184247365
0.7044470301565806	64280.77313942376
0.70456443799494	64464.35844656333
0.7046818654012724	64647.9743512542
0.7047993123788394	64781.91045010013
0.7049167789309024	64915.811826729165
0.7050342650607243	65049.735520254515
0.7051517707715678	65183.681534395386
0.7052692960666963	65317.64987287188
0.705386840949374	65451.64053940473
0.7055044054228656	65585.65353771555
0.7056219894904361	65706.14418817573
0.7057395931553511	65740.57989961652
0.705857216420877	65775.02135034258
0.7059748592902804	65809.4685413104
0.7060925217668288	65843.92147347674
0.70621020385379	65878.38014779845
0.7063279055544321	65912.8445652325
0.7064456268720246	65947.31472673618
0.7065633678098366	65997.8077711093
0.7066811283711383	66092.4207223222
0.7067989085592001	66187.04944236031
0.7069167083772933	66281.6939338517
0.7070345278286895	66376.35419942506
0.707152366916661	66471.03024170936
0.7072702256444803	66565.72206333395
0.7073881040154211	66660.42966692892
0.7075060020327569	66784.712482948
0.7076239196997625	66952.0648075853
0.7077418570197124	67119.44502427653
0.7078598139958823	67286.85313767052
0.7079777906315483	67454.28915241692
0.7080957869299869	67621.75307316564
0.7082138028944751	67789.24490456773
0.7083318385282908	67956.7646512752
0.7084498938347124	68012.28528135012
0.708567968817018	67972.83635417756
0.7086860634784875	67933.38085218375
0.7088041778224007	67893.91877427291
0.7089223118520377	67854.45011934915
0.7090404655706796	67814.97488631624
0.709158638981608	67775.49307407779
0.709276832088105	67736.00468153729
0.7093950448934531	67849.97139582399
0.7095132774009353	68037.14463922572
0.7096315296138355	68224.3490781681
0.7097498015354378	68411.58471785024
0.7098680931690269	68598.85156347216
0.7099864045178884	68786.14962023524
0.7101047355853081	68973.47889334107
0.7102230863745722	69160.83938799231
0.7103414568889679	69331.91277413501
0.7104598471317828	69499.30676227831
0.7105782571063047	69666.7286494195
0.7106966868158224	69834.17844020855
0.710815136263625	70001.65613929601
0.7109336054530023	70169.16175133345
0.7110520943872445	70336.69528097282
0.7111706030696424	70504.25673286723
0.7112891315034873	70593.16642077382
0.7114076796920712	70678.33689231449
0.7115262476386865	70763.52155893373
0.7116448353466263	70848.72042299736
0.711763442819184	70933.93348687171
0.711882070059654	71019.16075292345
0.7120007170713306	71104.40222351947
0.7121193838575091	71190.40556993184
0.7122380704214853	71284.22124552747
0.7123567767665555	71378.05255706895
0.7124755028960166	71471.8995071624
0.7125942488131658	71565.76209841411
0.7127130145213015	71659.6403334313
0.7128318000237216	71753.5342148207
0.7129506053237256	71847.44374519047
0.7130694304246129	71938.14577926022
0.7131882753296837	72017.59366986336
0.7133071400422386	72097.05480178162
0.7134260245655789	72176.52917722182
0.7135449289030065	72256.01679839128
0.7136638530578235	72335.51766749755
0.7137827970333332	72415.0317867488
0.7139017608328388	72494.55915835324
0.7140207444596443	72571.04386998861
0.7141397479170543	72642.08988084731
0.7142587712083737	72713.14773270772
0.7143778143369084	72784.21742754348
0.7144968773059646	72855.29896732842
0.7146159601188489	72926.39235403661
0.7147350627788687	72997.4975896426
0.7148541852893318	73068.61467612116
0.7149733276535467	73089.08613291733
0.7150924898748222	73058.47912849975
0.715211671956468	73027.86702291475
0.7153308739017941	72997.24981531214
0.715450095714111	72966.6275048416
0.71556933739673	72936.00009065265
0.7156885989529628	72905.36757189468
0.7158078803861218	72874.72994771686
0.7159271816995193	72618.59567209543
0.7160465028964692	72230.06923848159
0.7161658439802853	71841.47805046216
0.7162852049542819	71452.8220972448
0.7164045858217744	71064.10136803502
0.716523986586078	70675.31585203718
0.7166434072505089	70286.46553845354
0.716762847818384	69897.55041648415
0.7168823082930204	69740.56047320683
0.7170017886777359	69651.79483505907
0.7171212889758488	69563.01440263834
0.7172408091906781	69474.21917347885
0.7173603493255433	69385.40914511446
0.7174799093837642	69296.58431507874
0.7175994893686615	69207.74468090464
0.7177190892835562	69118.89024012488
0.7178387091317702	69788.2716888516
0.7179583489166254	70533.88008422832
0.7180780086414448	71279.61274767152
0.7181976883095517	72025.46969989192
0.7183173879242699	72771.45096160445
0.718437107488924	73517.55655352742
0.7185568470068389	74263.78649638267
0.7186766064813399	74981.50488133596
0.7187963859157535	74983.38153880269
0.7189161853134061	74985.25850904566
0.719036004677625	74987.13579211698
0.7191558440117378	74989.01338806884
0.7192757033190732	74990.89129695336
0.7193955826029597	74992.76951882268
0.7195154818667269	74994.64805372898
0.7196354011137046	74980.3445838266
0.7197553403472235	74891.53244580893
0.7198752995706147	74802.7055057683
0.7199952787872098	74713.86376123762
0.720115278000341	74625.0072097495
0.7202352972133411	74536.13584883613
0.7203553364295432	74447.2496760294
0.7204753956522815	74358.34868886041
0.7205954748848902	74374.15254688181
0.7207155741307044	74620.82675512554
0.7208356933930594	74867.54207573688
0.7209558326752915	75114.29851556839
0.7210759919807375	75361.09608147352
0.7211961713127342	75607.93478030598
0.7213163706746197	75854.81461892198
0.7214365900697322	76101.73560417749
0.7215568295014103	76191.43770971116
0.721677088972994	76093.51705347374
0.7217973684878227	75995.58007712712
0.7219176680492374	75897.62677795098
0.7220379876605789	75799.65715322504
0.722158327325189	75701.67120022829
0.7222786870464099	75603.66891623942
0.7223990668275843	75505.6502985365
0.7225194666720555	75413.79605155259
0.7226398865831676	75326.30691742165
0.7227603265642646	75238.80320176856
0.722880786618692	75151.28490216268
0.7230012667497951	75063.75201617357
0.7231217669609201	74976.20454137014
0.7232422872554135	74888.64247532099
0.7233628276366229	74801.065815594
0.7234833881078956	74992.4221702687
0.7236039686725803	75289.7160602929
0.7237245693340255	75587.05949929831
0.7238451900955812	75884.4524955441
0.7239658309605971	76181.89505728892
0.7240864919324239	76479.38719279441
0.7242071730144127	76776.9289103225
0.724327874209915	77074.52021813624
0.7244485955222832	76566.67399536542
0.7245693369548704	75925.5626399073
0.7246900985110294	75284.34443255753
0.7248108801941148	74643.01935550483
0.7249316820074803	74001.58739094145
0.7250525039544815	73360.04852104958
0.7251733460384739	72718.40272801265
0.7252942082628137	72078.48392000928
0.7254150906308574	72501.09326831097
0.7255359931459625	72923.77305150407
0.7256569158114868	73346.52328132784
0.7257778586307888	73769.34396952346
0.7258988216072273	74192.23512783364
0.7260198047441617	74615.19676800308
0.7261408080449525	75038.22890177995
0.72626183151296	75417.64831125735
0.7263828751515454	75506.83083274649
0.7265039389640706	75596.0282179892
0.726625022953898	75685.24046946283
0.7267461271243904	75774.46758964511
0.7268672514789111	75863.709581014
0.7269883960208241	75952.96644604806
0.7271095607534942	76042.23818722634
0.7272307456802866	76128.15933298104
0.7273519508045666	76205.0038411902
0.7274731761297006	76281.86115681738
0.7275944216590555	76358.73128199716
0.7277156873959987	76435.61421886447
0.7278369733438982	76512.50996955474
0.727958279506122	76589.41853620324
0.7280796058860397	76666.33992094628
0.7282009524870207	76591.63114521543
0.7283223193124353	76292.61306261714
0.7284437063656539	75993.54514367234
0.7285651136500483	75694.4273800739
0.7286865411689898	75395.25976351548
0.7288079889258514	75096.0422856869
0.7289294569240056	74796.77493827938
0.7290509451668262	74497.45771298028
0.7291724536576875	74293.26219890444
0.7292939823999636	74167.89256571839
0.7294155313970303	74042.5020375932
0.7295371006522632	73917.0906110467
0.7296586901690385	73791.65828259588
0.7297802999507332	73666.20504875704
0.7299019300007252	73540.73090604556
0.7300235803223919	73415.2358509773
0.7301452509191123	73550.83549770649
0.7302669417942654	73806.98073621222
0.7303886529512311	74063.16866559112
0.7305103843933897	74319.3992929583
0.7306321361241218	74575.67262542986
0.7307539081468093	74831.98867012394
0.7308757004648336	75088.34743415828
0.7309975130815778	75344.74892465357
0.7311193460004248	75767.55945469718
0.7312411992247582	76228.10366099497
0.7313630727579622	76688.72462466036
0.7314849666034219	77149.42235848683
0.7316068807645224	77610.19687526865
0.7317288152446498	78071.04818780349
0.7318507700471907	78531.97630889065
0.7319727451755319	78992.98125133115
0.732094740633061	78899.57983775571
0.7322167564231665	78781.19984845133
0.7323387925492371	78662.80012914873
0.7324608490146619	78544.38067655962
0.732582925822831	78425.94148739504
0.7327050229771347	78307.48255836575
0.7328271404809642	78189.00388618148
0.7329492783377112	78061.50410471497
0.7330714365507675	77845.49015041269
0.7331936151235259	77629.44019378473
0.7333158140593796	77413.35422883091
0.7334380333617229	77197.23224954927
0.7335602730339499	76981.07424993766
0.7336825330794556	76764.88022399273
0.7338048135016354	76548.65016571055
0.7339271143038857	76461.95695577508
0.734049435489603	76809.4073160595
0.7341717770621846	77156.91558473736
0.7342941390250283	77504.48177145983
0.7344165213815324	77852.10588587995
0.734538924135096	78199.78793765299
0.7346613472891185	78547.5279364342
0.734783790847	78895.32589188198
0.7349062548121412	79018.04856692717
0.7350287391879431	78742.8594875503
0.7351512439778078	78467.62454332631
0.7352737691851374	78192.34372661194
0.735396314813335	77917.0170297612
0.7355188808658037	77641.64444512813
0.7356414673459482	77366.22596506371
0.7357640742571725	77090.76158191948
0.7358867016028818	76949.46927391706
0.7360093493864824	76940.70578206987
0.7361320176113801	76931.94082964072
0.736254706280982	76923.17441638616
0.7363774153986956	76914.40654206272
0.7365001449679286	76905.63720642691
0.7366228949920899	76896.86640923515
0.7367456654745885	76888.09415024385
0.7368684564188344	76905.44167387782
0.7369912678282374	76937.55526576132
0.7371140997062088	76969.67420991014
0.7372369520561599	77001.79850721634
0.7373598248815024	77033.92815857203
0.7374827181856494	77066.06316486967
0.7376056319720137	77098.20352700168
0.7377285662440091	77130.34924586074
0.7378515210050496	77090.44829272645
0.7379744962585505	77028.86242565222
0.738097492007927	76967.26629426682
0.7382205082565949	76905.65989685958
0.738343545007971	76844.04323171945
0.7384666022654723	76782.41629713506
0.7385896800325165	76720.779091395
0.7387127783125219	76659.13161278723
0.7388358971089073	76682.16067165804
0.7389590364250921	76713.68786615302
0.7390821962644963	76745.22031518044
0.7392053766305403	76776.75801961598
0.7393285775266454	76808.30098033563
0.7394517989562333	76839.84919821542
0.7395750409227259	76871.40267413147
0.7396983034295463	76895.60011124922
0.739821586480118	76756.0440353441
0.7399448900778645	76616.46470009325
0.7400682142262109	76476.86210161944
0.740191558928582	76337.23623604604
0.7403149241884034	76197.58709949514
0.7404383100091014	76057.91468808813
0.7405617163941028	75918.21899794597
0.7406851433468352	75746.60800764125
0.7408085908707264	75429.07010496527
0.7409320589692048	75111.47927930567
0.7410555476456997	74793.83552184152
0.7411790569036406	74476.13882375137
0.7413025867464579	74158.38917621144
0.7414261371775823	73840.58657039684
0.7415497082004452	73522.73099748151
0.7416732998184786	73213.22009130573
0.741796912035115	72921.67219687453
0.7419205448537874	72630.07571112765
0.7420441982779297	72338.43062596649
0.742167872310976	72046.73693329086
0.7422915669563612	71754.9946249998
0.7424152822175206	71463.20369299078
0.7425390180978901	71171.36412915992
0.7426627746009065	71003.67837036404
0.7427865517300065	70987.37633827151
0.7429103494886282	70971.07158917362
0.7430341678802096	70954.76412261755
0.7431580069081896	70938.4539381504
0.7432818665760077	70922.14103531915
0.7434057468871037	70905.82541367077
0.7435296478449182	70889.50707275212
0.7436535694528923	70781.66451497337
0.7437775117144678	70611.15471139716
0.7439014746330868	70440.61648952062
0.7440254582121922	70270.04984460694
0.7441494624552276	70099.45477191905
0.7442734873656368	69928.83126671908
0.7443975329468645	69758.1793242681
0.7445215992023557	69587.49893982674
0.7446456861355559	69333.87161295995
0.7447697937499119	69049.65704270627
0.7448939220488703	68765.39510335762
0.7450180710358784	68481.08578701931
0.7451422407143843	68196.72908579491
0.7452664310878367	67912.32499178672
0.7453906421596846	67627.8734970965
0.7455148739333779	67343.37459382373
0.7456391264123667	67035.8576706674
0.7457633996001021	66724.6166222262
0.7458876935000356	66413.32370027636
0.7460120081156189	66101.97889617346
0.7461363434503048	65790.58220126973
0.7462606995075466	65479.13360691656
0.7463850762907978	65167.63310446481
0.7465094738035127	64856.03574192397
0.7466338920491467	64532.62951907143
0.746758331031155	64209.16939518142
0.7468827907529935	63885.65536127116
0.7470072712181189	63562.087408355226
0.7471317724299886	63238.46552744708
0.7472562943920602	62914.789709559016
0.7473808371077922	62591.05994570101
0.7475054005806435	62263.75599829484
0.7476299848140736	61914.714272676814
0.7477545898115426	61565.614373437784
0.7478792155765113	61216.456290882124
0.7480038621124406	60867.24001531298
0.7481285294227926	60517.96553703133
0.7482532175110298	60168.63284633625
0.7483779263806148	59819.24193352656
0.7485026560350116	59459.51915842945
0.7486274064776842	59071.931233427495
0.748752177712097	58684.27871043874
0.7488769697417158	58296.56157869533
0.749001782570006	57908.77982743042
0.7491266162004343	57520.93344587376
0.7492514706364677	57133.02242325333
0.7493763458815739	56745.0467487954
0.7495012419392209	56334.30396251178
0.7496261588128773	55890.85524291103
0.7497510965060128	55447.332615190026
0.7498760550220971	55003.73606703124
0.7500010343646007	54560.06558611436
0.7501260345369949	54116.321160117106
0.750251055542751	53672.50277671602
0.7503760973853414	53228.6104235841
0.7505011600682389	52762.88164023231
0.750626243594917	52278.90408882242
0.7507513479688495	51794.84587448803
0.7508764731935109	51310.70698378443
0.7510016192723765	50826.487403265586
0.7511267862089218	50342.18711948377
0.7512519740066232	49857.80611898782
0.7513771826689577	49373.34438832484
0.7515024121994025	48872.55993155219
0.7516276626014359	48364.1190857174
0.751752933878536	47855.59349974253
0.7518782260341824	47346.983159503165
0.7520035390718548	46838.288050873525
0.7521288729950334	46329.50815972605
0.7522542278071992	45820.64347193
0.7523796035118337	45311.69397335242
0.7525050001124189	44776.80090089759
0.7526304176124378	44236.194980013104
0.7527558560153731	43695.49895814249
0.752881315324709	43154.712820267705
0.7530067955439299	42613.83655136975
0.7531322966765205	42072.8701364277
0.7532578187259665	41531.81356041633
0.7533833616957542	40990.666808308975
0.75350892558937	40432.323541414204
0.7536345104103016	39873.082829078536
0.7537601161620366	39313.74890995777
0.7538857428480638	38754.32176851661
0.7540113904718717	38194.80138921926
0.7541370590369503	37635.18775652548
0.7542627485467898	37075.48085489258
0.7543884590048808	36515.18938092055
0.7545141904147151	35949.90534686829
0.7546399427797842	35384.52709881127
0.7547657161035808	34819.05462104615
0.754891510389598	34253.48789786809
0.7550173256413296	33687.82691356928
0.7551431618622698	33122.07165243989
0.7552690190559135	32556.222098767095
0.7553948972257561	31987.818437731017
0.7555207963752938	31411.06342322918
0.755646716508023	30834.212282891927
0.755772657627441	30257.26500069775
0.7558986197370455	29680.22156062312
0.756024602840335	29103.08194664196
0.7561506069408084	28525.84614272514
0.7562766320419653	27948.514132840482
0.7564026781473054	27367.624521838377
0.75652874526033	26780.546992122832
0.7566548333845401	26193.37161615203
0.7567809425234375	25606.098377618775
0.7569070726805247	25018.727260212763
0.7570332238593047	24431.2582476206
0.7571593960632813	23843.691323525778
0.7572855892959586	23256.02647161024
0.7574118035608413	22693.5774650687
0.7575380388614347	22155.800023435368
0.7576642952012449	21617.932952228224
0.7577905725837782	21079.97623650999
0.7579168710125422	20541.929861338176
0.7580431904910444	20003.793811770298
0.7581695310227928	19465.568072861504
0.7582958926112967	18927.252629662216
0.7584222752600652	18408.17840175598
0.7585486789726085	17900.122545618728
0.7586751037524372	17391.98201350526
0.7588015496030628	16883.756791302116
0.7589280165279966	16375.446864896276
0.7590545045307512	15867.052220169368
0.7591810136148396	15358.572843001684
0.7593075437837755	14850.00871927039
0.7594340950410726	14381.827521701112
0.7595606673902461	13925.309449862414
0.7596872608348112	13468.715291677952
0.7598138753782836	13012.045034467628
0.75994051102418	12555.298665547345
0.7600671677760173	12098.476172232597
0.7601938456373134	11641.577541835279
0.7603205446115863	11184.602761666487
0.7604472647023548	10776.611795785984
0.7605740059131385	10373.429387239645
0.7607007682474575	9970.17978162482
0.7608275517088319	9566.86296774329
0.7609543563007835	9163.478934391884
0.7610811820268336	8760.027670368494
0.7612080288905045	8356.509164468544
0.7613348968953197	7955.44383481194
0.7614617860448022	7606.025305537123
0.7615886963424764	7256.548539840284
0.7617156277918667	6907.013528016167
0.7618425803964988	6557.420260356458
0.7619695541598982	6207.768727152232
0.7620965490855914	5858.05891869273
0.7622235651771058	5508.290825264747
0.7623506024379685	5175.092117614212
0.7624776608717082	4914.718815356485
0.7626047404818536	4654.302117548369
0.7627318412719337	4393.842016957732
0.762858963245479	4133.338506350166
0.7629861064060198	3872.79157849081
0.7631132707570876	3612.2012261432064
0.7632404563022137	3351.5674420704454
0.7633676630449308	3113.4238355136818
0.7634948909887717	2923.2071262429795
0.7636221401372697	2732.958714187646
0.7637494104939593	2542.6785940634572
0.7638767020623748	2352.3667605861892
0.7640040148460518	2162.023208469792
0.7641313488485262	1971.6479324280483
0.7642587040733344	1781.2409271734152
0.7643860805240132	1617.980363090451
0.7645134782041005	1487.1242997110317
0.7646408971171346	1356.2464269876612
0.764768337266654	1225.3467412855514
0.7648957986561985	1094.4252389691158
0.7650232812893079	963.4819164023114
0.7651507851695227	832.5167699484114
0.7652783103003843	701.5297959701184
0.7654058566854343	612.3479460307036
0.7655334243282153	551.657396078097
0.7656610132322699	490.9567310339107
0.765788623401142	430.24594921216004
0.7659162548383754	369.52504892680724
0.7660439075475152	308.7940284913922
