#wavelength	surface flux
0.7	841201.9943890059
0.7001166666666666	842452.390055415
0.7002333527777778	843576.5584418279
0.700350058336574	844700.9141896379
0.7004667833462966	845825.4573300711
0.7005835278101878	846950.1878943641
0.7007002917314895	848075.1059137494
0.7008170751134447	849200.2114194711
0.7009338779592968	850325.5044427766
0.7010507002722901	851331.074088444
0.7011675420556689	852190.8877035571
0.701284403312678	853050.8446209382
0.7014012840465635	853910.9448644732
0.7015181842605713	854771.1884580487
0.701635103957948	855631.5754255558
0.701752043141941	856492.1057908908
0.701869001815798	857352.7795779546
0.7019859799827672	858290.2923760476
0.7021029776460976	859281.3372212385
0.7022199948090387	860272.5472405715
0.7023370314748403	861263.922461574
0.7024540876467528	862255.4629117798
0.702571163328027	863247.1686187256
0.7026882585219152	864239.0396099587
0.7028053732316688	865231.075913022
0.7029225074605406	866633.4343460336
0.7030396612117841	868194.4068525604
0.7031568344886527	869755.6395211718
0.7032740272944008	871317.132395227
0.7033912396322832	872878.8855180953
0.7035084715055552	874440.8989331492
0.7036257229174727	876003.172683773
0.7037429938712924	877565.7068133566
0.7038602843702709	879045.6368912127
0.7039775944176659	880511.7592028881
0.7040949240167356	881978.1258682827
0.7042122731707383	883444.7369281208
0.7043296418829335	884911.5924231365
0.7044470301565806	886378.6923940676
0.70456443799494	887846.0368816595
0.7046818654012724	889313.6259266669
0.7047993123788394	890586.1604158472
0.7049167789309024	891858.6828796605
0.7050342650607243	893131.417430553
0.7051517707715678	894404.3641038701
0.7052692960666963	895677.5229349654
0.705386840949374	896950.8939591988
0.7055044054228656	898224.4772119382
0.7056219894904361	899459.5727680565
0.7057395931553511	900448.9400442819
0.705857216420877	901438.472215054
0.7059748592902804	902428.1693078539
0.7060925217668288	903418.0313501704
0.70621020385379	904408.0583694937
0.7063279055544321	905398.250393319
0.7064456268720246	906388.6074491498
0.7065633678098366	907422.7244680802
0.7066811283711383	908577.0750037567
0.7067989085592001	909731.6179311891
0.7069167083772933	910886.353282442
0.7070345278286895	912041.2810895875
0.707152366916661	913196.4013847011
0.7072702256444803	914351.7141998627
0.7073881040154211	915507.2195671615
0.7075060020327569	916758.9163083015
0.7076239196997625	918150.629249843
0.7077418570197124	919542.57414354
0.7078598139958823	920934.7510280526
0.7079777906315483	922327.1599420473
0.7080957869299869	923719.8009241932
0.7082138028944751	925112.6740131688
0.7083318385282908	926505.7792476602
0.7084498938347124	927582.263723511
0.708567968817018	928390.2932141911
0.7086860634784875	929198.4573764538
0.7088041778224007	930006.7562327443
0.7089223118520377	930815.1898055099
0.7090404655706796	931623.7581172036
0.709158638981608	932432.4611902836
0.709276832088105	933241.2990472093
0.7093950448934531	934502.4001383082
0.7095132774009353	935979.3363377398
0.7096315296138355	937456.5186932056
0.7097498015354378	938933.9472457299
0.7098680931690269	940411.622036345
0.7099864045178884	941889.5431060938
0.7101047355853081	943367.7104960204
0.7102230863745722	944846.1242471779
0.7103414568889679	946265.6792166336
0.7104598471317828	947672.0406882643
0.7105782571063047	949078.6365534725
0.7106966868158224	950485.4668513249
0.710815136263625	951892.5316208933
0.7109336054530023	953299.8309012575
0.7110520943872445	954707.3647315012
0.7111706030696424	956115.1331507176
0.7112891315034873	957300.8305676307
0.7114076796920712	958476.1187589237
0.7115262476386865	959651.6028315821
0.7116448353466263	960827.2828182516
0.711763442819184	962003.1587515863
0.711882070059654	963179.2306642442
0.7120007170713306	964355.4985888868
0.7121193838575091	965536.3327127035
0.7122380704214853	966762.9432352199
0.7123567767665555	967989.7581928222
0.7124755028960166	969216.7776195847
0.7125942488131658	970444.0015495841
0.7127130145213015	971671.4300169084
0.7128318000237216	972899.0630556402
0.7129506053237256	974126.9006998803
0.7130694304246129	975345.3535240885
0.7131882753296837	976530.4812946807
0.7133071400422386	977715.8065865682
0.7134260245655789	978901.3294326704
0.7135449289030065	980087.0498659139
0.7136638530578235	981272.967919229
0.7137827970333332	982459.0836255546
0.7139017608328388	983645.397017831
0.7140207444596443	984831.4836759901
0.7141397479170543	986017.010833208
0.7142587712083737	987202.7355782837
0.7143778143369084	988388.6579441512
0.7144968773059646	989574.7779637466
0.7146159601188489	990761.0956700115
0.7147350627788687	991947.6110958942
0.7148541852893318	993134.3242743475
0.7149733276535467	994123.903764483
0.7150924898748222	994914.6635369173
0.715211671956468	995705.555102647
0.7153308739017941	996496.5784836384
0.715450095714111	997287.7337018594
0.71556933739673	998079.0207792837
0.7156885989529628	998870.4397378874
0.7158078803861218	999661.990599652
0.7159271816995193	999772.7369061565
0.7160465028964692	999483.8344389616
0.7161658439802853	999194.8838213555
0.7162852049542819	998905.8850453133
0.7164045858217744	998616.8381028081
0.716523986586078	998327.7429858126
0.7166434072505089	998038.5996862978
0.716762847818384	997749.408196233
0.7168823082930204	998363.3686766591
0.7170017886777359	999243.1491299174
0.7171212889758488	1000123.0762132508
0.7172408091906781	1001003.1499510983
0.7173603493255433	1001883.3703679023
0.7174799093837642	1002763.7374881087
0.7175994893686615	1003644.2513361687
0.7177190892835562	1004524.9119365364
0.7178387091317702	1007509.9793348062
0.7179583489166254	1010706.7759093737
0.7180780086414448	1013904.1052833728
0.7181976883095517	1017101.9675456007
0.7183173879242699	1020300.3627848726
0.718437107488924	1023499.2910900186
0.7185568470068389	1026698.7525498832
0.7186766064813399	1029814.87249016
0.7187963859157535	1030834.4578603707
0.7189161853134061	1031854.2131614765
0.719036004677625	1032874.1384217993
0.7191558440117378	1033894.2336696647
0.7192757033190732	1034914.4989334062
0.7193955826029597	1035934.9342413571
0.7195154818667269	1036955.5396218604
0.7196354011137046	1037899.6774047647
0.7197553403472235	1038491.118881048
0.7198752995706147	1039082.6589309106
0.7199952787872098	1039674.2975707819
0.720115278000341	1040266.034817093
0.7202352972133411	1040857.8706862787
0.7203553364295432	1041449.805194775
0.7204753956522815	1042041.8383590236
0.7205954748848902	1043010.1112966287
0.7207155741307044	1044807.7961600448
0.7208356933930594	1046605.7806376017
0.7209558326752915	1048404.0647792385
0.7210759919807375	1050202.6486349015
0.7211961713127342	1052001.532254538
0.7213163706746197	1053800.715688114
0.7214365900697322	1055600.1989855936
0.7215568295014103	1056820.5557630286
0.721677088972994	1057349.7625856923
0.7217973684878227	1057879.0576094922
0.7219176680492374	1058408.44084913
0.7220379876605789	1058937.9123193074
0.722158327325189	1059467.47203473
0.7222786870464099	1059997.1200101052
0.7223990668275843	1060526.8562601428
0.7225194666720555	1061526.819418824
0.7226398865831676	1062860.1482473782
0.7227603265642646	1064193.6992974007
0.722880786618692	1065527.4726059341
0.7230012667497951	1066861.4682100185
0.7231217669609201	1068195.6861467033
0.7232422872554135	1069530.1264530432
0.7233628276366229	1070864.7891661031
0.7234833881078956	1072610.289305634
0.7236039686725803	1074511.975024415
0.7237245693340255	1076413.9776908124
0.7238451900955812	1078316.2973576577
0.7239658309605971	1080218.9340777788
0.7240864919324239	1082121.8879040224
0.7242071730144127	1084025.158889237
0.724327874209915	1085928.7470862786
0.7244485955222832	1085432.4360745172
0.7245693369548704	1084539.1868285732
0.7246900985110294	1083645.7887077562
0.7248108801941148	1082752.2416872499
0.7249316820074803	1081858.5457422433
0.7250525039544815	1080964.700847911
0.7251733460384739	1080070.7069794296
0.7252942082628137	1079182.1282255393
0.7254150906308574	1081517.4250085424
0.7255359931459625	1083853.111007676
0.7256569158114868	1086189.1862878103
0.7257778586307888	1088525.6509138257
0.7258988216072273	1090862.5049506114
0.7260198047441617	1093199.7484630675
0.7261408080449525	1095537.3815161127
0.72626183151296	1097763.8460042756
0.7263828751515454	1099249.3135204827
0.7265039389640706	1100735.028614609
0.726625022953898	1102220.9913279186
0.7267461271243904	1103707.2017016811
0.7268672514789111	1105193.6597771714
0.7269883960208241	1106680.3655956732
0.7271095607534942	1108167.3191984792
0.7272307456802866	1109569.186373837
0.7273519508045666	1110740.7787788422
0.7274731761297006	1111912.5664492478
0.7275944216590555	1113084.5494175982
0.7277156873959987	1114256.7277164436
0.7278369733438982	1115429.101378341
0.727958279506122	1116601.6704358454
0.7280796058860397	1117774.4349215275
0.7282009524870207	1118497.0085254028
0.7283223193124353	1118553.5310026116
0.7284437063656539	1118610.062900233
0.7285651136500483	1118666.6042198376
0.7286865411689898	1118723.154962995
0.7288079889258514	1118779.7151312768
0.7289294569240056	1118836.284726253
0.7290509451668262	1118892.863749495
0.7291724536576875	1119268.1891583935
0.7292939823999636	1119907.6850007307
0.7294155313970303	1120547.2874257097
0.7295371006522632	1121186.9964510924
0.7296586901690385	1121826.8120946456
0.7297802999507332	1122466.7343741392
0.7299019300007252	1123106.7633073477
0.7300235803223919	1123746.8989120433
0.7301452509191123	1125112.2178701356
0.7302669417942654	1126812.4376179427
0.7303886529512311	1128512.9407357082
0.7305103843933897	1130213.7272706605
0.7306321361241218	1131914.797270034
0.7307539081468093	1133616.150781077
0.7308757004648336	1135317.787851035
0.7309975130815778	1137019.7085271731
0.7311193460004248	1139257.305030222
0.7312411992247582	1141616.4804192563
0.7313630727579622	1143976.0490041883
0.7314849666034219	1146336.0108505532
0.7316068807645224	1148696.3660238914
0.7317288152446498	1151057.1145897594
0.7318507700471907	1153418.2566137228
0.7319727451755319	1155779.7921613562
0.732094740633061	1156472.275027408
0.7322167564231665	1157089.7143074446
0.7323387925492371	1157707.256494028
0.7324608490146619	1158324.901604309
0.732582925822831	1158942.6496554418
0.7327050229771347	1159560.5006645822
0.7328271404809642	1160178.4546488917
0.7329492783377112	1160776.1407459502
0.7330714365507675	1161173.6591524596
0.7331936151235259	1161571.2438120367
0.7333158140593796	1161968.8947357233
0.7334380333617229	1162366.6119345643
0.7335602730339499	1162764.3954196053
0.7336825330794556	1163162.245201894
0.7338048135016354	1163560.1612924791
0.7339271143038857	1164377.4115110668
0.734049435489603	1166599.6325907256
0.7341717770621846	1168822.2240405644
0.7342941390250283	1171045.1859223107
0.7344165213815324	1173268.5182977028
0.734538924135096	1175492.2212284943
0.7346613472891185	1177716.2947764378
0.734783790847	1179940.739003307
0.7349062548121412	1181322.2620920008
0.7350287391879431	1181213.462597954
0.7351512439778078	1181104.6449706585
0.7352737691851374	1180995.8092070916
0.735396314813335	1180886.9553042306
0.7355188808658037	1180778.0832590528
0.7356414673459482	1180669.193068534
0.7357640742571725	1180560.28472965
0.7358867016028818	1180985.862868571
0.7360093493864824	1181939.3834603278
0.7361320176113801	1182893.0629721822
0.736254706280982	1183846.9014306217
0.7363774153986956	1184800.8988621389
0.7365001449679286	1185755.055293226
0.7366228949920899	1186709.3707503858
0.7367456654745885	1187663.8452601216
0.7368684564188344	1188799.904828415
0.7369912678282374	1190038.691880112
0.7371140997062088	1191277.6853963183
0.7372369520561599	1192516.885411445
0.7373598248815024	1193756.2919599048
0.7374827181856494	1194995.905076125
0.7376056319720137	1196235.724794531
0.7377285662440091	1197475.751149557
0.7378515210050496	1198533.5564548012
0.7379744962585505	1199536.651109453
0.738097492007927	1200539.912946547
0.7382205082565949	1201543.3419939461
0.738343545007971	1202546.93827952
0.7384666022654723	1203550.7018311424
0.7385896800325165	1204554.6326766885
0.7387127783125219	1205558.7308440434
0.7388358971089073	1206559.5218807769
0.7389590364250921	1207560.1312170166
0.7390821962644963	1208560.90732148
0.7392053766305403	1209561.8502219594
0.7393285775266454	1210562.9599462561
0.7394517989562333	1211564.2365221747
0.7395750409227259	1212565.6799775208
0.7396983034295463	1213545.4008329874
0.739821586480118	1214038.336598923
0.7399448900778645	1214531.3545208185
0.7400682142262109	1215024.4546123692
0.740191558928582	1215517.636887268
0.7403149241884034	1216010.9013592124
0.7404383100091014	1216504.248041902
0.7405617163941028	1216997.6769490384
0.7406851433468352	1217350.8360707997
0.7408085908707264	1217061.9772981624
0.7409320589692048	1216773.0703823967
0.7410555476456997	1216484.115315478
0.7411790569036406	1216195.1120893816
0.7413025867464579	1215906.0606960808
0.7414261371775823	1215616.9611275478
0.7415497082004452	1215327.8133757536
0.7416732998184786	1215086.803174293
0.741796912035115	1214949.1207073107
0.7419205448537874	1214811.415293251
0.7420441982779297	1214673.6869282885
0.742167872310976	1214535.9356085986
0.7422915669563612	1214398.1613303556
0.7424152822175206	1214260.3640897328
0.7425390180978901	1214122.5438829032
0.7426627746009065	1214381.5946839782
0.7427865517300065	1215124.53084018
0.7429103494886282	1215867.5908190755
0.7430341678802096	1216610.7746413
0.7431580069081896	1217354.082327495
0.7432818665760077	1218097.5138983054
0.7434057468871037	1218841.069374377
0.7435296478449182	1219584.7487763606
0.7436535694528923	1219948.0754909122
0.7437775117144678	1220051.0148335472
0.7439014746330868	1220153.9713327389
0.7440254582121922	1220256.9449913474
0.7441494624552276	1220359.9358122323
0.7442734873656368	1220462.943798254
0.7443975329468645	1220565.9689522735
0.7445215992023557	1220669.011277152
0.7446456861355559	1220396.3588486467
0.7447697937499119	1219985.2586800135
0.7448939220488703	1219574.0899946857
0.7450180710358784	1219162.8527812439
0.7451422407143843	1218751.5470282664
0.7452664310878367	1218340.1727243299
0.7453906421596846	1217928.7298580096
0.7455148739333779	1217517.2184178783
0.7456391264123667	1216831.106298795
0.7457633996001021	1216100.9836639718
0.7458876935000356	1215370.7393420418
0.7460120081156189	1214640.373312726
0.7461363434503048	1213909.8855557384
0.7462606995075466	1213179.2760507904
0.7463850762907978	1212448.5447775929
0.7465094738035127	1211717.213379753
0.7466338920491467	1210860.6300313
0.746758331031155	1210003.9039189548
0.7468827907529935	1209147.0350189253
0.7470072712181189	1208290.0233074122
0.7471317724299886	1207432.868760614
0.7472562943920602	1206575.571354725
0.7473808371077922	1205718.1310659344
0.7475054005806435	1204807.8600587624
0.7476299848140736	1203572.9010827348
0.7477545898115426	1202337.7362802108
0.7478792155765113	1201102.365616886
0.7480038621124406	1199866.7890584518
0.7481285294227926	1198631.0065705914
0.7482532175110298	1197395.0181189815
0.7483779263806148	1196158.8236692983
0.7485026560350116	1194800.1277849323
0.7486274064776842	1193110.2175250307
0.748752177712097	1191420.025613422
0.7488769697417158	1189729.5520031578
0.749001782570006	1188038.796647294
0.7491266162004343	1186347.7594988714
0.7492514706364677	1184656.4405109233
0.7493763458815739	1182964.8396364755
0.7495012419392209	1181027.2669703152
0.7496261588128773	1178736.1629254015
0.7497510965060128	1176444.677029812
0.7498760550220971	1174152.8092199075
0.7500010343646007	1171860.5594320341
0.7501260345369949	1169567.9276025286
0.750251055542751	1167274.9136677205
0.7503760973853414	1164981.5175639219
0.7505011600682389	1162328.7067774748
0.750626243594917	1159375.6699698248
0.7507513479688495	1156422.1409893783
0.7508764731935109	1153468.1197541005
0.7510016192723765	1150513.6061819494
0.7511267862089218	1147558.6001908723
0.7512519740066232	1144603.1016987958
0.7513771826689577	1141647.1106236356
0.7515024121994025	1138220.215543447
0.7516276626014359	1134573.4171117668
0.751752933878536	1130926.010880354
0.7518782260341824	1127277.9967479017
0.7520035390718548	1123629.3746130923
0.7521288729950334	1119980.1443745955
0.7522542278071992	1116330.305931059
0.7523796035118337	1112679.859181113
0.7525050001124189	1108292.7872975694
0.7526304176124378	1103744.9170580881
0.7527558560153731	1099196.2888402394
0.752881315324709	1094646.9025176833
0.7530067955439299	1090096.7579640718
0.7531322966765205	1085545.8550530407
0.7532578187259665	1080994.1936581896
0.7533833616957542	1076441.7736531063
0.75350892558937	1070968.1346284468
0.7536345104103016	1065450.3006574027
0.7537601161620366	1059931.5470473664
0.7538857428480638	1054411.8736450563
0.7540113904718717	1048891.2802971865
0.7541370590369503	1043369.7668504263
0.7542627485467898	1037847.3331514217
0.7543884590048808	1032225.8239466009
0.7545141904147151	1025624.5640421619
0.7546399427797842	1019022.2039277495
0.7547657161035808	1012418.7434199837
0.754891510389598	1005814.1823354668
0.7550173256413296	999208.5204907666
0.7551431618622698	992601.7577024272
0.7552690190559135	985993.893786958
0.7553948972257561	979053.1508837979
0.7555207963752938	970997.5984366809
0.755646716508023	962940.703397494
0.755772657627441	954882.4655424645
0.7558986197370455	946822.8846477913
0.756024602840335	938761.9604896377
0.7561506069408084	930699.6928441245
0.7562766320419653	922636.0814873298
0.7564026781473054	913900.7653490852
0.75652874526033	903984.3370823216
0.7566548333845401	894066.2560775086
0.7567809425234375	884146.5220591981
0.7569070726805247	874225.1347518903
0.7570332238593047	864302.0938800327
0.7571593960632813	854377.3991680201
0.7572855892959586	844451.0503402217
0.7574118035608413	833958.5926139468
0.7575380388614347	822912.1618793232
0.7576642952012449	811863.8900729063
0.7577905725837782	800813.776887871
0.7579168710125422	789761.822017285
0.7580431904910444	778708.0251542167
0.7581695310227928	767652.385991685
0.7582958926112967	756594.9042226123
0.7584222752600652	744399.4994216684
0.7585486789726085	731549.4273828944
0.7586751037524372	718697.2136654427
0.7588015496030628	705842.857912346
0.7589280165279966	692986.3597666494
0.7590545045307512	680127.7188712619
0.7591810136148396	667266.9348690588
0.7593075437837755	654404.0074028362
0.7594340950410726	640391.3621730079
0.7595606673902461	626043.428332761
0.7596872608348112	611693.103170193
0.7598138753782836	597340.3862867805
0.75994051102418	582985.2772838739
0.7600671677760173	568627.7757628114
0.7601938456373134	554267.8813248177
0.7603205446115863	539905.5935710925
0.7604472647023548	524377.3869778573
0.7605740059131385	508730.9380917581
0.7607007682474575	493081.8814641626
0.7608275517088319	477430.2166604972
0.7609543563007835	461775.9432459965
0.7610811820268336	446119.06078593613
0.7612080288905045	430459.5688454958
0.7613348968953197	414749.6363178804
0.7614617860448022	398055.7056949585
0.7615886963424764	381358.99275024334
0.7617156277918667	364659.49702005356
0.7618425803964988	347957.21804056165
0.7619695541598982	331252.155347911
0.7620965490855914	314544.30847815715
0.7622235651771058	297833.67696723907
0.7623506024379685	281489.472533281
0.7624776608717082	266760.84136253054
0.7626047404818536	252029.75541991758
0.7627318412719337	237296.2142963395
0.762858963245479	222560.21758256492
0.7629861064060198	207821.76486933668
0.7631132707570876	193080.8557473076
0.7632404563022137	178337.48980710475
0.7633676630449308	164562.47126516973
0.7634948909887717	152851.67760939445
0.7636221401372697	141138.93215469178
0.7637494104939593	129424.2345757356
0.7638767020623748	117707.58454719983
0.7640040148460518	105988.98174364597
0.7641313488485262	94268.42583962528
0.7642587040733344	82545.9165096073
0.7643860805240132	72824.48426280703
0.7645134782041005	65491.648013103164
0.7646408971171346	58157.589624021304
0.764768337266654	50822.30889187727
0.7648957986561985	43485.80561294219
0.7650232812893079	36148.079583461586
0.7651507851695227	28809.130599642667
0.7652783103003843	21468.95845766068
