#wavelength	surface flux
0.8	1441261.8409814674
0.8002000000000001	1447585.2927098481
0.8004000500000003	1454373.1329932134
0.8006001500125003	1461167.3450500164
0.8008003000500035	1467963.255659834
0.8010005001250161	1474760.8652473073
0.8012007502500472	1481560.1742371677
0.8014010504376099	1487261.6455168582
0.8016014007002193	1492596.230681431
0.8018018010503944	1497932.1494922948
0.8020022515006572	1503269.4022828639
0.8022027520635323	1508607.989386626
0.8024033027515483	1513957.8712447484
0.8026039035772362	1519318.8510905914
0.8028045545531306	1524681.1711813959
0.8030052556917691	1530044.8318522258
0.803206007005692	1535409.8334382188
0.8034068085074435	1540945.1441611815
0.8036076602095705	1546955.4804828665
0.8038085621246229	1552967.3193886273
0.8040095142651542	1558980.661254118
0.8042105166437206	1564995.5064550731
0.8044115692728815	1570985.2924818036
0.8046126721651998	1575834.0594482296
0.8048138253332411	1580684.0386063936
0.8050150287895745	1585535.2302593517
0.805216282546772	1590387.6347102216
0.8054175866174087	1595241.2522622016
0.8056189410140631	1600152.3324676908
0.8058203457493168	1605080.5626289798
0.8060218008357541	1610010.0248478025
0.8062233062859632	1614940.7194321826
0.8064248621125346	1619872.6466902052
0.806626468328063	1625345.5933079026
0.8068281249451449	1631283.5193605986
0.8070298319763813	1637222.9298948152
0.8072315894343755	1643163.825281661
0.8074333973317341	1649106.2058923556
0.8076352556810671	1653965.5706274766
0.8078371644949874	1656215.5740720339
0.8080391237861113	1658466.1400174529
0.8082411335670578	1660717.2686043568
0.8084431938504498	1662968.9599734098
0.8086453046489125	1665183.2456277225
0.8088474659750746	1666691.1768457673
0.8090496778415686	1668199.4850466189
0.809251940261029	1669708.1703245193
0.8094542532460944	1671217.2327737408
0.8096566168094059	1672726.6724885725
0.8098590309636085	1675101.0066131598
0.8100614957213493	1677678.2815958133
0.8102640110952797	1680256.200897213
0.8104665770980536	1682834.7646784391
0.8106691937423283	1685413.9731006115
0.8108718610407639	1688590.2564841933
0.8110745790060241	1692223.3927770008
0.8112773476507757	1695857.437353885
0.8114801669876885	1699492.3904419122
0.8116830370294355	1703128.2522682096
0.8118859577886929	1706317.1268031741
0.8120889292781401	1708576.49844588
0.8122919515104597	1710836.4349314962
0.8124950244983374	1713096.936401234
0.8126981482544621	1715358.002996339
0.8129013227915257	1717722.4812664192
0.8131045481222237	1721265.1577550487
0.8133078242592543	1724808.7199128007
0.8135111512153191	1728353.1679610913
0.813714529003123	1731898.5021213945
0.8139179576353739	1735444.722615238
0.8141214371247829	1748514.0265216932
0.8143249674840641	1763433.1118864221
0.814528548725935	1778355.9270224834
0.8147321808631167	1793282.4728623487
0.8149358639083326	1808212.7503386694
0.8151395978743097	1817948.3012703806
0.8153433827737784	1824173.989003902
0.8155472186194719	1830401.2331593547
0.8157511054241268	1836630.034125845
0.815955043200483	1842860.3922925813
0.8161590319612831	1848228.5876515575
0.8163630717192736	1852015.462714504
0.8165671624872033	1855803.284496212
0.8167713042778252	1859592.053233369
0.8169754971038948	1863381.7691627124
0.8171797409781707	1866659.1660292381
0.8173840359134155	1865839.8168775726
0.8175883819223938	1865020.2628886201
0.8177927790178745	1864200.5040111702
0.8179972272126291	1863380.5401940006
0.8182017265194322	1862560.3713858773
0.8184062769510622	1868460.211880128
0.8186108785203001	1875395.6688579717
0.8188155312399301	1882332.8597000504
0.8190202351227402	1889271.7848398476
0.819224990181521	1896212.4447109252
0.8194297964290664	1904210.4460672028
0.8196346538781738	1912846.7117608958
0.8198395625416434	1921485.1365210088
0.8200445224322789	1930125.7208873155
0.820249533562887	1938768.465399711
0.8204545959462778	1946235.7156059514
0.8206597095952644	1951809.428707167
0.8208648745226633	1957384.5352366625
0.8210700907412941	1962961.0355427896
0.8212753582639793	1968538.9299739874
0.8214806771035456	1972496.7885901553
0.8216860472728215	1966465.6506309852
0.8218914687846397	1960433.004887325
0.822096941651836	1954398.8509822257
0.822302465887249	1948363.1885386535
0.8225080415037209	1942326.0171794675
0.8227136685140968	1949107.8899938075
0.8229193469312254	1957346.8590430492
0.8231250767679583	1965587.887834556
0.8233308580371503	1973830.9768832559
0.8235366907516598	1982076.1267042242
0.8237425749243477	1991074.9321541353
0.8239485105680789	2000474.3455190007
0.824154497695721	2009876.1087372012
0.824360536320145	2019280.222396208
0.8245666264542252	2028686.6870836292
0.8247727681108388	2037108.890787402
0.8249789613028664	2044120.185106078
0.8251852060431922	2051133.2322483396
0.825391502344703	2058148.0326523837
0.8255978502202894	2065164.586756535
0.8258042496828445	2071729.1461496092
0.8260107007452654	2076091.6834396936
0.8262172034204517	2080455.3113640961
0.8264237577213068	2084820.030195481
0.8266303636607373	2089185.8402065756
0.8268370212516525	2093552.7416701706
0.8270437305069654	2093465.8345948267
0.8272504914395923	2093030.784290109
0.8274573040624523	2092595.6252228152
0.8276641683884679	2092160.357365755
0.8278710844305652	2091724.9806917298
0.8280780522016729	2095329.4592385434
0.8282850717147234	2100781.498997758
0.8284921429826521	2106234.9017669074
0.8286992660183978	2111689.6678867526
0.8289064408349024	2117145.7976981243
0.8291136674451112	2120844.7289826986
0.8293209458619727	2122327.1257333066
0.8295282760984382	2123809.8930831
0.829735658167463	2125293.031124733
0.8299430920820048	2126776.539950874
0.8301505778550254	2128457.4602817516
0.8303581154994891	2130925.24768812
0.8305657050283641	2133393.652041343
0.8307733464546212	2135862.673495652
0.8309810397912352	2138332.312205329
0.8311887850511829	2140802.5683246786
0.8313965822474458	2151779.422834702
0.8316044313930077	2163153.8291230146
0.8318123325008561	2174531.07901291
0.8320202855839813	2185911.173215272
0.8322282906553774	2197294.1124411854
0.8324363477280413	2202596.5548034166
0.8326444568149735	2205451.190507293
0.8328526179291771	2208306.5398700926
0.8330608310836596	2211162.603070237
0.8332690962914304	2214019.380286178
0.8334774135655034	2216316.205559369
0.833685782918895	2217987.322551921
0.8338942043646247	2219658.85732372
0.834102677915716	2221330.809979213
0.834311203585195	2223003.1806228687
0.8345197813860912	2226658.904615794
0.8347284113314379	2236990.2880497244
0.8349370934342709	2247324.2543295077
0.8351458277076294	2257660.8041008487
0.8353546141645565	2267999.9380096495
0.8355634528180977	2278341.656701923
0.8357723436813022	2270383.7609487036
0.8359812867672226	2262197.8901873156
0.8361902820889144	2254009.9729582416
0.8363993296594368	2245820.008749858
0.8366084294918518	2237627.997050419
0.8368175815992247	2242831.7536962586
0.8370267859946247	2252651.1568425987
0.8372360426911234	2262473.0148397223
0.8374453517017962	2272297.3283013445
0.8376547130397217	2282124.097841331
0.8378641267179816	2288904.0821715924
0.8380735927496613	2292660.1208780003
0.8382831111478488	2296417.098594082
0.8384926819256358	2300175.015554591
0.8387023050961173	2303933.8719943436
0.8389119806723914	2307648.2749471446
0.8391217086675596	2311235.8552002106
0.8393314890947265	2314824.3323483374
0.8395413219670003	2318413.706615751
0.8397512072974922	2322003.978226735
0.8399611450993165	2325758.560963326
0.8401711353855914	2337629.1412206604
0.8403811781694378	2349502.6891230554
0.8405912734639802	2361379.205412429
0.8408014212823464	2373258.6908308803
0.8410116216376671	2385141.146120685
0.8412218745430766	2395300.823755361
0.8414321800117124	2404960.915157503
0.8416425380567154	2414623.4215825
0.8418529486912297	2424288.3436341058
0.8420634119284025	2433955.681916216
0.8422739277813847	2440143.907659352
0.8424844962633302	2443266.317984502
0.842695117387396	2446389.508912229
0.8429057911667428	2449513.4806376887
0.8431165176145345	2452638.2333560805
0.8433272967439382	2455999.055152421
0.8435381285681244	2459934.6495627235
0.8437490131002665	2463871.2278716275
0.8439599503535415	2467808.7903251066
0.84417094034113	2471747.3371692016
0.8443819830762154	2475787.391092342
0.8445930785719846	2481853.4882232104
0.8448042268416277	2487921.1018783585
0.8450154278983382	2493990.2324369196
0.8452266817553128	2500060.88027812
0.8454379884257517	2506133.045781281
0.8456493479228583	2512424.4877324356
0.845860760259839	2518769.9413855053
0.846072225449904	2525116.981401988
0.8462837435062666	2531465.6081784754
0.8464953144421433	2537815.8221116615
0.8467069382707537	2542820.780376033
0.8469186150053215	2546777.166952159
0.847130344659073	2550734.54262493
0.8473421272452377	2554692.9076416153
0.8475539627770492	2558652.262249559
0.8477658512677435	2563109.9820274957
0.8479777927305605	2568624.92725606
0.8481897871787432	2574141.25122093
0.848401834625538	2579658.954266794
0.8486139350841944	2585178.0367384166
0.8488260885679657	2590545.352228651
0.8490382950901076	2594047.2050080486
0.8492505546638802	2597549.9332506433
0.8494628673025462	2601053.5371752973
0.8496752330193721	2604558.017000938
0.8498876518276269	2608063.3729465296
0.8501001237405839	2603124.3183679366
0.8503126487715191	2596498.2014445993
0.850525226933712	2589870.427992035
0.8507378582404455	2583240.997596108
0.8509505427050057	2576609.9098425773
0.8511632803406821	2572948.0898481146
0.8513760711607672	2571319.8943610843
0.8515889151785576	2569691.2918251795
0.8518018124073523	2568062.2821386424
0.8520147628604541	2566432.865199684
0.8522277665511693	2570848.8309419025
0.8524408234928071	2586446.858549071
0.8526539336986805	2602048.785663145
0.8528670971821053	2617654.613258999
0.8530803139564007	2633264.3423117334
0.8532935840348901	2648669.751248311
0.8535069074308987	2662320.465713542
0.8537202841577566	2675974.5928574004
0.8539337142287962	2689632.1335330466
0.8541471976573534	2703293.0885938527
0.8543607344567677	2716957.4588934267
0.8545743246403821	2725079.735373383
0.8547879682215422	2732323.3520663884
0.8550016652135977	2739568.779663566
0.8552154156299011	2746816.0186176435
0.8554292194838088	2754065.0693814647
0.8556430767886797	2760083.906151714
0.855856987557877	2765356.1938281027
0.8560709518047664	2770629.799576407
0.8562849695427177	2775904.72372615
0.8564990407851035	2781180.9666069327
0.8567131655452999	2786416.0241947845
0.8569273438366862	2791582.745745088
0.8571415756726455	2796750.75897578
0.8573558610665638	2801920.0642097816
0.8575702000318304	2807090.661770086
0.8577845925818384	2812347.933192693
0.857999038729984	2818139.8414437
0.8582135384896665	2823933.197671768
0.858428091874289	2829728.0022388934
0.8586426988972576	2835524.255507159
0.8588573595719821	2841321.9578387435
0.8590720739118751	2846088.7438417287
0.8592868419303532	2850735.0025340994
0.8595016636408359	2855382.4227911434
0.8597165390567462	2860031.00490325
0.8599314681915105	2864680.749160886
0.8601464510585584	2868351.55181678
0.860361487671323	2871503.0397918443
0.8605765780432408	2874655.3156389017
0.8607917221877518	2877808.379554923
0.8610069201182988	2880962.2317369226
0.8612221718483286	2875185.4958004965
0.8614374773912907	2856531.527653746
0.8616528367606385	2837872.8960149637
0.8618682499698288	2819209.59971826
0.8620837170323213	2800541.6375974854
0.8622992379615795	2785132.5505189975
0.8625148127710699	2785869.6303655645
0.8627304414742627	2786606.8944820934
0.8629461240846313	2787344.3429146516
0.8631618606156526	2788081.9757093177
0.8633776510808066	2788819.7929121824
0.8635934954935769	2816039.354468129
0.8638093938674504	2845436.4622748652
0.8640253462159173	2874840.9193585515
0.8642413525524714	2904252.7275565085
0.8644574128906095	2933671.8887065086
0.8646735272438323	2938625.7059513587
0.8648896956256433	2932200.27865085
0.8651059180495498	2925773.244993516
0.8653221945290621	2919344.6045777737
0.8655385250776946	2912914.357001919
0.8657549097089641	2915364.168394425
0.8659713484363913	2929185.0778141357
0.8661878412735006	2943009.4424612084
0.866404388233819	2956837.26319944
0.8666209893308775	2970668.5408928506
0.8668376445782103	2982579.8784999605
0.8670543539893549	2986643.830693583
0.8672711175778525	2990708.7988752564
0.8674879353572469	2994774.783298971
0.8677048073410862	2998841.7842187933
0.8679217335429217	3002909.8018888477
0.8681387139763074	3009646.9977403656
0.8683557486548015	3016518.425340384
0.8685728375919655	3023391.57079731
0.8687899808013633	3030266.434540586
0.8690071782965637	3037143.0169998063
0.869224430091138	3042338.2702976665
0.8694417361986609	3046849.9921803568
0.8696590966327107	3051362.841993517
0.869876511406869	3055876.8200191297
0.8700939805347206	3060391.9265392474
0.8703115040298544	3065372.185435448
0.870529081905862	3070884.2026075767
0.8707467141763385	3076397.597783997
0.8709644008548827	3081912.371309211
0.8711821419550964	3087428.5235278034
0.8713999374905854	3093219.1539811017
0.871617787474958	3099953.7921744087
0.8718356919218269	3106690.11402727
0.8720536508448075	3113428.119960595
0.8722716642575187	3120167.8103953996
0.8724897321735832	3126909.185752816
0.8727078546066265	3132807.1372532295
0.8729260315702784	3138693.706358296
0.873144263078171	3144581.747105632
0.8733625491439405	3150471.2598631554
0.8735808897812266	3156362.2449988704
0.8737992850036719	3158945.0084023126
0.874017734824923	3160356.178132854
0.8742362392586293	3161767.700655827
0.874454798318444	3163179.576059431
0.8746734120180236	3164591.804431885
0.8748920803710283	3167340.101836732
0.875110803391121	3171431.3535950975
0.8753295810919689	3175523.628166405
0.875548413487242	3179616.9258063557
0.8757673005906139	3183711.246770716
0.8759862424157616	3189639.548829459
0.8762052389763657	3200873.0820331303
0.8764242902861098	3212109.423620095
0.8766433963586814	3223348.574292459
0.8768625572077712	3234590.534752495
0.8770817728470732	3245744.482358364
0.8773010432902849	3249809.9608983584
0.8775203685511077	3253876.4558079937
0.8777397486432454	3257943.9673413513
0.8779591835804065	3262012.495752597
0.8781786733763015	3266082.041295941
0.8783982180446457	3263418.221725521
0.878617817599157	3258750.383281667
0.8788374720535569	3254081.377878204
0.8790571814215703	3249411.205223391
0.8792769457169257	3244739.8650254146
0.879496764953355	3240751.49053904
0.8797166391445934	3237377.1999521847
0.8799365683043796	3234002.065792683
0.8801565524464557	3230626.087849641
0.8803765915845676	3227249.2659121105
0.8805966857324639	3229696.5904082255
0.880816834903897	3246775.1569602797
0.881037039112623	3263857.9931539786
0.8812572983724012	3280945.1000567246
0.8814776126969944	3298036.4787362036
0.8816979821001687	3314728.022589741
0.8819184065956938	3321910.9767442346
0.8821388861973429	3329095.7266372745
0.8823594209188923	3336282.2727177804
0.882580010774122	3343470.6154348035
0.8828006557768155	3350660.75523751
0.8830213559407598	3358077.4650346567
0.8832421112797452	3365552.5615644194
0.8834629218075651	3373029.5268683103
0.8836837875380171	3380508.361413529
0.8839047084849018	3387989.0656673857
0.884125684662023	3388437.4671984706
0.8843467160831886	3383248.989618786
0.8845678027622095	3378059.214919707
0.8847889447129001	3372868.1427769517
0.8850101419490785	3367675.772866162
0.8852313944845657	3369041.8144245395
0.885452702333187	3384766.597170987
0.8856740655087704	3400495.3111131196
0.8858954840251476	3416227.9572337335
0.8861169578961539	3431964.5365158697
0.886338487135628	3445981.8591095004
0.886560071757412	3437071.484575684
0.8867817117753515	3428158.882448235
0.8870034072032955	3419244.0521702496
0.8872251580550963	3410326.9931847053
0.8874469643446101	3401407.704934409
0.8876688260856963	3409736.6993003837
0.8878907432922178	3421637.990542291
0.8881127159780409	3433542.2571070017
0.8883347441570356	3445449.4997383677
0.8885568278430749	3457359.719180379
0.8887789670500358	3464881.819823222
0.8890011617917983	3469290.872966683
0.8892234120822464	3473701.0283734323
0.8894457179352669	3478112.2863190295
0.8896680793647509	3482524.6470791167
0.8898904963845921	3484135.609830177
0.8901129690086883	3480399.729454682
0.8903354972509405	3476662.915109094
0.8905580811252535	3472925.166559917
0.8907807206455347	3469186.4835736076
0.8910034158256963	3464632.2235569987
0.8912261666796527	3452796.395643326
0.8914489732213227	3440957.608772672
0.8916718354646282	3429115.862205288
0.8918947534234944	3417271.155201274
0.8921177271118502	3405423.4870205163
0.8923407565436284	3392473.3849705895
0.8925638417327644	3379340.691623724
0.8927869826931977	3366204.7151035178
0.8930101794388711	3353065.454589182
0.8932334319837308	3339922.90925972
0.8934567403417267	3331706.560103143
0.8936801045268123	3326551.2495295433
0.8939035245529441	3321394.650128304
0.8941270004340824	3316236.7615772123
0.894350532184191	3311077.583553984
0.8945741198172371	3325036.663522063
0.8947977633471915	3370706.7226121146
0.8950214627880284	3416388.1992169367
0.8952452181537254	3462081.096190883
0.8954690294582639	3507785.4163891
0.8956928967156286	3548050.891907173
0.8959168199398075	3552956.118101468
0.8961407991447926	3557862.570602312
0.8963648343445789	3562770.249716282
0.896588925553165	3567679.1557500274
0.8968130727845534	3572589.289010282
0.8970372760527496	3571863.623127941
0.8972615353717629	3570432.4702726696
0.8974858507556059	3569000.959629184
0.8977102222182949	3567569.091108038
0.8979346497738496	3566136.8646197612
0.8981591334362931	3586288.582594255
0.8983836732196523	3618249.2860226254
0.8986082691379572	3650217.9796268316
0.8988329212052417	3682194.665404439
0.8990576294355432	3714179.3453535186
0.8992823938429022	3735602.676549506
0.8995072144413631	3741316.0908356863
0.8997320912449734	3747030.933475436
0.8999570242677847	3752747.2048258446
0.9001820135238516	3758464.905244091
0.9004070590272328	3764250.594625516
0.9006321607919896	3770386.6582354927
0.9008573188321878	3776524.255861378
0.9010825331618959	3782663.387886667
0.9013078037951865	3788804.054694963
0.9015331307461353	3794946.2566699586
0.9017585140288219	3804220.185947013
0.9019839536573292	3813766.0452353973
0.9022094496457435	3823314.2909885966
0.9024350020081551	3832864.9238032447
0.9026606107586572	3842417.9442760935
0.902886275911347	3856419.8951708446
0.9031119974803249	3872568.8893856774
0.9033377754796951	3888721.9208490644
0.903563609923565	3904878.99057031
0.903789500826046	3921040.0995589965
0.9040154482012526	3931791.5840112334
0.904241452063303	3935532.8262609793
0.9044675124263188	3939275.0038212864
0.9046936293044254	3943018.116925983
0.9049198027117517	3946762.165808958
0.9051460326624297	3951533.4809477204
0.9053723191705955	3960676.3418537104
0.9055986622503881	3969821.488474918
0.9058250619159507	3978968.9213827816
0.9060515181814298	3988118.641148878
0.9062780310609752	3997270.6483449093
0.9065046005687405	3986574.4128513183
0.906731226718883	3974768.1008800156
0.9069579095255627	3962958.8373307358
0.907184649002944	3951146.6214655675
0.907411445165195	3939331.4525464214
0.9076382980264862	3951187.880846442
0.907865207600993	3972879.270441241
0.9080921739028933	3994576.082883432
0.9083191969463691	4016278.31952873
0.9085462767456058	4037985.9817331997
0.9087734133147922	4052425.2389959367
0.9090006066681211	4058466.7401169967
0.909227856819788	4064509.7516133282
0.9094551637839932	4070554.2738625426
0.9096825275749393	4076600.3072423176
0.9099099482068329	4083499.0538949873
0.9101374256938848	4093424.71106508
0.9103649600503083	4103352.8496494605
0.9105925512903209	4113283.470268485
0.9108201994281437	4123216.573542675
0.9110479044780008	4133152.1600926723
0.9112756664541204	4142711.3583837966
0.911503485370734	4152264.2741576456
0.9117313612420768	4161819.578160438
0.9119592940823873	4171377.2709892285
0.912187283905908	4180937.353241229
0.9124153307268845	4172001.4732167013
0.9126434345595664	4156349.5385960396
0.9128715954182063	4140693.690991738
0.9130998133170609	4125033.929425527
0.9133280882703902	4109370.2529189256
0.913556420292458	4107856.4632013473
0.9137848093975312	4120939.320755778
0.9140132555998806	4134025.449024596
