#wavelength	surface flux
0.8	9737460.412347425
0.8002000000000001	9752407.954748373
0.8004000500000003	9764613.08328821
0.8006001500125003	9776793.524283776
0.8008003000500035	9788977.010389592
0.8010005001250161	9801163.542366942
0.8012007502500472	9813353.120977268
0.8014010504376099	9826853.185179153
0.8016014007002193	9840794.576249337
0.8018018010503944	9854739.452667287
0.8020022515006572	9868687.815304348
0.8022027520635323	9882639.665032057
0.8024033027515483	9896460.853006694
0.8026039035772362	9910154.034785334
0.8028045545531306	9923850.639859417
0.8030052556917691	9937550.669084778
0.803206007005692	9951254.123317432
0.8034068085074435	9965004.753819386
0.8036076602095705	9978881.46078376
0.8038085621246229	9992761.636924865
0.8040095142651542	10006645.283110013
0.8042105166437206	10020532.400206704
0.8044115692728815	10034370.087791385
0.8046126721651998	10045935.857054722
0.8048138253332411	10057504.517760362
0.8050150287895745	10069076.070631191
0.805216282546772	10080650.516390232
0.8054175866174087	10092227.85576071
0.8056189410140631	10104277.19353787
0.8058203457493168	10116462.330527201
0.8060218008357541	10128650.513800764
0.8062233062859632	10140841.744120153
0.8064248621125346	10153036.022247111
0.806626468328063	10166051.158257607
0.8068281249451449	10179771.94731898
0.8070298319763813	10193496.166577635
0.8072315894343755	10207223.816891095
0.8074333973317341	10220954.899117138
0.8076352556810671	10234243.284374705
0.8078371644949874	10246461.082951324
0.8080391237861113	10258681.935977591
0.8082411335670578	10270905.844217107
0.8084431938504498	10283132.808433695
0.8086453046489125	10295333.72043144
0.8088474659750746	10306995.725975268
0.8090496778415686	10318660.647020496
0.809251940261029	10330328.484295977
0.8094542532460944	10341999.238530789
0.8096566168094059	10353672.910454145
0.8098590309636085	10365230.670762701
0.8100614957213493	10376763.507371865
0.8102640110952797	10388299.227190185
0.8104665770980536	10399837.830938464
0.8106691937423283	10411379.319337685
0.8108718610407639	10423615.362768281
0.8110745790060241	10436383.34869497
0.8112773476507757	10449154.526618155
0.8114801669876885	10461928.897335814
0.8116830370294355	10474706.461646147
0.8118859577886929	10487897.858728204
0.8120889292781401	10501945.467532454
0.8122919515104597	10515996.588238906
0.8124950244983374	10530051.221725537
0.8126981482544621	10544109.368870534
0.8129013227915257	10558185.230781877
0.8131045481222237	10572427.20645815
0.8133078242592543	10586672.742628342
0.8135111512153191	10600921.840182573
0.813714529003123	10615174.500011194
0.8139179576353739	10629430.723004777
0.8141214371247829	10646630.842436517
0.8143249674840641	10664405.441802915
0.814528548725935	10682184.484819144
0.8147321808631167	10699967.97259615
0.8149358639083326	10717755.906245096
0.8151395978743097	10732712.391292587
0.8153433827737784	10745756.565420311
0.8155472186194719	10758804.000591561
0.8157511054241268	10771854.697621603
0.815955043200483	10784908.657325909
0.8161590319612831	10797834.594532376
0.8163630717192736	10810523.19765368
0.8165671624872033	10823214.972925749
0.8167713042778252	10835909.921141647
0.8169754971038948	10848608.043094607
0.8171797409781707	10859958.846765017
0.8173840359134155	10860531.085749818
0.8175883819223938	10861103.467794366
0.8177927790178745	10861675.992934423
0.8179972272126291	10862248.661205767
0.8182017265194322	10862821.472644176
0.8184062769510622	10872186.98389635
0.8186108785203001	10882907.880852392
0.8188155312399301	10893631.458032658
0.8190202351227402	10904357.716107232
0.819224990181521	10915086.655746318
0.8194297964290664	10937518.183031725
0.8196346538781738	10967007.415432306
0.8198395625416434	10996504.020140976
0.8200445224322789	11026007.999000836
0.820249533562887	11055519.353855401
0.8204545959462778	11079718.135555286
0.8206597095952644	11095360.649446527
0.8208648745226633	11111007.073966252
0.8210700907412941	11126657.410092104
0.8212753582639793	11142311.658801971
0.8214806771035456	11157176.876114527
0.8216860472728215	11167160.302700058
0.8218914687846397	11177146.225142235
0.822096941651836	11187134.644065028
0.822302465887249	11197125.560092546
0.8225080415037209	11207118.973849077
0.8227136685140968	11223530.370695204
0.8229193469312254	11240674.161991086
0.8231250767679583	11257822.239234796
0.8233308580371503	11274974.603497809
0.8235366907516598	11292131.255851902
0.8237425749243477	11308836.711121554
0.8239485105680789	11325304.927036684
0.824154497695721	11341777.260005783
0.824360536320145	11358253.711058129
0.8245666264542252	11374734.281223236
0.8247727681108388	11390833.466039622
0.8249789613028664	11406384.559231674
0.8251852060431922	11421939.540197039
0.825391502344703	11437498.409907637
0.8255978502202894	11453061.169335676
0.8258042496828445	11468334.40854151
0.8260107007452654	11482186.495299645
0.8262172034204517	11496042.045079455
0.8264237577213068	11509901.058746714
0.8266303636607373	11523763.537167395
0.8268370212516525	11537629.481207674
0.8270437305069654	11549970.31932457
0.8272504914395923	11562194.794651618
0.8274573040624523	11574422.3260975
0.8276641683884679	11586652.914426234
0.8278710844305652	11598886.560402064
0.8280780522016729	11613248.879836297
0.8282850717147234	11628586.404552054
0.8284921429826521	11643927.763648974
0.8286992660183978	11659272.95808568
0.8289064408349024	11674621.988820985
0.8291136674451112	11689579.28236657
0.8293209458619727	11704041.515679348
0.8295282760984382	11718507.364550436
0.829735658167463	11732976.829883758
0.8299430920820048	11747449.912583396
0.8301505778550254	11761852.01054386
0.8303581154994891	11775959.94656986
0.8305657050283641	11790071.40957988
0.8307733464546212	11804186.400455644
0.8309810397912352	11818304.92007915
0.8311887850511829	11832426.969332531
0.8313965822474458	11849752.140345309
0.8316044313930077	11867230.152605636
0.8318123325008561	11884712.534369044
0.8320202855839813	11902199.286727885
0.8322282906553774	11919690.410774818
0.8324363477280413	11935293.674645336
0.8326444568149735	11950139.03301871
0.8328526179291771	11964988.10273166
0.8330608310836596	11979840.88471206
0.8332690962914304	11994697.379887937
0.8334774135655034	12008897.270187033
0.833685782918895	12022363.112450656
0.8338942043646247	12035832.321174836
0.834102677915716	12049304.897201207
0.834311203585195	12062780.841371574
0.8345197813860912	12077161.815399764
0.8347284113314379	12094581.459485665
0.8349370934342709	12112005.458482578
0.8351458277076294	12129433.813479219
0.8353546141645565	12146866.525564639
0.8355634528180977	12164303.595828071
0.8357723436813022	12172410.025911637
0.8359812867672226	12180403.219145253
0.8361902820889144	12188398.410677174
0.8363993296594368	12196395.601006981
0.8366084294918518	12204394.790634371
0.8368175815992247	12218535.789505176
0.8370267859946247	12234794.937061839
0.8372360426911234	12251058.149405383
0.8374453517017962	12267325.427552013
0.8376547130397217	12283596.772518177
0.8378641267179816	12299126.389508199
0.8380735927496613	12313919.865586348
0.8382831111478488	12328717.040033506
0.8384926819256358	12343517.913774269
0.8387023050961173	12358322.48773348
0.8389119806723914	12372907.620549474
0.8391217086675596	12386868.404339887
0.8393314890947265	12400832.678326234
0.8395413219670003	12414800.44338108
0.8397512072974922	12428771.700377202
0.8399611450993165	12442822.187342683
0.8401711353855914	12460637.266986651
0.8403811781694378	12478456.800400525
0.8405912734639802	12496280.788697759
0.8408014212823464	12514109.232992074
0.8410116216376671	12531942.134397458
0.8412218745430766	12549164.194526171
0.8414321800117124	12566211.531758403
0.8416425380567154	12583263.130824953
0.8418529486912297	12600318.992791273
0.8420634119284025	12617379.11872307
0.8422739277813847	12634355.527191397
0.8424844962633302	12651258.663769744
0.842695117387396	12668166.026132217
0.8429057911667428	12685077.615335278
0.8431165176145345	12701993.43243565
0.8433272967439382	12717891.480965106
0.8435381285681244	12731300.568642689
0.8437490131002665	12744713.008592188
0.8439599503535415	12758128.801651668
0.84417094034113	12771547.948659422
0.8443819830762154	12784971.290379915
0.8445930785719846	12798414.908316784
0.8448042268416277	12811861.887158131
0.8450154278983382	12825312.227744186
0.8452266817553128	12838765.930915387
0.8454379884257517	12852222.997512382
0.8456493479228583	12868420.411705049
0.845860760259839	12885280.973731171
0.846072225449904	12902145.750897799
0.8462837435062666	12919014.744258722
0.8464953144421433	12935887.954867996
0.8467069382707537	12951978.540311063
0.8469186150053215	12967459.828081917
0.847130344659073	12982944.98617472
0.8473421272452377	12998434.01555703
0.8475539627770492	13013926.9171967
0.8477658512677435	13029452.721840255
0.8479777927305605	13045044.048846876
0.8481897871787432	13060639.273685247
0.848401834625538	13076238.397329833
0.8486139350841944	13091841.420755321
0.8488260885679657	13107359.67379277
0.8490382950901076	13121800.93662749
0.8492505546638802	13136245.809777927
0.8494628673025462	13150694.294146644
0.8496752330193721	13165146.390636476
0.8498876518276269	13179602.10015041
0.8501001237405839	13194502.787175793
0.8503126487715191	13209495.303295916
0.850525226933712	13224491.56754506
0.8507378582404455	13239491.580860266
0.8509505427050057	13254495.34417881
0.8511632803406821	13270951.638966868
0.8513760711607672	13288404.197194725
0.8515889151785576	13305861.118562166
0.8518018124073523	13323322.404159935
0.8520147628604541	13340788.055079091
0.8522277665511693	13358314.99294023
0.8524408234928071	13375951.58017428
0.8526539336986805	13393592.576555142
0.8528670971821053	13411237.983185101
0.8530803139564007	13428887.801166696
0.8532935840348901	13446420.132527122
0.8535069074308987	13462927.346985564
0.8537202841577566	13479438.688247636
0.8539337142287962	13495954.157345023
0.8541471976573534	13512473.755309677
0.8543607344567677	13528997.483173823
0.8545743246403821	13545382.24330323
0.8547879682215422	13561748.373918854
0.8550016652135977	13578118.596067127
0.8552154156299011	13594492.91077094
0.8554292194838088	13610871.319053441
0.8556430767886797	13626435.261393068
0.855856987557877	13641506.086374883
0.8560709518047664	13656580.67906293
0.8562849695427177	13671659.040399157
0.8564990407851035	13686741.17132572
0.8567131655452999	13702073.73806281
0.8569273438366862	13717814.307231182
0.8571415756726455	13733558.811541848
0.8573558610665638	13749307.251978597
0.8575702000318304	13765059.629525438
0.8577845925818384	13781441.263921991
0.857999038729984	13801732.965042248
0.8582135384896665	13822029.739087781
0.858428091874289	13842331.587326827
0.8586426988972576	13862638.511027927
0.8588573595719821	13882950.51145996
0.8590720739118751	13897388.307865134
0.8592868419303532	13911136.5288012
0.8595016636408359	13924888.186792502
0.8597165390567462	13938643.282698298
0.8599314681915105	13952401.817378072
0.8601464510585584	13964936.28964201
0.860361487671323	13976822.346004909
0.8605765780432408	13988711.373881897
0.8607917221877518	14000603.374015864
0.8610069201182988	14012498.347149862
0.8612221718483286	14001142.013593934
0.8614374773912907	13956258.648705887
0.8616528367606385	13911364.062976627
0.8618682499698288	13866458.253600907
0.8620837170323213	13821541.21777285
0.8622992379615795	13784404.474693611
0.8625148127710699	13785815.704768235
0.8627304414742627	13787227.287650377
0.8629461240846313	13788639.223428238
0.8631618606156526	13790051.512190046
0.8633776510808066	13791464.154024044
0.8635934954935769	13871901.858153768
0.8638093938674504	13958837.470044259
0.8640253462159173	14045794.81583772
0.8642413525524714	14132773.90096763
0.8644574128906095	14219774.730868801
0.8646735272438323	14237534.322645325
0.8648896956256433	14223089.145559052
0.8651059180495498	14208640.357178507
0.8653221945290621	14194187.95660088
0.8655385250776946	14179731.942923088
0.8657549097089641	14186688.571106171
0.8659713484363913	14221064.453788962
0.8661878412735006	14255448.930442441
0.866404388233819	14289842.003215078
0.8666209893308775	14324243.674255893
0.8668376445782103	14354719.732053038
0.8670543539893549	14369145.88574623
0.8672711175778525	14383575.645977855
0.8674879353572469	14398009.01364952
0.8677048073410862	14412445.989663111
0.8679217335429217	14426886.574920712
0.8681387139763074	14441711.869846605
0.8683557486548015	14456559.803149547
0.8685728375919655	14471411.448435836
0.8687899808013633	14486266.806633411
0.8690071782965637	14501125.878670556
0.869224430091138	14509193.613863502
0.8694417361986609	14514498.46807916
0.8696590966327107	14519804.64850837
0.869876511406869	14525112.155482689
0.8700939805347206	14530420.989333749
0.8703115040298544	14537803.021103512
0.870529081905862	14547555.645972906
0.8707467141763385	14557310.708998514
0.8709644008548827	14567068.210789878
0.8711821419550964	14576828.151956683
0.8713999374905854	14590520.9251427
0.871617787474958	14617782.268124033
0.8718356919218269	14645050.426441135
0.8720536508448075	14672325.401797818
0.8722716642575187	14699607.195898324
0.8724897321735832	14726895.810447369
0.8727078546066265	14748918.250563895
0.8729260315702784	14770865.976714931
0.873144263078171	14792819.189797482
0.8733625491439405	14814777.891183306
0.8735808897812266	14836742.082244482
0.8737992850036719	14851093.215649134
0.874017734824923	14862749.572156146
0.8742362392586293	14874408.84275228
0.874454798318444	14886071.028166063
0.8746734120180236	14897736.129126199
0.8748920803710283	14911656.554508569
0.875110803391121	14927843.915560393
0.8753295810919689	14944035.323452491
0.875548413487242	14960230.77919656
0.8757673005906139	14976430.283804568
0.8759862424157616	14997059.237180557
0.8762052389763657	15030498.448335009
0.8764242902861098	15063946.019292224
0.8766433963586814	15097401.952142188
0.8768625572077712	15130866.248975376
0.8770817728470732	15164189.030644387
0.8773010432902849	15185817.794101559
0.8775203685511077	15207451.964749625
0.8777397486432454	15229091.543940326
0.8779591835804065	15250736.533025851
0.8781786733763015	15272386.933358619
0.8783982180446457	15268535.96701551
0.878617817599157	15257096.247854447
0.8788374720535569	15245653.668763597
0.8790571814215703	15234208.22902798
0.8792769457169257	15222759.927932426
0.879496764953355	15221288.825162066
0.8797166391445934	15228790.084418183
0.8799365683043796	15236293.218989113
0.8801565524464557	15243798.229343688
0.8803765915845676	15251305.115950858
0.8805966857324639	15268136.817485457
0.880816834903897	15308389.15281595
0.881037039112623	15348651.55123029
0.8812572983724012	15388924.015244232
0.8814776126969944	15429206.547374194
0.8816979821001687	15468646.787798071
0.8819184065956938	15488032.135350917
0.8821388861973429	15507422.329240669
0.8823594209188923	15526817.370678874
0.882580010774122	15546217.26087743
0.8828006557768155	15565622.001048546
0.8830213559407598	15594180.131888328
0.8832421112797452	15625046.352805194
0.8834629218075651	15655920.29027727
0.8836837875380171	15686801.946233725
0.8839047084849018	15717691.322604174
0.884125684662023	15723533.210386476
0.8843467160831886	15709298.00699722
0.8845678027622095	15695059.244807119
0.8847889447129001	15680816.922926467
0.8850101419490785	15666571.040465346
0.8852313944845657	15673318.236034496
0.885452702333187	15726026.187018123
0.8856740655087704	15778747.314989487
0.8858954840251476	15831481.623242829
0.8861169578961539	15884229.115073211
0.886338487135628	15932512.60612452
0.886560071757412	15921228.410526076
0.8867817117753515	15909941.393878734
0.8870034072032955	15898651.555477222
0.8872251580550963	15887358.894616125
0.8874469643446101	15876063.410589805
0.8876688260856963	15897093.145505505
0.8878907432922178	15924818.840623159
0.8881127159780409	15952551.467164572
0.8883347441570356	15980291.026862657
0.8885568278430749	16008037.521450635
0.8887789670500358	16024986.034538398
0.8890011617917983	16034274.060605071
0.8892234120822464	16043564.408678267
0.8894457179352669	16052857.079338472
0.8896680793647509	16062152.07316635
0.8898904963845921	16073959.840693137
0.8901129690086883	16090560.564749599
0.8903354972509405	16107165.438987069
0.8905580811252535	16123774.464443114
0.8907807206455347	16140387.642155498
0.8910034158256963	16156062.439213548
0.8912261666796527	16163317.763126833
0.8914489732213227	16170574.900871098
0.8916718354646282	16177833.852899805
0.8918947534234944	16185094.619666513
0.8921177271118502	16192357.20162491
0.8923407565436284	16214328.800412921
0.8925638417327644	16238705.036521371
0.8927869826931977	16263087.366688857
0.8930101794388711	16287475.792438883
0.8932334319837308	16311870.315295342
0.8934567403417267	16337671.888682114
0.8936801045268123	16364350.439154759
0.8939035245529441	16391035.659265002
0.8941270004340824	16417727.550680285
0.894350532184191	16444426.115068415
0.8945741198172371	16472201.89361768
0.8947977633471915	16501759.978207644
0.8950214627880284	16531325.452318756
0.8952452181537254	16560898.317798376
0.8954690294582639	16590478.576494385
0.8956928967156286	16618056.124719176
0.8959168199398075	16632595.698459681
0.8961407991447926	16647138.907093624
0.8963648343445789	16661685.751529723
0.896588925553165	16676236.232676925
0.8968130727845534	16690790.351444416
0.8970372760527496	16711424.594444012
0.8972615353717629	16732824.286734922
0.8974858507556059	16754229.328948906
0.8977102222182949	16775639.722423436
0.8979346497738496	16797055.46849635
0.8981591334362931	16820773.29959315
0.8983836732196523	16845753.08837515
0.8986082691379572	16870739.12210433
0.8988329212052417	16895731.402341943
0.8990576294355432	16920729.930649634
0.8992823938429022	16937647.050582238
0.8995072144413631	16942543.080122076
0.8997320912449734	16947440.3336693
0.8999570242677847	16952338.81152991
0.9001820135238516	16957238.514009982
0.9004070590272328	16964802.330225866
0.9006321607919896	16986327.809018414
0.9008573188321878	17007858.669180684
0.9010825331618959	17029394.912057985
0.9013078037951865	17050936.538996007
0.9015331307461353	17072483.55134075
0.9017585140288219	17097269.092631713
0.9019839536573292	17122339.309225384
0.9022094496457435	17147415.793373186
0.9024350020081551	17172498.546642054
0.9026606107586572	17197587.570599232
0.902886275911347	17221697.89450574
0.9031119974803249	17245339.42078101
0.9033377754796951	17268986.857437845
0.903563609923565	17292640.205953836
0.903789500826046	17316299.46780697
0.9040154482012526	17335243.213420264
0.904241452063303	17348075.493288185
0.9044675124263188	17360910.981226068
0.9046936293044254	17373749.678035934
0.9049198027117517	17386591.58452001
0.9051460326624297	17400951.9067878
0.9053723191705955	17421767.915825058
0.9055986622503881	17442589.128864553
0.9058250619159507	17463415.547207307
0.9060515181814298	17484247.172154665
0.9062780310609752	17505084.00500824
0.9065046005687405	17522740.086993724
0.906731226718883	17540222.847706407
0.9069579095255627	17557709.979109246
0.907184649002944	17575201.482294936
0.907411445165195	17592697.358356442
0.9076382980264862	17604515.826570395
0.907865207600993	17613977.615936164
0.9080921739028933	17623441.77074927
0.9083191969463691	17632908.29160108
0.9085462767456058	17642377.17908311
0.9087734133147922	17662854.69598873
0.9090006066681211	17696049.701541815
0.909227856819788	17729253.005846247
0.9094551637839932	17762464.610976797
0.9096825275749393	17795684.51900862
0.9099099482068329	17824521.79781309
0.9101374256938848	17837760.829637967
0.9103649600503083	17851003.171220798
0.9105925512903209	17864248.82338902
0.9108201994281437	17877497.786970295
0.9110479044780008	17890750.062792454
0.9112756664541204	17911045.876016464
0.911503485370734	17931507.9126876
0.9117313612420768	17951975.0648679
0.9119592940823873	17972447.33383624
0.912187283905908	17992924.720871825
0.9124153307268845	18006573.43763739
0.9126434345595664	18017745.300396986
0.9128715954182063	18028919.95612226
0.9130998133170609	18040097.405511476
