#wavelength	surface flux
0.7	1830917.8618584608
0.7001166666666666	1833186.3884157229
0.7002333527777778	1835381.2951141547
0.700350058336574	1837576.5676303685
0.7004667833462966	1839772.2060253322
0.7005835278101878	1841968.2103600344
0.7007002917314895	1844164.5806954557
0.7008170751134447	1846361.317092599
0.7009338779592968	1848558.4196124743
0.7010507002722901	1850719.9649067607
0.7011675420556689	1852838.1540577167
0.701284403312678	1854956.6962401946
0.7014012840465635	1857075.591513039
0.7015181842605713	1859194.8399350953
0.701635103957948	1861314.4415652202
0.701752043141941	1863434.3964622833
0.701869001815798	1865554.7046851658
0.7019859799827672	1867629.8329581786
0.7021029776460976	1869673.6184489226
0.7022199948090387	1871717.7445705843
0.7023370314748403	1873762.211379932
0.7024540876467528	1875807.0189337477
0.702571163328027	1877852.1672888189
0.7026882585219152	1879897.6565019547
0.7028053732316688	1881943.4866299564
0.7029225074605406	1884216.086632671
0.7030396612117841	1886576.4999858085
0.7031568344886527	1888937.3067411717
0.7032740272944008	1891298.5069643264
0.7033912396322832	1893660.1007208526
0.7035084715055552	1896022.0880763358
0.7036257229174727	1898384.4690963791
0.7037429938712924	1900747.2438465948
0.7038602843702709	1903143.999939673
0.7039775944176659	1905546.8521858708
0.7040949240167356	1907950.1049074437
0.7042122731707383	1910353.7581711356
0.7043296418829335	1912757.8120437062
0.7044470301565806	1915162.2665919217
0.70456443799494	1917567.1218825602
0.7046818654012724	1919972.377982415
0.7047993123788394	1922279.9368540654
0.7049167789309024	1924587.7677469284
0.7050342650607243	1926895.983278277
0.7051517707715678	1929204.5835122133
0.7052692960666963	1931513.5685128542
0.705386840949374	1933822.9383443273
0.7055044054228656	1936132.6930707763
0.7056219894904361	1938427.5553185027
0.7057395931553511	1940625.713552144
0.705857216420877	1942824.2381454923
0.7059748592902804	1945023.1291596051
0.7060925217668288	1947222.386655556
0.70621020385379	1949422.0106944223
0.7063279055544321	1951622.0013372926
0.7064456268720246	1953822.3586452731
0.7065633678098366	1956040.7587706582
0.7066811283711383	1958308.2089086617
0.7067989085592001	1960576.0369550216
0.7069167083772933	1962844.242972721
0.7070345278286895	1965112.8270247583
0.707152366916661	1967381.789174138
0.7072702256444803	1969651.1294838733
0.7073881040154211	1971920.8480169966
0.7075060020327569	1974214.7642495048
0.7076239196997625	1976543.7521406887
0.7077418570197124	1978873.1281965186
0.7078598139958823	1981202.8924816912
0.7079777906315483	1983533.0450609135
0.7080957869299869	1985863.5859988972
0.7082138028944751	1988194.5153603693
0.7083318385282908	1990525.8332100702
0.7084498938347124	1992800.797443703
0.708567968817018	1995028.033667699
0.7086860634784875	1997255.641097735
0.7088041778224007	1999483.6197956775
0.7089223118520377	2001711.9698234003
0.7090404655706796	2003940.6912427929
0.709158638981608	2006169.7841157583
0.709276832088105	2008399.2485042026
0.7093950448934531	2010739.0944073193
0.7095132774009353	2013131.795210627
0.7096315296138355	2015524.8947974027
0.7097498015354378	2017918.3932341088
0.7098680931690269	2020312.290587219
0.7099864045178884	2022706.5869232242
0.7101047355853081	2025101.282308618
0.7102230863745722	2027496.376809908
0.7103414568889679	2029853.651164903
0.7104598471317828	2032202.6340670297
0.7105782571063047	2034552.0084663045
0.7106966868158224	2036901.7744279793
0.710815136263625	2039251.932017314
0.7109336054530023	2041602.4812995815
0.7110520943872445	2043953.422340062
0.7111706030696424	2046304.7552040506
0.7112891315034873	2048665.085760189
0.7114076796920712	2051026.2203124168
0.7115262476386865	2053387.7483870704
0.7116448353466263	2055749.6700497344
0.711763442819184	2058111.9853660103
0.711882070059654	2060474.6944015077
0.7120007170713306	2062837.797221843
0.7121193838575091	2065211.851002257
0.7122380704214853	2067696.40840921
0.7123567767665555	2070181.3799090616
0.7124755028960166	2072666.765570831
0.7125942488131658	2075152.565463542
0.7127130145213015	2077638.779656242
0.7128318000237216	2080125.4082179666
0.7129506053237256	2082612.4512177883
0.7130694304246129	2085089.3195435568
0.7131882753296837	2087529.577172795
0.7133071400422386	2089970.2415116385
0.7134260245655789	2092411.3126278704
0.7135449289030065	2094852.7905892888
0.7136638530578235	2097294.6754636997
0.7137827970333332	2099736.9673189265
0.7139017608328388	2102179.666222795
0.7140207444596443	2104638.5852367356
0.7141397479170543	2107126.122881666
0.7142587712083737	2109614.0751162
0.7143778143369084	2112102.442009442
0.7144968773059646	2114591.2236305
0.7146159601188489	2117080.4200484944
0.7147350627788687	2119570.031332558
0.7148541852893318	2122060.057551835
0.7149733276535467	2124511.115323687
0.7150924898748222	2126922.868212643
0.715211671956468	2129335.023060414
0.7153308739017941	2131747.579933995
0.715450095714111	2134160.538900387
0.71556933739673	2136573.9000266073
0.7156885989529628	2138987.6633796813
0.7158078803861218	2141401.829026651
0.7159271816995193	2143530.67833262
0.7160465028964692	2145492.1833943217
0.7161658439802853	2147454.015373534
0.7162852049542819	2149416.174324742
0.7164045858217744	2151378.6603024434
0.716523986586078	2153341.47336114
0.7166434072505089	2155304.6135553457
0.716762847818384	2157268.0809395844
0.7168823082930204	2159645.450625819
0.7170017886777359	2162144.8885622234
0.7171212889758488	2164644.7430716157
0.7172408091906781	2167145.0142234266
0.7173603493255433	2169645.702087097
0.7174799093837642	2172146.806732076
0.7175994893686615	2174648.328227831
0.7177190892835562	2177150.2666438343
0.7178387091317702	2180178.2342049875
0.7179583489166254	2183259.468885294
0.7180780086414448	2186341.2171047167
0.7181976883095517	2189423.478948842
0.7183173879242699	2192506.2545032753
0.718437107488924	2195589.5438536345
0.7185568470068389	2198673.3470855537
0.7186766064813399	2201733.137769675
0.7187963859157535	2204180.2214920535
0.7189161853134061	2206627.713061719
0.719036004677625	2209075.6125466465
0.7191558440117378	2211523.92001482
0.7192757033190732	2213972.6355342413
0.7193955826029597	2216421.7591729136
0.7195154818667269	2218871.2909988603
0.7196354011137046	2221286.673203132
0.7197553403472235	2223543.3473282517
0.7198752995706147	2225800.397565725
0.7199952787872098	2228057.8239782387
0.720115278000341	2230315.626628488
0.7202352972133411	2232573.8055791794
0.7203553364295432	2234832.3608930255
0.7204753956522815	2237091.292632761
0.7205954748848902	2239500.6673034322
0.7207155741307044	2242241.283955182
0.7208356933930594	2244982.3573763683
0.7209558326752915	2247723.887643126
0.7210759919807375	2250465.8748315983
0.7211961713127342	2253208.3190179314
0.7213163706746197	2255951.2202783003
0.7214365900697322	2258694.5786888767
0.7215568295014103	2261262.263555484
0.721677088972994	2263620.2226890135
0.7217973684878227	2265978.5748157282
0.7219176680492374	2268337.3200011333
0.7220379876605789	2270696.4583107345
0.722158327325189	2273055.9898100547
0.7222786870464099	2275415.914564624
0.7223990668275843	2277776.2326399866
0.7225194666720555	2280264.7866440383
0.7226398865831676	2282844.3606173783
0.7227603265642646	2285424.364519708
0.722880786618692	2288004.7984226933
0.7230012667497951	2290585.6623979937
0.7231217669609201	2293166.956517291
0.7232422872554135	2295748.680852272
0.7233628276366229	2298330.835474647
0.7234833881078956	2301112.970684483
0.7236039686725803	2303971.3311042297
0.7237245693340255	2306830.1679173755
0.7238451900955812	2309689.4812033284
0.7239658309605971	2312549.2710414925
0.7240864919324239	2315409.5375113003
0.7242071730144127	2318270.280692186
0.724327874209915	2321131.500663596
0.7244485955222832	2323276.46506438
0.7245693369548704	2325303.2813054845
0.7246900985110294	2327330.4353492926
0.7248108801941148	2329357.9272521134
0.7249316820074803	2331385.7570702448
0.7250525039544815	2333413.9248600155
0.7251733460384739	2335442.4306777515
0.7252942082628137	2337472.9913899996
0.7254150906308574	2340498.6647409024
0.7255359931459625	2343524.8423706973
0.7256569158114868	2346551.524363431
0.7257778586307888	2349578.7108031656
0.7258988216072273	2352606.4017739724
0.7260198047441617	2355634.5973599376
0.7261408080449525	2358663.297645172
0.72626183151296	2361653.9098424315
0.7263828751515454	2364388.548702035
0.7265039389640706	2367123.6433347818
0.726625022953898	2369859.1938166353
0.7267461271243904	2372595.2002235707
0.7268672514789111	2375331.6626315718
0.7269883960208241	2378068.581116639
0.7271095607534942	2380805.9557547886
0.7272307456802866	2383521.639287829
0.7273519508045666	2386177.950139293
0.7274731761297006	2388834.703709231
0.7275944216590555	2391491.9000714314
0.7277156873959987	2394149.5392996925
0.7278369733438982	2396807.621467829
0.727958279506122	2399466.1466496536
0.7280796058860397	2402125.1149190115
0.7282009524870207	2404697.198248143
0.7283223193124353	2407140.542270715
0.7284437063656539	2409584.2935172855
0.7285651136500483	2412028.452055735
0.7286865411689898	2414473.0179539355
0.7288079889258514	2416917.9912797916
0.7289294569240056	2419363.3721011966
0.7290509451668262	2421809.1604860746
0.7291724536576875	2424353.744676769
0.7292939823999636	2426980.27815859
0.7294155313970303	2429607.2493959973
0.7295371006522632	2432234.658461943
0.7296586901690385	2434862.505429398
0.7297802999507332	2437490.790371346
0.7299019300007252	2440119.513360791
0.7300235803223919	2442748.674470728
0.7301452509191123	2445563.6366165616
0.7302669417942654	2448464.6257478264
0.7303886529512311	2451366.0983772804
0.7305103843933897	2454268.054585507
0.7306321361241218	2457170.494453099
0.7307539081468093	2460073.4180606743
0.7308757004648336	2462976.825488845
0.7309975130815778	2465880.716818257
0.7311193460004248	2468981.996461058
0.7312411992247582	2472128.369610759
0.7313630727579622	2475275.267155984
0.7314849666034219	2478422.6891841367
0.7316068807645224	2481570.6357826255
0.7317288152446498	2484719.107038882
0.7318507700471907	2487868.1030403497
0.7319727451755319	2491017.623874483
0.732094740633061	2493733.209158037
0.7322167564231665	2496429.687491156
0.7323387925492371	2499126.615237331
0.7324608490146619	2501823.992471463
0.732582925822831	2504521.819268468
0.7327050229771347	2507220.095703269
0.7328271404809642	2509918.821850812
0.7329492783377112	2512610.7033343734
0.7330714365507675	2515231.3212851137
0.7331936151235259	2517852.3760055117
0.7333158140593796	2520473.86756836
0.7334380333617229	2523095.7960464726
0.7335602730339499	2525718.1615126664
0.7336825330794556	2528340.964039772
0.7338048135016354	2530964.2037006267
0.7339271143038857	2533704.4814406065
0.734049435489603	2536835.9087701677
0.7341717770621846	2539967.8580042846
0.7342941390250283	2543100.329229939
0.7344165213815324	2546233.3225341295
0.734538924135096	2549366.8380038757
0.7346613472891185	2552500.8757261955
0.734783790847	2555635.4357881374
0.7349062548121412	2558533.7904733107
0.7350287391879431	2561014.2021568604
0.7351512439778078	2563495.027242362
0.7352737691851374	2565976.265798708
0.735396314813335	2568457.917894816
0.7355188808658037	2570939.9835996022
0.7356414673459482	2573422.4629820115
0.7357640742571725	2575905.356110982
0.7358867016028818	2578599.6064881086
0.7360093493864824	2581502.6315696547
0.7361320176113801	2584406.1404887107
0.736254706280982	2587310.1333259195
0.7363774153986956	2590214.6101619382
0.7365001449679286	2593119.571077424
0.7366228949920899	2596025.0161530646
0.7367456654745885	2598930.945469551
0.7368684564188344	2601865.597874314
0.7369912678282374	2604816.6993436418
0.7371140997062088	2607768.2926632157
0.7372369520561599	2610720.3779150127
0.7373598248815024	2613672.9551810115
0.7374827181856494	2616626.024543226
0.7376056319720137	2619579.586083668
0.7377285662440091	2622533.639884367
0.7378515210050496	2625502.6015781765
0.7379744962585505	2628476.395299638
0.738097492007927	2631450.684653386
0.7382205082565949	2634425.469722024
0.738343545007971	2637400.750588173
0.7384666022654723	2640376.52733447
0.7385896800325165	2643352.8000435526
0.7387127783125219	2646329.568798091
0.7388358971089073	2649393.356766944
0.7389590364250921	2652466.3338474263
0.7390821962644963	2655539.8230907577
0.7392053766305403	2658613.824582292
0.7393285775266454	2661688.3384074103
0.7394517989562333	2664763.3646515026
0.7395750409227259	2667838.903399964
0.7396983034295463	2670907.746164267
0.739821586480118	2673816.7403100887
0.7399448900778645	2676726.2192882625
0.7400682142262109	2679636.183179608
0.740191558928582	2682546.6320649325
0.7403149241884034	2685457.566025069
0.7404383100091014	2688368.9851408657
0.7405617163941028	2691280.8894931804
0.7406851433468352	2694149.1274961196
0.7408085908707264	2696815.8602813254
0.7409320589692048	2699483.0375219937
0.7410555476456997	2702150.6592922043
0.7411790569036406	2704818.7256660415
0.7413025867464579	2707487.2367176083
0.7414261371775823	2710156.192521018
0.7415497082004452	2712825.5931503926
0.7416732998184786	2715556.800819986
0.741796912035115	2718420.097562691
0.7419205448537874	2721283.8715215195
0.7420441982779297	2724148.1227760073
0.742167872310976	2727012.851405707
0.7422915669563612	2729878.0574901784
0.7424152822175206	2732743.7411089963
0.7425390180978901	2735609.902341749
0.7426627746009065	2738605.4906638656
0.7427865517300065	2741758.7767980504
0.7429103494886282	2744912.5884799277
0.7430341678802096	2748066.9257970825
0.7431580069081896	2751221.788837123
0.7432818665760077	2754377.1776876757
0.7434057468871037	2757533.0924363667
0.7435296478449182	2760689.5331708477
0.7436535694528923	2763738.7738528242
0.7437775117144678	2766714.7809040677
0.7439014746330868	2769691.2839564825
0.7440254582121922	2772668.2830927414
0.7441494624552276	2775645.7783955242
0.7442734873656368	2778623.769947524
0.7443975329468645	2781602.257831451
0.7445215992023557	2784581.2421300253
0.7446456861355559	2787495.4548208676
0.7447697937499119	2790386.1101769055
0.7448939220488703	2793277.247308835
0.7450180710358784	2796168.8662969507
0.7451422407143843	2799060.967221565
0.7452664310878367	2801953.5501630027
0.7453906421596846	2804846.6152015943
0.7455148739333779	2807740.162417693
0.7456391264123667	2810719.9161292794
0.7457633996001021	2813713.8732980555
0.7458876935000356	2816708.3294596984
0.7460120081156189	2819703.284697362
0.7461363434503048	2822698.7390942336
0.7462606995075466	2825694.6927335076
0.7463850762907978	2828691.1456983835
0.7465094738035127	2831688.4671382504
0.7466338920491467	2834782.83378731
0.746758331031155	2837877.716164148
0.7468827907529935	2840973.1143547115
0.7470072712181189	2844069.0284449738
0.7471317724299886	2847165.458520918
0.7472562943920602	2850262.4046685398
0.7473808371077922	2853359.866973855
0.7475054005806435	2856448.3205509107
0.7476299848140736	2859478.618778311
0.7477545898115426	2862509.4220554167
0.7478792155765113	2865540.7304664026
0.7480038621124406	2868572.5440954543
0.7481285294227926	2871604.8630267773
0.7482532175110298	2874637.6873445916
0.7483779263806148	2877671.0171331214
0.7485026560350116	2880690.8892000513
0.7486274064776842	2883673.4734938927
0.748752177712097	2886656.5548851104
0.7488769697417158	2889640.133456567
0.749001782570006	2892624.2092911145
0.7491266162004343	2895608.782471634
0.7492514706364677	2898593.853081018
0.7493763458815739	2901579.4212021735
0.7495012419392209	2904568.2951089884
0.7496261588128773	2907561.7042706273
0.7497510965060128	2910555.6123337955
0.7498760550220971	2913550.019381639
0.7500010343646007	2916544.925497325
0.7501260345369949	2919540.3307640315
0.750251055542751	2922536.235264946
0.7503760973853414	2925532.6390832784
0.7505011600682389	2928496.4609408095
0.750626243594917	2931433.1545882956
0.7507513479688495	2934370.3376847184
0.7508764731935109	2937308.0103116585
0.7510016192723765	2940246.1725507034
0.7511267862089218	2943184.8244834524
0.7512519740066232	2946123.9661915246
0.7513771826689577	2949063.5977565497
0.7515024121994025	2951944.199757884
0.7516276626014359	2954797.530522778
0.751752933878536	2957651.3368427944
0.7518782260341824	2960505.6187971984
0.7520035390718548	2963360.376465263
0.7521288729950334	2966215.609926271
0.7522542278071992	2969071.319259522
0.7523796035118337	2971927.5045443303
0.7525050001124189	2974744.611356323
0.7526304176124378	2977553.585466183
0.7527558560153731	2980363.02773839
0.752881315324709	2983172.938250979
0.7530067955439299	2985983.3170819874
0.7531322966765205	2988794.164309464
0.7532578187259665	2991605.4800114795
0.7533833616957542	2994417.264266112
0.75350892558937	2997182.578779974
0.7536345104103016	2999946.1470032143
0.7537601161620366	3002710.1758211567
0.7538857428480638	3005474.665310572
0.7540113904718717	3008239.6155482316
0.7541370590369503	3011005.02661093
0.7542627485467898	3013770.898575474
0.7543884590048808	3016530.2985192616
0.7545141904147151	3019221.021707274
0.7546399427797842	3021912.1933491467
0.7547657161035808	3024603.813519627
0.754891510389598	3027295.8822934683
0.7550173256413296	3029988.39974544
0.7551431618622698	3032681.36595032
0.7552690190559135	3035374.7809828995
0.7553948972257561	3037987.6163467444
0.7555207963752938	3040328.904775293
0.755646716508023	3042670.5834185784
0.755772657627441	3045012.652341638
0.7558986197370455	3047355.111609519
0.756024602840335	3049697.961287277
0.7561506069408084	3052041.2014399813
0.7562766320419653	3054384.8321327134
0.7564026781473054	3056627.2947842637
0.75652874526033	3058691.4150571483
0.7566548333845401	3060755.879350079
0.7567809425234375	3062820.687720392
0.7569070726805247	3064885.840225432
0.7570332238593047	3066951.3369225557
0.7571593960632813	3069017.177869131
0.7572855892959586	3071083.3631225307
0.7574118035608413	3073137.973632664
0.7575380388614347	3075181.2657260527
0.7576642952012449	3077224.8983681244
0.7577905725837782	3079268.8716156334
0.7579168710125422	3081313.185525354
0.7580431904910444	3083357.8401540606
0.7581695310227928	3085402.835558536
0.7582958926112967	3087448.171795581
0.7584222752600652	3088927.1803615675
0.7585486789726085	3090080.9059674544
0.7586751037524372	3091234.8238609424
0.7588015496030628	3092388.934074082
0.7589280165279966	3093543.2366389213
0.7590545045307512	3094697.7315875213
0.7591810136148396	3095852.4189519463
0.7593075437837755	3097007.2987642665
0.7594340950410726	3097429.085678332
0.7595606673902461	3097638.1899844296
0.7596872608348112	3097847.3291412448
0.7598138753782836	3098056.503154586
0.75994051102418	3098265.7120302636
0.7600671677760173	3098474.9557740865
0.7601938456373134	3098684.2343918667
0.7603205446115863	3098893.5478894166
0.7604472647023548	3097290.4238160574
0.7605740059131385	3095506.8730096854
0.7607007682474575	3093723.0249448437
0.7608275517088319	3091938.879571995
0.7609543563007835	3090154.4368415806
0.7610811820268336	3088369.6967040454
0.7612080288905045	3086584.659109824
0.7613348968953197	3084617.3901252905
0.7614617860448022	3078916.911680362
0.7615886963424764	3073215.4831556855
0.7617156277918667	3067513.104392927
0.7618425803964988	3061809.775233703
0.7619695541598982	3056105.4955196213
0.7620965490855914	3050400.265092258
0.7622235651771058	3044694.08379315
0.7623506024379685	3037492.4725928744
0.7624776608717082	3023739.1970970053
0.7626047404818536	3009983.6293885536
0.7627318412719337	2996225.769085507
0.762858963245479	2982465.615805735
0.7629861064060198	2968703.1691670814
0.7631132707570876	2954938.428787307
0.7632404563022137	2941171.3942841487
0.7633676630449308	2920314.2289691395
0.7634948909887717	2884365.9372637128
0.7636221401372697	2848411.6541763814
0.7637494104939593	2812451.3787085023
0.7638767020623748	2776485.1098614302
0.7640040148460518	2740512.8466361756
0.7641313488485262	2704534.5880337185
0.7642587040733344	2668550.333054787
0.7643860805240132	2600784.357959744
0.7645134782041005	2495089.1258758754
0.7646408971171346	2389376.2779199486
0.764768337266654	2283645.811156068
0.7648957986561985	2177897.722647693
