#wavelength	surface flux
0.7	66140.53297731192
0.7001166666666666	66269.19587614271
0.7002333527777778	66375.42773413306
0.700350058336574	66481.67729743304
0.7004667833462966	66587.94456899342
0.7005835278101878	66694.22955176604
0.7007002917314895	66800.53224870226
0.7008170751134447	66906.85266275464
0.7009338779592968	67013.19079687596
0.7010507002722901	67098.12621951748
0.7011675420556689	67157.00855336616
0.701284403312678	67215.90070093705
0.7014012840465635	67274.80266386595
0.7015181842605713	67333.71444378866
0.701635103957948	67392.63604234133
0.701752043141941	67451.56746116039
0.701869001815798	67510.50870188269
0.7019859799827672	67598.3914253264
0.7021029776460976	67706.42360160472
0.7022199948090387	67814.47378324589
0.7023370314748403	67922.54197325063
0.7024540876467528	68030.62817462035
0.702571163328027	68138.73239035677
0.7026882585219152	68246.85462346279
0.7028053732316688	68354.99487694084
0.7029225074605406	68516.29446965705
0.7030396612117841	68698.14124481646
0.7031568344886527	68880.01832777179
0.7032740272944008	69061.92572357415
0.7033912396322832	69243.86343727591
0.7035084715055552	69425.83147392976
0.7036257229174727	69607.82983858981
0.7037429938712924	69789.85853631078
0.7038602843702709	69949.56515748233
0.7039775944176659	70105.50726332539
0.7040949240167356	70261.47535951948
0.7042122731707383	70417.4694503962
0.7043296418829335	70573.48954028814
0.7044470301565806	70729.53563352837
0.70456443799494	70885.6077344507
0.7046818654012724	71041.70584738994
0.7047993123788394	71176.25621056055
0.7049167789309024	71310.80424193738
0.7050342650607243	71445.37469798634
0.7051517707715678	71579.96758244456
0.7052692960666963	71714.58289905013
0.705386840949374	71849.22065154175
0.7055044054228656	71983.88084365899
0.7056219894904361	72112.79597170185
0.7057395931553511	72205.0806897993
0.705857216420877	72297.38078868318
0.7059748592902804	72389.69627091683
0.7060925217668288	72482.02713906426
0.70621020385379	72574.3733956897
0.7063279055544321	72666.73504335781
0.7064456268720246	72759.112084634
0.7065633678098366	72858.53603014354
0.7066811283711383	72977.34144844758
0.7067989085592001	73096.16666765467
0.7069167083772933	73215.0116910649
0.7070345278286895	73333.8765219791
0.707152366916661	73452.76116369847
0.7072702256444803	73571.66561952465
0.7073881040154211	73690.5898927603
0.7075060020327569	73823.05228402969
0.7076239196997625	73975.22408904514
0.7077418570197124	74127.42125602791
0.7078598139958823	74279.64378920519
0.7079777906315483	74431.89169280481
0.7080957869299869	74584.16497105491
0.7082138028944751	74736.46362818465
0.7083318385282908	74888.787668424
0.7084498938347124	74992.52813104195
0.708567968817018	75055.07421000845
0.7086860634784875	75117.63071332152
0.7088041778224007	75180.1976427185
0.7089223118520377	75242.77499993698
0.7090404655706796	75305.36278671496
0.709158638981608	75367.96100479082
0.709276832088105	75430.56965590302
0.7093950448934531	75561.77666551192
0.7095132774009353	75725.71586370634
0.7096315296138355	75889.68238510053
0.7097498015354378	76053.67623424823
0.7098680931690269	76217.69741570397
0.7099864045178884	76381.74593402348
0.7101047355853081	76545.82179376269
0.7102230863745722	76709.92499947842
0.7103414568889679	76867.56841694823
0.7104598471317828	77023.76407755328
0.7105782571063047	77179.9857707683
0.7106966868158224	77336.23350093218
0.710815136263625	77492.5072723844
0.7109336054530023	77648.80708946529
0.7110520943872445	77805.13295651565
0.7111706030696424	77961.48487787726
0.7112891315034873	78085.04996794158
0.7114076796920712	78207.0700547082
0.7115262476386865	78329.11047815594
0.7116448353466263	78451.17124167416
0.711763442819184	78573.25234865306
0.711882070059654	78695.35380248321
0.7120007170713306	78817.47560655558
0.7121193838575091	78940.22522754212
0.7122380704214853	79069.33099331745
0.7123567767665555	79198.45827672028
0.7124755028960166	79327.60708133709
0.7125942488131658	79456.77741075456
0.7127130145213015	79585.96926856061
0.7128318000237216	79715.18265834257
0.7129506053237256	79844.41758368969
0.7130694304246129	79972.58550531573
0.7131882753296837	80096.96885889662
0.7133071400422386	80221.37294303648
0.7134260245655789	80345.79776119026
0.7135449289030065	80470.2433168138
0.7136638530578235	80594.70961336319
0.7137827970333332	80719.19665429552
0.7139017608328388	80843.70444306797
0.7140207444596443	80967.40454970623
0.7141397479170543	81089.64743000663
0.7142587712083737	81211.91068412026
0.7143778143369084	81334.19431544299
0.7144968773059646	81456.49832737098
0.7146159601188489	81578.82272330091
0.7147350627788687	81701.16750663017
0.7148541852893318	81823.5326807566
0.7149733276535467	81923.39189031757
0.7150924898748222	82000.55266639835
0.715211671956468	82077.7263026085
0.7153308739017941	82154.91280109141
0.715450095714111	82232.1121639907
0.71556933739673	82309.3243934505
0.7156885989529628	82386.54949161518
0.7158078803861218	82463.78746062968
0.7159271816995193	82434.60279148184
0.7160465028964692	82342.94225352096
0.7161658439802853	82251.26643880375
0.7162852049542819	82159.57534478413
0.7164045858217744	82067.86896891543
0.716523986586078	81976.14730865079
0.7166434072505089	81884.41036144283
0.716762847818384	81792.65812474363
0.7168823082930204	81812.0831421977
0.7170017886777359	81864.22377105396
0.7171212889758488	81916.373090015
0.7172408091906781	81968.5311005292
0.7173603493255433	82020.69780404518
0.7174799093837642	82072.8732020117
0.7175994893686615	82125.05729587792
0.7177190892835562	82177.2500870931
0.7178387091317702	82581.43818053511
0.7179583489166254	83021.02706493564
0.7180780086414448	83460.68921415058
0.7181976883095517	83900.42464039037
0.7183173879242699	84340.2333558679
0.718437107488924	84780.11537279811
0.7185568470068389	85220.07070339799
0.7186766064813399	85646.98321668812
0.7187963859157535	85746.03439658305
0.7189161853134061	85845.10208500795
0.719036004677625	85944.18628471428
0.7191558440117378	86043.28699845381
0.7192757033190732	86142.40422897911
0.7193955826029597	86241.53797904273
0.7195154818667269	86340.6882513981
0.7196354011137046	86431.34018322849
0.7197553403472235	86482.80326058973
0.7198752995706147	86534.27491513052
0.7199952787872098	86585.75514828043
0.720115278000341	86637.24396146918
0.7202352972133411	86688.74135612682
0.7203553364295432	86740.24733368348
0.7204753956522815	86791.76189556983
0.7205954748848902	86893.52467780086
0.7207155741307044	87106.0640379126
0.7208356933930594	87318.63882125066
0.7209558326752915	87531.24903371932
0.7210759919807375	87743.89468122367
0.7211961713127342	87956.575769669
0.7213163706746197	88169.29230496274
0.7214365900697322	88382.04429301215
0.7215568295014103	88510.01173042099
0.721677088972994	88536.79593560501
0.7217973684878227	88563.58460482318
0.7219176680492374	88590.37773881959
0.7220379876605789	88617.1753383383
0.722158327325189	88643.97740412362
0.7222786870464099	88670.78393691989
0.7223990668275843	88697.59493747163
0.7225194666720555	88760.45078820805
0.7226398865831676	88848.8598356866
0.7227603265642646	88937.28361800617
0.722880786618692	89025.722137623
0.7230012667497951	89114.17539699303
0.7231217669609201	89202.64339857297
0.7232422872554135	89291.12614481976
0.7233628276366229	89379.62363819107
0.7234833881078956	89584.11115581577
0.7236039686725803	89832.66409079275
0.7237245693340255	90081.25845125847
0.7238451900955812	90329.89424411808
0.7239658309605971	90578.5714762762
0.7240864919324239	90827.29015464002
0.7242071730144127	91076.05028611691
0.724327874209915	91324.85187761519
0.7244485955222832	91177.81407036894
0.7245693369548704	90965.2962002787
0.7246900985110294	90752.74291054375
0.7248108801941148	90540.15419525995
0.7249316820074803	90327.53004852432
0.7250525039544815	90114.87046443054
0.7251733460384739	89902.17543707271
0.7252942082628137	89690.3559228261
0.7254150906308574	90006.34150451758
0.7255359931459625	90322.3797504727
0.7256569158114868	90638.4706694689
0.7257778586307888	90954.61427028509
0.7258988216072273	91270.81056170134
0.7260198047441617	91587.05955249914
0.7261408080449525	91903.3612514626
0.72626183151296	92198.2683940577
0.7263828751515454	92350.69525115092
0.7265039389640706	92503.14751272029
0.726625022953898	92655.62518300003
0.7267461271243904	92808.12826622487
0.7268672514789111	92960.65676663016
0.7269883960208241	93113.21068845203
0.7271095607534942	93265.79003592767
0.7272307456802866	93415.26635907627
0.7273519508045666	93556.31688497654
0.7274731761297006	93697.3909192977
0.7275944216590555	93838.48846595794
0.7277156873959987	93979.60952887598
0.7278369733438982	94120.75411197142
0.727958279506122	94261.92221916367
0.7280796058860397	94403.11385437394
0.7282009524870207	94471.91384093314
0.7283223193124353	94433.61517791885
0.7284437063656539	94395.31013179415
0.7285651136500483	94356.99870149502
0.7286865411689898	94318.6808859576
0.7288079889258514	94280.35668411749
0.7289294569240056	94242.0260949105
0.7290509451668262	94203.68911727192
0.7291724536576875	94213.39795079382
0.7292939823999636	94262.92482340892
0.7294155313970303	94312.45995050287
0.7295371006522632	94362.00333345134
0.7296586901690385	94411.55497363025
0.7297802999507332	94461.11487241584
0.7299019300007252	94510.6830311847
0.7300235803223919	94560.2594513132
0.7301452509191123	94744.92465451332
0.7302669417942654	94991.96967662814
0.7303886529512311	95239.05587291338
0.7305103843933897	95486.18325023139
0.7306321361241218	95733.35181544544
0.7307539081468093	95980.56157542078
0.7308757004648336	96227.81253702227
0.7309975130815778	96475.10470711766
0.7311193460004248	96814.81850811891
0.7312411992247582	97175.50267483428
0.7313630727579622	97536.24695557734
0.7314849666034219	97897.05136036755
0.7316068807645224	98257.91589922502
0.7317288152446498	98618.84058217246
0.7318507700471907	98979.82541923391
0.7319727451755319	99340.87042043473
0.732094740633061	99420.63226886377
0.7322167564231665	99487.74124525406
0.7323387925492371	99554.86140647375
0.7324608490146619	99621.99275438694
0.732582925822831	99689.13529085815
0.7327050229771347	99756.28901775202
0.7328271404809642	99823.45393693377
0.7329492783377112	99885.72920423202
0.7330714365507675	99899.83434760975
0.7331936151235259	99913.94184184472
0.7333158140593796	99928.0516873287
0.7334380333617229	99942.16388445362
0.7335602730339499	99956.27843361141
0.7336825330794556	99970.39533519406
0.7338048135016354	99984.51458959361
0.7339271143038857	100067.7251881341
0.734049435489603	100382.44514934285
0.7341717770621846	100697.2175638785
0.7342941390250283	101012.04244048308
0.7344165213815324	101326.91978790032
0.734538924135096	101641.84961487591
0.7346613472891185	101956.83193015559
0.734783790847	102271.86674248794
0.7349062548121412	102463.44835446814
0.7350287391879431	102436.76051702451
0.7351512439778078	102410.0682316079
0.7352737691851374	102383.37149747708
0.735396314813335	102356.67031389057
0.7355188808658037	102329.96468010683
0.7356414673459482	102303.25459538407
0.7357640742571725	102276.54005898054
0.7358867016028818	102326.8549373636
0.7360093493864824	102453.25609237023
0.7361320176113801	102579.67831423585
0.736254706280982	102706.12160647179
0.7363774153986956	102832.58597258992
0.7365001449679286	102959.07141610216
0.7366228949920899	103085.57794052175
0.7367456654745885	103212.10554936207
0.7368684564188344	103367.97088895728
0.7369912678282374	103540.4313547985
0.7371140997062088	103712.92056405076
0.7372369520561599	103885.43852150472
0.7373598248815024	104057.9852319512
0.7374827181856494	104230.56070018305
0.7376056319720137	104403.16493099295
0.7377285662440091	104575.79792917469
0.7378515210050496	104701.13286974766
0.7379744962585505	104812.24949615072
0.738097492007927	104923.38464199146
0.7382205082565949	105034.53831035645
0.738343545007971	105145.71050433282
0.7384666022654723	105256.90122700829
0.7385896800325165	105368.1104814707
0.7387127783125219	105479.338270809
0.7388358971089073	105641.0607795425
0.7389590364250921	105807.87312831014
0.7390821962644963	105974.71327913602
0.7392053766305403	106141.58123665347
0.7393285775266454	106308.47700549729
0.7394517989562333	106475.40059030274
0.7395750409227259	106642.35199570541
0.7396983034295463	106805.1446930348
0.739821586480118	106874.83197339324
0.7399448900778645	106944.53086829826
0.7400682142262109	107014.24137968598
0.740191558928582	107083.9635094922
0.7403149241884034	107153.69725965332
0.7404383100091014	107223.44263210615
0.7405617163941028	107293.19962878768
0.7406851433468352	107343.95248521691
0.7408085908707264	107307.7212422096
0.7409320589692048	107271.48396066182
0.7410555476456997	107235.24063956708
0.7411790569036406	107198.99127791886
0.7413025867464579	107162.73587471034
0.7414261371775823	107126.47442893461
0.7415497082004452	107090.20693958462
0.7416732998184786	107058.28528824696
0.741796912035115	107035.69396161918
0.7419205448537874	107013.0988697703
0.7420441982779297	106990.50001207278
0.742167872310976	106967.89738789895
0.7422915669563612	106945.2909966211
0.7424152822175206	106922.68083761138
0.7425390180978901	106900.06691024183
0.7426627746009065	106956.44692550642
0.7427865517300065	107109.14020479577
0.7429103494886282	107261.85893296517
0.7430341678802096	107414.60311425582
0.7431580069081896	107567.37275291
0.7432818665760077	107720.16785317085
0.7434057468871037	107872.98841928161
0.7435296478449182	108025.83445548662
0.7436535694528923	108122.34778358045
0.7437775117144678	108180.29829266155
0.7439014746330868	108238.25846016072
0.7440254582121922	108296.22828768787
0.7441494624552276	108354.20777685297
0.7442734873656368	108412.19692926624
0.7443975329468645	108470.1957465383
0.7445215992023557	108528.2042302799
0.7446456861355559	108527.13586813616
0.7447697937499119	108504.30142504998
0.7448939220488703	108481.46317622329
0.7450180710358784	108458.6211210218
0.7451422407143843	108435.77525881112
0.7452664310878367	108412.92558895671
0.7453906421596846	108390.07211082403
0.7455148739333779	108367.2148237783
0.7456391264123667	108326.68844896831
0.7457633996001021	108283.33073945843
0.7458876935000356	108239.96580366354
0.7460120081156189	108196.59364037943
0.7461363434503048	108153.21424840143
0.7462606995075466	108109.82762652473
0.7463850762907978	108066.43377354444
0.7465094738035127	108022.97056163085
0.7466338920491467	107963.24812649195
0.746758331031155	107903.5157376138
0.7468827907529935	107843.77339333757
0.7470072712181189	107784.02109200397
0.7471317724299886	107724.25883195346
0.7472562943920602	107664.48661152633
0.7473808371077922	107604.70442906239
0.7475054005806435	107541.18240774429
0.7476299848140736	107454.67523121882
0.7477545898115426	107368.15363683058
0.7478792155765113	107281.6176221766
0.7480038621124406	107195.06718485357
0.7481285294227926	107108.50232245767
0.7482532175110298	107021.92303258463
0.7483779263806148	106935.32931283004
0.7485026560350116	106836.56682230676
0.7486274064776842	106704.89260945363
0.748752177712097	106573.19645089858
0.7488769697417158	106441.4783429835
0.749001782570006	106309.73828205059
0.7491266162004343	106177.97626444089
0.7492514706364677	106046.19228649487
0.7493763458815739	105914.3863445524
0.7495012419392209	105755.24736441446
0.7496261588128773	105556.81894256436
0.7497510965060128	105358.35744931048
0.7498760550220971	105159.86287914115
0.7500010343646007	104961.33522654341
0.7501260345369949	104762.77448600347
0.750251055542751	104564.180652007
0.7503760973853414	104365.55371903807
0.7505011600682389	104130.42763878175
0.750626243594917	103864.81405894249
0.7507513479688495	103599.15621017366
0.7508764731935109	103333.4540850966
0.7510016192723765	103067.70767633196
0.7511267862089218	102801.91697649946
0.7512519740066232	102536.08197821687
0.7513771826689577	102270.20267410109
0.7515024121994025	101958.40772459393
0.7516276626014359	101625.17301637414
0.751752933878536	101291.88276903694
0.7518782260341824	100958.53697332504
0.7520035390718548	100625.13561998038
0.7521288729950334	100291.67869974367
0.7522542278071992	99958.16620335357
0.7523796035118337	99624.59812154724
0.7525050001124189	99221.12977671485
0.7526304176124378	98802.40453382726
0.7527558560153731	98383.60950339971
0.752881315324709	97964.74467380003
0.7530067955439299	97545.81003339525
0.7531322966765205	97126.80557055098
0.7532578187259665	96707.73127362943
0.7533833616957542	96288.58713099173
0.75350892558937	95782.81081792513
0.7536345104103016	95272.87980144726
0.7537601161620366	94762.8637964669
0.7538857428480638	94252.76278881857
0.7540113904718717	93742.57676433628
0.7541370590369503	93232.30570885002
0.7542627485467898	92721.94960818754
0.7543884590048808	92201.97037448316
0.7545141904147151	91586.78972593338
0.7546399427797842	90971.50654727651
0.7547657161035808	90356.1208214231
0.754891510389598	89740.63253128208
0.7550173256413296	89125.04165975912
0.7551431618622698	88509.34818975773
0.7552690190559135	87893.55210417813
0.7553948972257561	87247.0526847041
0.7555207963752938	86497.73048196822
0.755646716508023	85748.28339219898
0.755772657627441	84998.71139458117
0.7558986197370455	84249.014468297
0.756024602840335	83499.1925925253
0.7561506069408084	82749.24574644098
0.7562766320419653	81999.17390921497
0.7564026781473054	81187.11277341863
0.75652874526033	80266.05165457999
0.7566548333845401	79344.83702555439
0.7567809425234375	78423.46886075761
0.7569070726805247	77501.94713460057
0.7570332238593047	76580.27182148928
0.7571593960632813	75658.44289582493
0.7572855892959586	74736.46033200626
0.7574118035608413	73764.74191343969
0.7575380388614347	72744.35366622661
0.7576642952012449	71723.79535430529
0.7577905725837782	70703.06694933344
0.7579168710125422	69682.16842295894
0.7580431904910444	68661.09974682968
0.7581695310227928	67639.86089258901
0.7582958926112967	66618.45183187135
0.7584222752600652	65497.53338240857
0.7585486789726085	64319.36156048519
0.7586751037524372	63140.99337659105
0.7588015496030628	61962.42879799729
0.7589280165279966	60783.667791976084
0.7590545045307512	59604.71032578722
0.7591810136148396	58425.55636668735
0.7593075437837755	57246.2058819259
0.7594340950410726	55972.827947058875
0.7595606673902461	54672.01400928962
0.7596872608348112	53370.983269196106
0.7598138753782836	52069.73569064734
0.75994051102418	50768.271237500936
0.7600671677760173	49466.58987361335
0.7601938456373134	48164.69156283079
0.7603205446115863	46862.576268997174
0.7604472647023548	45463.40338035297
0.7605740059131385	44054.37135458062
0.7607007682474575	42645.10449013593
0.7608275517088319	41235.602747883626
0.7609543563007835	39825.86608867116
0.7610811820268336	38415.89447334967
0.7612080288905045	37005.68786276167
0.7613348968953197	35591.80741105432
0.7614617860448022	34107.13459256504
0.7615886963424764	32622.214328603983
0.7617156277918667	31137.046577933703
0.7618425803964988	29651.631299303754
0.7619695541598982	28165.9684514611
0.7620965490855914	26680.057993144896
0.7622235651771058	25193.899883083926
0.7623506024379685	23745.011231322547
0.7624776608717082	22460.322867663213
0.7626047404818536	21175.420389276547
0.7627318412719337	19890.303760479022
0.762858963245479	18604.97294557589
0.7629861064060198	17319.42790887016
0.7631132707570876	16033.668614656975
0.7632404563022137	14747.695027229243
0.7633676630449308	13559.191199470775
0.7634948909887717	12578.426279354859
0.7636221401372697	11597.497898420199
0.7637494104939593	10616.406029421127
0.7638767020623748	9635.150645111968
0.7640040148460518	8653.731718237643
0.7641313488485262	7672.149221542208
0.7642587040733344	6690.403127762876
0.7643860805240132	5895.620426330435
0.7645134782041005	5324.00388722628
0.7646408971171346	4752.292078698705
0.764768337266654	4180.484984869917
0.7648957986561985	3608.5825898586395
0.7650232812893079	3036.5848777816027
0.7651507851695227	2464.4918327525475
0.7652783103003843	1892.3034388827245
0.7654058566854343	1558.9051489291946
0.7655334243282153	1388.2579856706247
0.7656610132322699	1217.5823812184012
