#wavelength	surface flux
0.7	487525.0672777942
0.7001166666666666	488286.07409182907
0.7002333527777778	488969.5539571763
0.700350058336574	489653.14773583406
0.7004667833462966	490336.8554467874
0.7005835278101878	491020.67710902775
0.7007002917314895	491704.6127415441
0.7008170751134447	492388.66236333235
0.7009338779592968	493072.82599339064
0.7010507002722901	493677.82738626504
0.7011675420556689	494186.4556693778
0.701284403312678	494695.1687238703
0.7014012840465635	495203.9665638726
0.7015181842605713	495712.84920351475
0.701635103957948	496221.81665692985
0.701752043141941	496730.8689382538
0.701869001815798	497240.0060616253
0.7019859799827672	497813.7440011903
0.7021029776460976	498432.4770391626
0.7022199948090387	499051.31319930876
0.7023370314748403	499670.2524988146
0.7024540876467528	500289.2949548703
0.702571163328027	500908.4405846676
0.7026882585219152	501527.68940540496
0.7028053732316688	502147.04143427813
0.7029225074605406	503022.11059227446
0.7030396612117841	503996.02984613617
0.7031568344886527	504970.11141987366
0.7032740272944008	505944.35534053954
0.7033912396322832	506918.76163519267
0.7035084715055552	507893.3303308939
0.7036257229174727	508868.0614547115
0.7037429938712924	509842.95503371727
0.7038602843702709	510754.87967638054
0.7039775944176659	511656.248755903
0.7040949240167356	512557.7680636057
0.7042122731707383	513459.4376245259
0.7043296418829335	514361.2574637068
0.7044470301565806	515263.22760619404
0.70456443799494	516165.34807703766
0.7046818654012724	517067.6189012936
0.7047993123788394	517855.2812926856
0.7049167789309024	518642.94327031256
0.7050342650607243	519430.736524937
0.7051517707715678	520218.6610784368
0.7052692960666963	521006.71695269516
0.705386840949374	521794.90416959894
0.7055044054228656	522583.22275104007
0.7056219894904361	523347.1941894069
0.7057395931553511	523955.7345072059
0.705857216420877	524564.3762483917
0.7059748592902804	525173.1194298674
0.7060925217668288	525781.9640685405
0.70621020385379	526390.91018132
0.7063279055544321	526999.9577851176
0.7064456268720246	527609.10689685
0.7065633678098366	528246.7934641249
0.7066811283711383	528962.8993870596
0.7067989085592001	529679.1246609816
0.7069167083772933	530395.469305782
0.7070345278286895	531111.933341357
0.707152366916661	531828.5167876049
0.7072702256444803	532545.2196644262
0.7073881040154211	533262.0419917279
0.7075060020327569	534042.2655001323
0.7076239196997625	534914.779198428
0.7077418570197124	535787.4383156726
0.7078598139958823	536660.2428761033
0.7079777906315483	537533.1929039615
0.7080957869299869	538406.2884234905
0.7082138028944751	539279.5294589389
0.7083318385282908	540152.9160345605
0.7084498938347124	540819.9644409019
0.708567968817018	541312.0628934251
0.7086860634784875	541804.2433623576
0.7088041778224007	542296.5058613687
0.7089223118520377	542788.8504041289
0.7090404655706796	543281.2770043127
0.709158638981608	543773.785675597
0.709276832088105	544266.37643166
0.7093950448934531	545054.4697584074
0.7095132774009353	545983.5836442482
0.7096315296138355	546912.8523824036
0.7097498015354378	547842.2759986817
0.7098680931690269	548771.8545188949
0.7099864045178884	549701.5879688627
0.7101047355853081	550631.4763744054
0.7102230863745722	551561.5197613484
0.7103414568889679	552457.0890584666
0.7104598471317828	553344.9390704227
0.7105782571063047	554232.9370573801
0.7106966868158224	555121.0830440018
0.710815136263625	556009.3770549546
0.7109336054530023	556897.8191149097
0.7110520943872445	557786.4092485412
0.7111706030696424	558675.1474805289
0.7112891315034873	559420.545713963
0.7114076796920712	560159.2219489147
0.7115262476386865	560898.0212965724
0.7116448353466263	561636.9437774542
0.711763442819184	562375.9894120832
0.711882070059654	563115.1582209852
0.7120007170713306	563854.4502246883
0.7121193838575091	564596.5102101678
0.7122380704214853	565366.2781093259
0.7123567767665555	566136.174303133
0.7124755028960166	566906.1988129729
0.7125942488131658	567676.3516602304
0.7127130145213015	568446.632866298
0.7128318000237216	569217.0424525641
0.7129506053237256	569987.5804404292
0.7130694304246129	570754.026042766
0.7131882753296837	571505.8419525168
0.7133071400422386	572257.7831649195
0.7134260245655789	573009.8497008571
0.7135449289030065	573762.0415812174
0.7136638530578235	574514.3588268908
0.7137827970333332	575266.801458773
0.7139017608328388	576019.3694977602
0.7140207444596443	576771.4609421695
0.7141397479170543	577522.6037866141
0.7142587712083737	578273.8718215319
0.7143778143369084	579025.2650677892
0.7144968773059646	579776.7835462546
0.7146159601188489	580528.4272777993
0.7147350627788687	581280.1962832995
0.7148541852893318	582032.0905836335
0.7149733276535467	582664.0972620643
0.7150924898748222	583175.1909110884
0.715211671956468	583686.3697423872
0.7153308739017941	584197.6337701584
0.715450095714111	584708.9830086007
0.71556933739673	585220.4174719161
0.7156885989529628	585731.9371743086
0.7158078803861218	586243.5421299856
0.7159271816995193	586309.1447646689
0.7160465028964692	586112.9327494017
0.7161658439802853	585916.6880321319
0.7162852049542819	585720.4106074093
0.7164045858217744	585524.1004697825
0.716523986586078	585327.7576137994
0.7166434072505089	585131.3820340072
0.716762847818384	584934.9737249516
0.7168823082930204	585322.7606535519
0.7170017886777359	585882.4895965409
0.7171212889758488	586442.3118276868
0.7172408091906781	587002.227362538
0.7173603493255433	587562.2362166452
0.7174799093837642	588122.338405561
0.7175994893686615	588682.5339448419
0.7177190892835562	589242.8228500459
0.7178387091317702	591165.0317860855
0.7179583489166254	593224.2651609674
0.7180780086414448	595283.8417414135
0.7181976883095517	597343.7615846228
0.7183173879242699	599404.0247478063
0.718437107488924	601464.6312881841
0.7185568470068389	603525.5812629861
0.7186766064813399	605533.186270051
0.7187963859157535	606198.796073652
0.7189161853134061	606864.5168122201
0.719036004677625	607530.3485042448
0.7191558440117378	608196.2911682177
0.7192757033190732	608862.3448226355
0.7193955826029597	609528.5094859949
0.7195154818667269	610194.7851767988
0.7196354011137046	610813.1297309262
0.7197553403472235	611210.3825460989
0.7198752995706147	611607.7015700738
0.7199952787872098	612005.0868138864
0.720115278000341	612402.5382885729
0.7202352972133411	612800.056005172
0.7203553364295432	613197.6399747231
0.7204753956522815	613595.2902082697
0.7205954748848902	614234.2075682093
0.7207155741307044	615404.9891438578
0.7208356933930594	616575.9658497671
0.7209558326752915	617747.1377184609
0.7210759919807375	618918.5047824676
0.7211961713127342	620090.0670743169
0.7213163706746197	621261.82462655
0.7214365900697322	622433.7774717073
0.7215568295014103	623223.0126092449
0.721677088972994	623555.4995308284
0.7217973684878227	623888.0418668984
0.7219176680492374	624220.6396266914
0.7220379876605789	624553.2928194442
0.722158327325189	624886.0014543958
0.7222786870464099	625218.7655407866
0.7223990668275843	625551.5850878584
0.7225194666720555	626203.7946971038
0.7226398865831676	627082.4334279855
0.7227603265642646	627961.2185986537
0.722880786618692	628840.1502335188
0.7230012667497951	629719.2283569891
0.7231217669609201	630598.4529934801
0.7232422872554135	631477.8241674098
0.7233628276366229	632357.3419032033
0.7234833881078956	633519.6708633709
0.7236039686725803	634789.5103995791
0.7237245693340255	636059.561575708
0.7238451900955812	637329.8244270353
0.7239658309605971	638600.2989888362
0.7240864919324239	639870.9852963993
0.7242071730144127	641141.8833850137
0.724327874209915	642412.9932899734
0.7244485955222832	642108.4788205501
0.7245693369548704	641543.3623921825
0.7246900985110294	640978.1517777442
0.7248108801941148	640412.8469615354
0.7249316820074803	639847.447927859
0.7250525039544815	639281.9546610095
0.7251733460384739	638716.3671452821
0.7252942082628137	638154.3471090145
0.7254150906308574	639713.9638806779
0.7255359931459625	641273.8405884702
0.7256569158114868	642833.9772757142
0.7257778586307888	644394.3739857402
0.7258988216072273	645955.0307618841
0.7260198047441617	647515.9476474889
0.7261408080449525	649077.1246859108
0.72626183151296	650564.3941652994
0.7263828751515454	651559.0242354282
0.7265039389640706	652553.8200772351
0.726625022953898	653548.7817183497
0.7267461271243904	654543.9091864049
0.7268672514789111	655539.2025090376
0.7269883960208241	656534.6617138897
0.7271095607534942	657530.28682861
0.7272307456802866	658476.7270852089
0.7273519508045666	659290.0166708666
0.7274731761297006	660103.4418047884
0.7275944216590555	660917.0025095658
0.7277156873959987	661730.6988077944
0.7278369733438982	662544.5307220739
0.727958279506122	663358.4982750035
0.7280796058860397	664172.601489193
0.7282009524870207	664694.0623590319
0.7283223193124353	664782.5588315572
0.7284437063656539	664871.0700534943
0.7285651136500483	664959.596027302
0.7286865411689898	665048.1367554383
0.7288079889258514	665136.692240363
0.7289294569240056	665225.2624845349
0.7290509451668262	665313.8474904143
0.7291724536576875	665612.073216646
0.7292939823999636	666084.0463176214
0.7294155313970303	666556.0980807813
0.7295371006522632	667028.2285192348
0.7296586901690385	667500.4376460944
0.7297802999507332	667972.725474475
0.7299019300007252	668445.0920174947
0.7300235803223919	668917.5372882704
0.7301452509191123	669890.215995006
0.7302669417942654	671093.9129420278
0.7303886529512311	672297.8105052077
0.7305103843933897	673501.9087179819
0.7306321361241218	674706.2076137905
0.7307539081468093	675910.707226084
0.7308757004648336	677115.4075883102
0.7309975130815778	678320.3087339315
0.7311193460004248	679903.8011905444
0.7312411992247582	681573.2203398907
0.7313630727579622	683242.9177257615
0.7314849666034219	684912.8933945317
0.7316068807645224	686583.1473925789
0.7317288152446498	688253.6797662933
0.7318507700471907	689924.4905620707
0.7319727451755319	691595.5798263135
0.732094740633061	692168.4855864773
0.7322167564231665	692692.0337229585
0.7323387925492371	693215.6691174626
0.7324608490146619	693739.3917845321
0.732582925822831	694263.2017387131
0.7327050229771347	694787.0989945524
0.7328271404809642	695311.0835666016
0.7329492783377112	695821.1363838187
0.7330714365507675	696193.4517619727
0.7331936151235259	696565.8291926896
0.7333158140593796	696938.2686863113
0.7334380333617229	697310.7702531825
0.7335602730339499	697683.3339036483
0.7336825330794556	698055.959648056
0.7338048135016354	698428.6474967536
0.7339271143038857	699081.4111943626
0.734049435489603	700672.5217023261
0.7341717770621846	702263.8973953746
0.7342941390250283	703855.5383177045
0.7344165213815324	705447.4445135208
0.734538924135096	707039.6160270387
0.7346613472891185	708632.0529024734
0.734783790847	710224.7551840546
0.7349062548121412	711267.7673489806
0.7350287391879431	711338.8844239367
0.7351512439778078	711410.0133517388
0.7352737691851374	711481.154134362
0.735396314813335	711552.3067737825
0.7355188808658037	711623.471271976
0.7356414673459482	711694.6476309194
0.7357640742571725	711765.8358525892
0.7358867016028818	712202.2396124477
0.7360093493864824	712999.3876680293
0.7361320176113801	713796.6685816192
0.736254706280982	714594.0823753612
0.7363774153986956	715391.6290714034
0.7365001449679286	716189.3086918931
0.7366228949920899	716987.121258987
0.7367456654745885	717785.0667948421
0.7368684564188344	718728.9720562384
0.7369912678282374	719755.4528323645
0.7371140997062088	720782.1046886202
0.7372369520561599	721808.9276535197
0.7373598248815024	722835.9217555777
0.7374827181856494	723863.0870233211
0.7376056319720137	724890.4234852758
0.7377285662440091	725917.9311699744
0.7378515210050496	726827.2186464353
0.7379744962585505	727701.0372822857
0.738097492007927	728575.0015545754
0.7382205082565949	729449.1114875765
0.738343545007971	730323.3671055662
0.7384666022654723	731197.7684328265
0.7385896800325165	732072.31549364
0.7387127783125219	732947.0083122981
0.7388358971089073	733869.1223263235
0.7389590364250921	734796.131867306
0.7390821962644963	735723.2959098791
0.7392053766305403	736650.6144797915
0.7393285775266454	737578.0876027995
0.7394517989562333	738505.7153046622
0.7395750409227259	739433.4976111404
0.7396983034295463	740347.3014406449
0.739821586480118	740946.856079589
0.7399448900778645	741546.5106443051
0.7400682142262109	742146.2651514506
0.740191558928582	742746.11961768
0.7403149241884034	743346.0740596531
0.7404383100091014	743946.1284940335
0.7405617163941028	744546.2829374858
0.7406851433468352	745062.0234089098
0.7408085908707264	745191.2186221292
0.7409320589692048	745320.4353678841
0.7410555476456997	745449.6736497633
0.7411790569036406	745578.9334713562
0.7413025867464579	745708.2148362526
0.7414261371775823	745837.5177480433
0.7415497082004452	745966.8422103191
0.7416732998184786	746138.0353725632
0.741796912035115	746399.0274340195
0.7419205448537874	746660.0629941525
0.7420441982779297	746921.1420602123
0.742167872310976	747182.2646394501
0.7422915669563612	747443.4307391177
0.7424152822175206	747704.6403664685
0.7425390180978901	747965.893528757
0.7426627746009065	748523.9158460529
0.7427865517300065	749443.7609370912
0.7429103494886282	750363.7593356456
0.7430341678802096	751283.9110672657
0.7431580069081896	752204.2161575077
0.7432818665760077	753124.6746319328
0.7434057468871037	754045.2865161027
0.7435296478449182	754966.0518355862
0.7436535694528923	755670.761155097
0.7437775117144678	756227.5859183894
0.7439014746330868	756784.503485808
0.7440254582121922	757341.5138728218
0.7441494624552276	757898.6170949002
0.7442734873656368	758455.8131675156
0.7443975329468645	759013.1021061435
0.7445215992023557	759570.4839262611
0.7446456861355559	759895.7761334374
0.7447697937499119	760135.5926842329
0.7448939220488703	760375.4492044534
0.7450180710358784	760615.3457007604
0.7451422407143843	760855.2821798167
0.7452664310878367	761095.2586482865
0.7453906421596846	761335.2751128341
0.7455148739333779	761575.3315801258
0.7456391264123667	761710.509925337
0.7457633996001021	761828.9349712069
0.7458876935000356	761947.3797545845
0.7460120081156189	762065.8442787592
0.7461363434503048	762184.3285470214
0.7462606995075466	762302.8325626616
0.7463850762907978	762421.3563289709
0.7465094738035127	762539.8110454829
0.7466338920491467	762635.0549352692
0.746758331031155	762730.3146990371
0.7468827907529935	762825.5903394324
0.7470072712181189	762920.8818591009
0.7471317724299886	763016.1892606895
0.7472562943920602	763111.5125468449
0.7473808371077922	763206.8517202148
0.7475054005806435	763283.1843593522
0.7476299848140736	763242.3590482937
0.7477545898115426	763201.5269330166
0.7478792155765113	763160.6880123869
0.7480038621124406	763119.8422852706
0.7481285294227926	763078.989750533
0.7482532175110298	763038.1304070397
0.7483779263806148	762997.2642536557
0.7485026560350116	762899.0660986687
0.7486274064776842	762645.7030958849
0.748752177712097	762392.2978659344
0.7488769697417158	762138.8504017784
0.749001782570006	761885.3606963785
0.7491266162004343	761631.8287426946
0.7492514706364677	761378.2545336849
0.7493763458815739	761124.6380623068
0.7495012419392209	760754.4625300955
0.7496261588128773	760216.7185290325
0.7497510965060128	759678.8849039691
0.7498760550220971	759140.9616399684
0.7500010343646007	758602.9487220902
0.7501260345369949	758064.8461353922
0.750251055542751	757526.6538649303
0.7503760973853414	756988.3718957562
0.7505011600682389	756273.5707365767
0.750626243594917	755411.3358653672
0.7507513479688495	754548.9572883472
0.7508764731935109	753686.434981564
0.7510016192723765	752823.7689210628
0.7511267862089218	751960.9590828856
0.7512519740066232	751098.0054430686
0.7513771826689577	750234.9079776442
0.7515024121994025	749123.1068941085
0.7516276626014359	747895.2279780059
0.751752933878536	746667.1444154194
0.7518782260341824	745438.8561722387
0.7520035390718548	744210.3632143504
0.7521288729950334	742981.6655076364
0.7522542278071992	741752.7630179711
0.7523796035118337	740523.6557112236
0.7525050001124189	738938.0532819327
0.7526304176124378	737274.701419776
0.7527558560153731	735611.0723323111
0.752881315324709	733947.1659733299
0.7530067955439299	732282.9822966217
0.7531322966765205	730618.5212559695
0.7532578187259665	728953.7828051435
0.7533833616957542	727288.766897909
0.75350892558937	725166.019672777
0.7536345104103016	723021.4078706279
0.7537601161620366	720876.4386331796
0.7538857428480638	718731.1119008564
0.7540113904718717	716585.4276140805
0.7541370590369503	714439.3857132572
0.7542627485467898	712292.9861387826
0.7543884590048808	710086.6281446284
0.7545141904147151	707285.55762568
0.7546399427797842	704484.0202616497
0.7547657161035808	701682.015974725
0.754891510389598	698879.5446870859
0.7550173256413296	696076.6063208977
0.7551431618622698	693273.2007983158
0.7552690190559135	690469.3280414809
0.7553948972257561	687466.2097173358
0.7555207963752938	683795.367107263
0.755646716508023	680123.9126900906
0.755772657627441	676451.8463638474
0.7558986197370455	672779.1680265493
0.756024602840335	669105.8775761959
0.7561506069408084	665431.9749107675
0.7562766320419653	661757.4599282249
0.7564026781473054	657655.8602059791
0.75652874526033	652803.0993790063
0.7566548333845401	647949.5297585598
0.7567809425234375	643095.151209845
0.7569070726805247	638239.9635980414
0.7570332238593047	633383.9667883033
0.7571593960632813	628527.160645759
0.7572855892959586	623669.5450355238
0.7574118035608413	618344.3266260581
0.7575380388614347	612561.5416619509
0.7576642952012449	606777.7929003474
0.7577905725837782	600993.0801806253
0.7579168710125422	595207.4033421063
0.7580431904910444	589420.762224112
0.7581695310227928	583633.1566659388
0.7582958926112967	577844.5865068319
0.7584222752600652	571079.3175050552
0.7585486789726085	563752.3989670161
0.7586751037524372	556424.2592758846
0.7588015496030628	549094.8982281236
0.7589280165279966	541764.3156202025
0.7590545045307512	534432.5112485132
0.7591810136148396	527099.484909429
0.7593075437837755	519765.2363992774
0.7594340950410726	511196.0964930982
0.7595606673902461	502267.59589635284
0.7596872608348112	493337.60721616575
0.7598138753782836	484406.13020454184
0.75994051102418	475473.1646134076
0.7600671677760173	466538.7101946819
0.7601938456373134	457602.76670021284
0.7603205446115863	448665.33388183307
0.7604472647023548	438043.26364167465
0.7605740059131385	427252.118361277
0.7607007682474575	416459.17455665546
0.7608275517088319	405664.4319280904
0.7609543563007835	394867.89017573
0.7610811820268336	384069.5489997507
0.7612080288905045	373269.4081002628
0.7613348968953197	362369.7339845801
0.7614617860448022	349462.97394205205
0.7615886963424764	336554.0627728326
0.7617156277918667	323643.00011843076
0.7618425803964988	310729.7856202426
0.7619695541598982	297814.4189196415
0.7620965490855914	284896.89965793316
0.7622235651771058	271977.2274763329
0.7623506024379685	259081.32169290763
0.7624776608717082	246296.8753648346
0.7626047404818536	233510.2982957063
0.7627318412719337	220721.5901304218
0.762858963245479	207930.75051376835
0.7629861064060198	195137.779090511
0.7631132707570876	182342.6755053365
0.7632404563022137	169545.43940290925
0.7633676630449308	157293.73222364386
0.7634948909887717	146205.7732221748
0.7636221401372697	135115.96622755323
0.7637494104939593	124024.31093175545
0.7638767020623748	112930.80702675771
0.7640040148460518	101835.45420442983
0.7641313488485262	90738.25215663198
0.7642587040733344	79639.2005751469
0.7643860805240132	70342.63845350218
0.7645134782041005	63197.644579872416
0.7646408971171346	56051.45987392741
0.764768337266654	48904.0841372007
0.7648957986561985	41755.517171182226
0.7650232812893079	34605.75877733703
0.7651507851695227	27454.808757092796
0.7652783103003843	20302.666911846063
0.7654058566854343	16226.973476215391
0.7655334243282153	14248.093185373731
0.7656610132322699	12268.88308115284
0.765788623401142	10289.343108579385
0.7659162548383754	8309.473212678307
0.7660439075475152	6329.273338460764
