#wavelength	surface flux
0.8	141359484.9497981
0.8002000000000001	143104585.81795973
0.8004000500000003	141823695.22452864
0.8006001500125003	140511914.50849023
0.8008003000500035	139199805.84727272
0.8010005001250161	137887369.1588893
0.8012007502500472	136574604.36133566
0.8014010504376099	137082522.2490456
0.8016014007002193	138200550.12592003
0.8018018010503944	139318857.5097637
0.8020022515006572	140437444.4704538
0.8022027520635323	141556311.0778831
0.8024033027515483	142433671.83319888
0.8026039035772362	143074311.4944062
0.8028045545531306	143715111.31552884
0.8030052556917691	144356071.3366071
0.803206007005692	144997191.59769002
0.8034068085074435	145503595.49980682
0.8036076602095705	145632046.9993735
0.8038085621246229	145760530.61181495
0.8040095142651542	145889046.3451596
0.8042105166437206	146017594.20743755
0.8044115692728815	146118709.81968558
0.8046126721651998	145038559.03736177
0.8048138253332411	143958138.21734327
0.8050150287895745	142877447.29211876
0.805216282546772	141796486.19416323
0.8054175866174087	140715254.85593382
0.8056189410140631	139826032.44049305
0.8058203457493168	138991015.21265435
0.8060218008357541	138155789.23050976
0.8062233062859632	137320354.44186923
0.8064248621125346	136484710.7945321
0.806626468328063	135934336.62688476
0.8068281249451449	135629016.26770452
0.8070298319763813	135323619.57843414
0.8072315894343755	135018146.53999168
0.8074333973317341	134712597.13328946
0.8076352556810671	134699584.55615684
0.8078371644949874	135390937.6000121
0.8080391237861113	136082463.4821285
0.8082411335670578	136774162.245715
0.8084431938504498	137466033.9339931
0.8086453046489125	138151765.07806227
0.8088474659750746	138720121.3702469
0.8090496778415686	139288619.75150532
0.809251940261029	139857260.25735867
0.8094542532460944	140426042.92333895
0.8096566168094059	140994967.78498507
0.8098590309636085	140663261.34825814
0.8100614957213493	140120638.58525148
0.8102640110952797	139577880.166554
0.8104665770980536	139034986.05825165
0.8106691937423283	138491956.22642198
0.8108718610407639	138056512.3819678
0.8110745790060241	137703328.8409061
0.8112773476507757	137350057.0039588
0.8114801669876885	136996696.84905237
0.8116830370294355	136643248.35410738
0.8118859577886929	136624939.32296407
0.8120889292781401	137302908.5678011
0.8122919515104597	137981047.30494928
0.8124950244983374	138659355.5767818
0.8126981482544621	139337833.42568216
0.8129013227915257	140036554.38937208
0.8131045481222237	140965294.62373114
0.8133078242592543	141894267.04314888
0.8135111512153191	142823471.70567125
0.813714529003123	143752908.66935936
0.8139179576353739	144682577.99228853
0.8141214371247829	144508164.82901603
0.8143249674840641	144119562.8282796
0.814528548725935	143730863.67704323
0.8147321808631167	143342067.35101852
0.8149358639083326	142953173.82591242
0.8151395978743097	142031164.38675624
0.8153433827737784	140748794.65428808
0.8155472186194719	139466104.32938728
0.8157511054241268	138183093.33190548
0.815955043200483	136899761.58167344
0.8161590319612831	135575077.35863894
0.8163630717192736	134174876.48604575
0.8165671624872033	132774325.56323595
0.8167713042778252	131373424.50269407
0.8169754971038948	129972173.21688637
0.8171797409781707	128450044.5518087
0.8173840359134155	125965330.45473094
0.8175883819223938	123479995.17913178
0.8177927790178745	120994038.5697123
0.8179972272126291	118507460.4711398
0.8182017265194322	116020260.72804518
0.8184062769510622	115556514.20968056
0.8186108785203001	115404126.94316843
0.8188155312399301	115251701.57983987
0.8190202351227402	115099238.1101703
0.819224990181521	114946736.52463341
0.8194297964290664	116474659.70569822
0.8196346538781738	119015860.89489368
0.8198395625416434	121557697.38438542
0.8200445224322789	124100169.33300062
0.820249533562887	126643276.8996022
0.8204545959462778	128863331.26969478
0.8206597095952644	130562971.98914455
0.8208648745226633	132263037.6187755
0.8210700907412941	133963528.2648136
0.8212753582639793	135664444.03351146
0.8214806771035456	137315416.58836332
0.8216860472728215	138656470.91260773
0.8218914687846397	139997860.50043324
0.822096941651836	141339585.4356564
0.822302465887249	142681645.8021126
0.8225080415037209	144024041.68366113
0.8227136685140968	145428594.55102617
0.8229193469312254	146840516.57607695
0.8231250767679583	148252791.58163446
0.8233308580371503	149665419.6559426
0.8235366907516598	151078400.88727033
0.8237425749243477	151937084.66913986
0.8239485105680789	152502008.50329742
0.824154497695721	153067073.56841314
0.824360536320145	153632279.89979526
0.8245666264542252	154197627.5327602
0.8247727681108388	154608047.7339451
0.8249789613028664	154796482.87749788
0.8251852060431922	154984965.12983674
0.825391502344703	155173494.5027386
0.8255978502202894	155362071.00798383
0.8258042496828445	155614227.52557415
0.8260107007452654	156174998.93103373
0.8262172034204517	156735910.52934408
0.8264237577213068	157296962.3555542
0.8266303636607373	157858154.44472107
0.8268370212516525	158419486.83190998
0.8270437305069654	158599253.20977286
0.8272504914395923	158749236.65933543
0.8274573040624523	158899257.60476044
0.8276641683884679	159049316.05542165
0.8278710844305652	159199412.02069572
0.8280780522016729	159903236.9791913
0.8282850717147234	160860329.23916614
0.8284921429826521	161817660.772205
0.8286992660183978	162775231.63812786
0.8289064408349024	163733041.89676654
0.8291136674451112	164848648.2741111
0.8293209458619727	166163204.6139924
0.8295282760984382	167478089.5929569
0.829735658167463	168793303.2931677
0.8299430920820048	170108845.79680187
0.8301505778550254	171187616.39501667
0.8303581154994891	171320317.99673703
0.8305657050283641	171453052.77385795
0.8307733464546212	171585820.73467302
0.8309810397912352	171718621.88747853
0.8311887850511829	171851456.24057198
0.8313965822474458	173028441.3504844
0.8316044313930077	174254183.72520682
0.8318123325008561	175480232.53552407
0.8320202855839813	176706587.8580433
0.8322282906553774	177933249.76939327
0.8324363477280413	179173181.47490278
0.8326444568149735	180418642.0732141
0.8328526179291771	181664414.03667355
0.8330608310836596	182910497.44312575
0.8332690962914304	184156892.37042794
0.8334774135655034	184667864.34622005
0.833685782918895	184357124.41140112
0.8338942043646247	184046306.79159865
0.834102677915716	183735411.46739104
0.834311203585195	183424438.41935262
0.8345197813860912	183626496.11557293
0.8347284113314379	185555775.47908643
0.8349370934342709	187485537.16243973
0.8351458277076294	189415781.28621152
0.8353546141645565	191346507.97101748
0.8355634528180977	193277717.3374938
0.8357723436813022	191199267.35177666
0.8359812867672226	189070782.7158452
0.8361902820889144	186941765.95875585
0.8363993296594368	184812216.94747657
0.8366084294918518	182682135.54894376
0.8368175815992247	180857577.0981719
0.8370267859946247	179137971.1545449
0.8372360426911234	177417935.30943248
0.8374453517017962	175697469.45535895
0.8376547130397217	173976573.48482215
0.8378641267179816	173913310.540439
0.8380735927496613	175495261.5394326
0.8382831111478488	177077608.02617496
0.8384926819256358	178660350.09953818
0.8387023050961173	180243487.8584211
0.8389119806723914	181206259.11764857
0.8391217086675596	180422243.16179946
0.8393314890947265	179638031.20196196
0.8395413219670003	178853623.18913445
0.8397512072974922	178069019.07430318
0.8399611450993165	177287310.29559854
0.8401711353855914	176658928.23695245
0.8403811781694378	176030389.0827919
0.8405912734639802	175401692.79384264
0.8408014212823464	174772839.33082086
0.8410116216376671	174143828.6544334
0.8412218745430766	173465414.3551168
0.8414321800117124	172772501.65883204
0.8416425380567154	172079415.73437285
0.8418529486912297	171386156.5384324
0.8420634119284025	170692724.02769354
0.8422739277813847	172530450.7300799
0.8424844962633302	176598839.0845656
0.842695117387396	180668244.53613478
0.8429057911667428	184738667.33906698
0.8431165176145345	188810107.7477019
0.8433272967439382	191305853.85873905
0.8435381285681244	189956185.73115462
0.8437490131002665	188606180.1865386
0.8439599503535415	187255837.1405373
0.84417094034113	185905156.50877348
0.8443819830762154	184448794.26422718
0.8445930785719846	180869905.1993648
0.8448042268416277	177290121.4122382
0.8450154278983382	173709442.67916524
0.8452266817553128	170127868.77640933
0.8454379884257517	166545399.48017728
0.8456493479228583	166963464.2859484
0.845860760259839	168345225.9753077
0.846072225449904	169727333.10508934
0.8462837435062666	171109785.76165372
0.8464953144421433	172492584.03138304
0.8467069382707537	173584022.97012153
0.8469186150053215	174448359.65605882
0.847130344659073	175312912.42616788
0.8473421272452377	176177681.33446857
0.8475539627770492	177042666.43499726
0.8477658512677435	177540195.41328436
0.8479777927305605	177257144.91513887
0.8481897871787432	176974023.65436888
0.848401834625538	176690831.61328357
0.8486139350841944	176407568.77418816
0.8488260885679657	176050014.3772425
0.8490382950901076	174787646.09349778
0.8492505546638802	173524962.21768147
0.8494628673025462	172261962.67089665
0.8496752330193721	170998647.37422326
0.8498876518276269	169735016.24872744
0.8501001237405839	170338229.21870506
0.8503126487715191	171314310.92120445
0.850525226933712	172290636.64412892
0.8507378582404455	173267206.4484841
0.8509505427050057	174244020.39529097
0.8511632803406821	176839358.37131593
0.8513760711607672	180543570.52826843
0.8515889151785576	184248708.73826593
0.8518018124073523	187954773.23281282
0.8520147628604541	191661764.24348116
0.8522277665511693	194950461.64748478
0.8524408234928071	197464683.85443944
0.8526539336986805	199979534.6169465
0.8528670971821053	202495014.09214434
0.8530803139564007	205011122.43720803
0.8532935840348901	207211284.3366896
0.8535069074308987	206738354.6395558
0.8537202841577566	206265306.7099973
0.8539337142287962	205792140.51845637
0.8541471976573534	205318856.03536785
0.8543607344567677	204845453.2311585
0.8545743246403821	203999290.3525012
0.8547879682215422	203093736.16831157
0.8550016652135977	202187955.595576
0.8552154156299011	201281948.57769716
0.8554292194838088	200375715.0580632
0.8556430767886797	198801001.95307496
0.855856987557877	196820149.5814364
0.8560709518047664	194838801.9967062
0.8562849695427177	192856959.07507905
0.8564990407851035	190874620.69272092
0.8567131655452999	189555971.05647364
0.8569273438366862	189325279.9494081
0.8571415756726455	189094531.16956577
0.8573558610665638	188863724.7025284
0.8575702000318304	188632860.5338745
0.8577845925818384	189374387.15002346
0.857999038729984	196190370.73717213
0.8582135384896665	203008058.320216
0.858428091874289	209827450.32515606
0.8586426988972576	216648547.17809552
0.8588573595719821	223471349.30525056
0.8590720739118751	220847414.27056503
0.8592868419303532	217108823.60679787
0.8595016636408359	213369298.29536477
0.8597165390567462	209628838.10260504
0.8599314681915105	205887442.7947962
0.8601464510585584	202557843.85759044
0.860361487671323	199446487.63618353
0.8605765780432408	196334353.57572216
0.8607917221877518	193221441.4817431
0.8610069201182988	190107751.15974143
0.8612221718483286	184815260.62944183
0.8614374773912907	176381533.82048282
0.8616528367606385	167945698.57982388
0.8618682499698288	159507754.38034946
0.8620837170323213	151067700.69482654
0.8622992379615795	143965791.2949018
0.8625148127710699	143494511.46715203
0.8627304414742627	143023113.8194453
0.8629461240846313	142551598.3223266
0.8631618606156526	142079964.94633356
0.8633776510808066	141608213.6619966
0.8635934954935769	148248397.14390567
0.8638093938674504	155473228.49495086
0.8640253462159173	162699866.05383357
0.8642413525524714	169928310.27210584
0.8644574128906095	177158561.6014312
0.8646735272438323	176041012.61695573
0.8648896956256433	171040385.22594914
0.8651059180495498	166038507.67809448
0.8653221945290621	161035379.66085768
0.8655385250776946	156031000.86160955
0.8657549097089641	154105152.03017807
0.8659713484363913	156121618.51056948
0.8661878412735006	158138589.10758194
0.866404388233819	160156063.9472434
0.8666209893308775	162174043.1556138
0.8668376445782103	163738246.69779885
0.8670543539893549	163448693.3428853
0.8672711175778525	163159067.5996328
0.8674879353572469	162869369.44994482
0.8677048073410862	162579598.8757193
0.8679217335429217	162289755.85885006
0.8681387139763074	160719687.43466732
0.8683557486548015	159085631.75647044
0.8685728375919655	157451167.56435198
0.8687899808013633	155816294.75618905
0.8690071782965637	154181013.22982198
0.869224430091138	152926108.92479333
0.8694417361986609	151825832.25269645
0.8696590966327107	150725280.51143178
0.869876511406869	149624453.6322317
0.8700939805347206	148523351.5463124
0.8703115040298544	147725676.9228706
0.870529081905862	147275022.96823585
0.8707467141763385	146824256.35011256
0.8709644008548827	146373377.04033476
0.8711821419550964	145922385.01072982
0.8713999374905854	145779387.369926
0.871617787474958	146699738.61002383
0.8718356919218269	147620319.9379325
0.8720536508448075	148541131.4111732
0.8722716642575187	149462173.08728167
0.8724897321735832	150383445.0238096
0.8727078546066265	151013652.1483894
0.8729260315702784	151639585.2702638
0.873144263078171	152265674.87541798
0.8733625491439405	152891921.0029735
0.8735808897812266	153518323.69206116
0.8737992850036719	153329624.5627823
0.874017734824923	152852127.13180515
0.8742362392586293	152374510.32647046
0.874454798318444	151896774.11693448
0.8746734120180236	151418918.47334614
0.8748920803710283	151104784.9192603
0.875110803391121	150955217.98104125
0.8753295810919689	150805613.65108758
0.875548413487242	150655971.9200514
0.8757673005906139	150506292.77858248
0.8759862424157616	150818588.97755775
0.8762052389763657	152467818.97594288
0.8764242902861098	154117461.28182644
0.8766433963586814	155767515.99828693
0.8768625572077712	157417983.22842705
0.8770817728470732	159069263.2602739
0.8773010432902849	160752201.539306
0.8775203685511077	162435560.5529103
0.8777397486432454	164119340.40626585
0.8779591835804065	165803541.20458683
0.8781786733763015	167488163.05310515
0.8783982180446457	165577336.70063177
0.878617817599157	162596328.7199725
0.8788374720535569	159614575.48731944
0.8790571814215703	156632076.81635898
0.8792769457169257	153648832.52073073
0.879496764953355	151933205.71178526
0.8797166391445934	151357491.90842065
0.8799365683043796	150781634.17660517
0.8801565524464557	150205632.48035675
0.8803765915845676	149629486.78368375
0.8805966857324639	149893689.4379728
0.880816834903897	152269023.05074087
0.881037039112623	154644950.49691308
0.8812572983724012	157021471.92494658
0.8814776126969944	159398587.48333812
0.8816979821001687	161640466.6062005
0.8819184065956938	160685428.31855473
0.8821388861973429	159730151.27133608
0.8823594209188923	158774635.40485653
0.882580010774122	157818880.6594108
0.8828006557768155	156862886.97527817
0.8830213559407598	158463248.91787055
0.8832421112797452	160707020.4504409
0.8834629218075651	162951352.9258931
0.8836837875380171	165196246.48446482
0.8839047084849018	167441701.26642653
0.884125684662023	166894520.28261948
0.8843467160831886	164108811.7366269
0.8845678027622095	161322406.7634978
0.8847889447129001	158535305.1891249
0.8850101419490785	155747506.83935893
0.8852313944845657	155442764.46277767
0.885452702333187	160574576.4145936
0.8856740655087704	165707671.3193968
0.8858954840251476	170842049.49792477
0.8861169578961539	175977711.270995
0.886338487135628	180436180.9171381
0.886560071757412	175867008.46311247
0.8867817117753515	171296693.7159735
0.8870034072032955	166725236.39014566
0.8872251580550963	162152636.1999917
0.8874469643446101	157578892.8597874
0.8876688260856963	157296117.89543796
0.8878907432922178	157901579.7834011
0.8881127159780409	158507193.03683585
0.8883347441570356	159112957.69358468
0.8885568278430749	159718873.79149708
0.8887789670500358	159704552.73513764
0.8890011617917983	159250140.75263187
0.8892234120822464	158795615.16713026
0.8894457179352669	158340975.95023265
0.8896680793647509	157886223.07353047
0.8898904963845921	157874257.82534367
0.8901129690086883	158707356.9566189
0.8903354972509405	159540664.3626767
0.8905580811252535	160374180.09558672
0.8907807206455347	161207904.2074288
0.8910034158256963	161964607.30335826
0.8912261666796527	162031302.7982502
0.8914489732213227	162098014.96701586
0.8916718354646282	162164743.8138238
0.8918947534234944	162231489.34284335
0.8921177271118502	162298251.55824515
0.8923407565436284	163088501.70819053
0.8925638417327644	163996967.2526768
0.8927869826931977	164905659.91354954
0.8930101794388711	165814579.74758744
0.8932334319837308	166723726.8115837
0.8934567403417267	168002307.25817767
0.8936801045268123	169510625.4773338
0.8939035245529441	171019320.7760437
0.8941270004340824	172528393.2485789
0.894350532184191	174037842.98923182
0.8945741198172371	174769590.60118368
0.8947977633471915	174211169.12620616
0.8950214627880284	173652608.0458599
0.8952452181537254	173093907.3252439
0.8954690294582639	172535066.92944738
0.8956928967156286	171951949.387525
0.8959168199398075	171212042.7048418
0.8961407991447926	170471951.04548776
0.8963648343445789	169731674.36321887
0.896588925553165	168991212.61177987
0.8968130727845534	168250565.7449029
0.8970372760527496	170653979.02554557
0.8972615353717629	173451401.5669849
0.8974858507556059	176249523.4640599
0.8977102222182949	179048344.89160842
0.8979346497738496	181847866.0245154
0.8981591334362931	183445405.63371763
0.8983836732196523	184385626.44728833
0.8986082691379572	185326082.3160618
0.8988329212052417	186266773.29880247
0.8990576294355432	187207699.45428964
0.8992823938429022	186203660.67012927
0.8995072144413631	182307105.41879296
0.8997320912449734	178409576.02864525
0.8999570242677847	174511072.2561509
0.9001820135238516	170611593.85771316
0.9004070590272328	167376551.38017538
0.9006321607919896	167629010.51951182
0.9008573188321878	167881532.77363336
0.9010825331618959	168134118.15831828
0.9013078037951865	168386766.68934944
0.9015331307461353	168639478.38251323
0.9017585140288219	169306491.27317345
0.9019839536573292	170009350.3113859
0.9022094496457435	170712385.0643574
0.9024350020081551	171415595.57601792
0.9026606107586572	172118981.89030614
0.902886275911347	173352850.3280017
0.9031119974803249	174842671.77096984
0.9033377754796951	176332865.66929877
0.903563609923565	177823432.1161016
0.903789500826046	179314371.20451713
0.9040154482012526	180508198.56388345
0.904241452063303	181316959.23197767
0.9044675124263188	182125922.09023872
0.9046936293044254	182935087.18921423
0.9049198027117517	183744454.57946485
0.9051460326624297	184063836.55744293
0.9053723191705955	182295964.88857147
0.9055986622503881	180527651.25178444
0.9058250619159507	178758895.53658813
0.9060515181814298	176989697.63246194
0.9062780310609752	175220057.4288609
0.9065046005687405	175721016.02939272
0.906731226718883	176348794.5445409
0.9069579095255627	176976730.00431708
0.907184649002944	177604822.44795823
0.907411445165195	178233071.91471094
0.9076382980264862	176861969.656068
0.907865207600993	174660132.32556656
0.9080921739028933	172457744.53573313
0.9083191969463691	170254806.1489526
0.9085462767456058	168051317.0275743
0.9087734133147922	169304967.12251645
0.9090006066681211	174552605.54120007
0.909227856819788	179801555.86948147
0.9094551637839932	185051818.43535215
0.9096825275749393	190303393.56686264
0.9099099482068329	193691334.7288387
0.9101374256938848	190452069.38642412
0.9103649600503083	187211994.22767547
0.9105925512903209	183971109.05013776
0.9108201994281437	180729413.65130228
0.9110479044780008	177486907.82862076
0.9112756664541204	178079145.80119398
0.911503485370734	178759326.9977824
0.9117313612420768	179439678.23967
0.9119592940823873	180120199.56936786
0.912187283905908	180800891.02939832
0.9124153307268845	180739218.7757277
0.9126434345595664	180408034.70544103
0.9128715954182063	180076767.83913708
0.9130998133170609	179745418.1561164
0.9133280882703902	179413985.635675
0.913556420292458	179413948.3107225
