#wavelength	surface flux
0.6450077295303345	95806.56949886426
0.6472567915916443	99133.71016577187
0.6494921445846558	102660.73042709722
0.6517150402069092	106276.08574527553
0.6539263725280762	109779.52003703201
0.6561272740364075	113522.90447440284
0.6583186388015747	117184.22034168632
0.6605015397071838	121205.66688074273
0.6626768708229065	124900.0349479719
0.6648455858230591	129004.30123051399
0.6670085787773132	133068.58708366644
0.6691668033599854	133950.4420142012
0.6713210344314575	134306.62802729962
0.6734722256660461	145518.871041202
0.6756211519241333	150356.85555718208
0.6777685880661011	155135.06205548524
0.6799154281616211	159387.9535252108
0.6820623278617859	164194.4502415353
0.6842101216316223	169429.2230354249
0.6863595843315125	174432.21859247185
0.688511312007904	179457.5244173619
0.6906660795211792	184176.55835343164
0.6928245425224304	189233.24570222633
0.6949873566627502	195488.32098105742
0.6971551775932312	201159.17194799244
0.6993286609649658	206834.7523918088
0.7015084028244019	212633.3980115556
0.7036949396133423	218618.26633690015
0.7058889269828796	224841.22699573194
0.7080909013748169	231010.14393251945
0.710301399230957	237339.75845287045
0.712520956993103	243928.61289297257
0.7147500514984131	250677.49300204258
0.7169892191886902	257126.7638438272
0.7192389369010925	264454.59108353686
0.7214996814727783	271517.5692533919
0.723771870136261	278767.8624020988
0.7260559797286987	286095.49211919407
0.7283523678779602	293793.15437762137
0.7306615710258484	301482.26605854696
0.7329838871955872	309848.3791895527
0.7353196740150452	318073.76966245275
0.7376693487167358	326438.8784246033
0.7400332689285278	335111.4489995757
0.7424117922782898	343398.2718603938
0.7448052167892456	352089.0979368606
0.7472138404846191	360497.6184041293
0.7496379613876343	368662.2898622376
0.7520779371261597	375958.7056523352
0.7545340061187744	381603.0025018119
0.7570064663887024	383464.71704277804
0.7594954967498779	376561.01741912257
0.7620013952255249	340207.68336187705
0.7645244002342224	197894.4408249669
0.7670646905899048	63144.54799564235
0.7696225643157959	52958.73738613531
0.7721980810165405	293695.27847678965
0.7747915983200073	422506.5608753309
0.7774031162261963	466939.1353491299
0.7800329327583313	484836.376805243
0.7826811671257019	514157.0969933741
0.7853479981422424	533568.8246252738
0.7880334854125977	551123.4475130035
0.7907378077507019	567704.8401914351
0.7934610247612	537068.865137591
0.7962033748626709	551971.9945234101
0.7989648580551147	617308.3575222198
0.801745593547821	634627.2204255501
0.8045456409454346	652055.9775216557
0.8073651194572449	669687.526178341
0.8102040886878967	686268.0220519067
0.8130625486373901	703617.4536179748
0.8159406185150146	724154.6595746999
0.8188382983207703	742877.3122542062
0.8217556476593018	762305.3398704476
0.8246926665306091	782824.3948886615
0.8276493549346924	803578.5589027393
0.8306257724761963	824001.0834350312
0.8336219191551208	846113.6431977628
0.8366377949714661	867075.7717074674
0.8396733403205872	889741.0366363548
0.8427285552024841	914693.8253978889
0.8458034992218018	938389.5150784455
0.8488980531692505	962685.2258338473
0.8520121574401855	986796.4237099249
0.8551458716392517	1013346.7568289165
0.8582990765571594	1039654.3277678436
0.8614717125892639	1061462.9082670049
0.8646637797355652	1087399.9553767645
0.8678751587867737	1117073.722306692
0.8711057901382446	1145037.840704133
0.8743556141853333	1174478.5260051189
0.87762451171875	1204860.0797101106
0.8809124231338501	1231868.3460037739
0.8842192888259888	1265187.9065355686
0.8875449895858765	1295510.1594413377
0.8908893465995789	1324031.1219986498
0.894252359867096	1352998.476835698
0.8976338505744934	1391691.0634175928
0.9010337591171265	1428088.7145050857
0.9044519662857056	1464800.8426786042
0.9078882932662964	1499245.7257928813
0.9113426208496094	1536371.063165698
0.914814829826355	1569978.2604703617
0.9183048605918884	1603700.8899217208
0.9218124747276306	1647882.8334799754
0.925337553024292	1672197.3692392795
0.9288799166679382	1658045.7051564106
0.9324395060539246	1715266.0982932241
0.9360161423683167	1760329.0853938954
0.9396095871925354	1821255.9742524903
0.943219780921936	1852242.6576745822
0.9468464851379395	1877351.549422779
0.9504896402359009	1937673.1887803152
0.9541489481925964	1982488.1214676138
0.9578243494033813	2029184.1730521375
0.9615156054496765	2044825.8375521288
0.9652225375175476	2100027.327556353
0.9689450263977051	2139092.7139297035
0.9726828336715698	2236758.2215261636
0.9764357805252075	2278152.532051039
0.9802037477493286	2337112.1205635294
0.983986496925354	2390535.3104183446
0.9877838492393494	2445763.47274265
0.9915955662727356	2504411.327156914
0.9954215884208679	2561563.964459651
0.9992615580558777	2616353.0882255672
1.0031154155731201	2668285.15228734
1.0069829225540161	2729842.659947433
1.0108637809753418	2791397.134777378
1.0147579908370972	2854331.5342361736
1.018665075302124	2915449.062891772
1.022585153579712	2971814.7278024945
1.0265177488327026	3027197.0455069104
1.0304628610610962	3081258.5208141985
1.0344202518463135	3158717.0028665517
1.0383895635604858	3221769.490166015
1.0423706769943237	3286249.275178218
1.0463634729385376	3351365.945208883
1.0503677129745483	3413597.941361243
1.0543830394744873	3482366.7913226797
1.058409333229065	3548679.5885194275
1.0624464750289917	3614033.4636554266
1.0664942264556885	3681315.47727124
1.0705522298812866	3746843.435342633
1.0746204853057861	3819660.4800875257
1.0786986351013184	3889731.550553585
1.0827864408493042	3962086.0688443496
1.086883783340454	4030902.1669549183
1.0909905433654785	4089147.8061317084
1.0951062440872192	4152859.818060159
1.0992310047149658	4183967.4762504846
1.10336434841156	4126989.981575837
1.1075061559677124	4213969.179468993
1.1116561889648438	4264222.599334417
1.115814208984375	4261971.625911869
1.1199802160263062	4347347.058856273
1.124153733253479	4472734.685368615
1.1283347606658936	4580658.466315376
1.1325229406356812	4475565.694716077
1.1367181539535522	4673340.109654698
1.1409201622009277	4834015.395280271
1.145128846168518	4954324.812920737
1.1493438482284546	4983183.153320464
1.1535650491714478	4746325.264068174
1.1577922105789185	4959999.035475027
1.1620250940322876	5047969.893454109
1.1662636995315552	5297691.430486278
1.170507550239563	5315999.932190133
1.174756646156311	5488898.07642865
1.1790107488632202	5647026.380684761
1.1832695007324219	5768425.6332327435
1.1875330209732056	5849841.942214466
1.191800832748413	5958119.2840044275
1.1960728168487549	6067322.237541413
1.2003488540649414	6167506.1228601085
1.2046287059783936	6242214.441324733
1.2089121341705322	6341463.984306744
1.2131990194320679	6430545.627593356
1.2174891233444214	6537174.640200868
1.2217823266983032	6628767.466953778
1.2260783910751343	6721695.204242461
1.230377197265625	6809666.021903331
1.2346785068511963	6896696.248746796
1.238982081413269	6989418.161639305
1.2432878017425537	7082671.833957697
1.2475954294204712	7176266.262911309
1.2519049644470215	7255471.022896053
1.256216049194336	7365437.029835621
1.2605286836624146	7452966.667809807
1.2648425102233887	7537902.007493452
1.2691574096679688	7627298.920852861
1.2734732627868652	7712588.677526983
1.2777899503707886	7806750.08376278
1.2821072340011597	7886606.6567722615
1.2864248752593994	7977537.41921272
1.2907428741455078	8042435.222343865
1.2950609922409058	8137893.162531391
1.2993791103363037	8230660.474430523
1.303696870803833	8295660.345708048
1.3080145120620728	8385430.0719060395
1.3123314380645752	8476270.663462859
1.3166478872299194	8598142.059206866
1.3209635019302368	8660442.225485923
1.3252781629562378	8652097.395195875
1.3295916318893433	8602503.105397612
1.3339040279388428	8032690.56589975
1.3382149934768677	6672007.858440655
1.3425244092941284	5931715.082907224
1.3468321561813354	7330371.5207580915
1.3511382341384888	6603918.100590976
1.3554422855377197	5498302.0432238225
1.3597444295883179	6077195.290671427
1.3640443086624146	6272114.815377515
1.3683418035507202	6777762.708241451
1.3726370334625244	7778737.708164908
1.3769296407699585	8642171.086399538
1.381219506263733	7191395.664428199
1.3855066299438477	5806924.19398748
1.3897908926010132	6229793.060284466
1.3940720558166504	6318417.311312581
1.3983501195907593	6033040.411279666
1.4026249647140503	7383508.000660308
1.4068963527679443	8568218.371936262
1.4111642837524414	6476983.997907553
1.4154287576675415	7008934.940927719
1.419689416885376	7742912.085530617
1.4239463806152344	6499695.496174815
1.4281994104385376	8406256.30714423
1.4324485063552856	7110882.692790224
1.436693549156189	7746722.753096824
1.440934419631958	8012288.003198636
1.4451709985733032	8998975.841818407
1.449403166770935	9868019.73133817
1.453631043434143	10021679.917201784
1.4578542709350586	10253359.784622505
1.4620729684829712	10334576.340195064
1.4662868976593018	10585958.166464787
1.4704961776733398	10376420.96700851
1.4747005701065063	10541471.008829957
1.4788999557495117	10666463.8960954
1.4830944538116455	11061679.866405545
1.4872838258743286	11318103.898448361
1.491468071937561	11394081.347720739
1.4956470727920532	11364427.483220976
1.4998208284378052	11663190.385710051
1.5039892196655273	11910318.936033392
1.5081522464752197	11887351.013402794
1.5123097896575928	12008068.942905482
1.5164618492126465	12196744.885791097
1.5206083059310913	12453742.023594612
1.5247491598129272	12633007.100375298
1.5288842916488647	12610099.040039554
1.5330137014389038	12758341.056264393
1.5371372699737549	12898393.76153672
1.541254997253418	12955019.158110175
1.545366883277893	13082346.217408199
1.5494728088378906	13190571.75371718
1.5535727739334106	13305993.020398846
1.5576666593551636	13315581.054795437
1.561754584312439	13402682.851227105
1.5658363103866577	13571247.455371171
1.5699119567871094	13672810.658948816
1.5739814043045044	13702930.234258244
1.5780447721481323	13702050.291431872
1.582101821899414	13834279.325268583
1.5861525535583496	14011413.003857652
1.5901970863342285	14075196.421898143
1.5942351818084717	14144385.245284628
1.5982669591903687	14187960.252543557
1.6022924184799194	14277361.949022429
1.606311559677124	14374338.840339152
1.6103241443634033	14441055.783491585
1.6143304109573364	14495027.61006607
1.6183301210403442	14565651.0783292
1.6223233938217163	14626008.346916066
1.6263102293014526	14721796.92556942
1.6302905082702637	14758434.539260391
1.634264349937439	14832194.410897098
1.638231635093689	14957230.427703058
1.6421923637390137	15027646.519721517
1.646146535873413	15086122.708960863
1.6500942707061768	15120886.51639741
1.6540353298187256	15211449.373950582
1.6579699516296387	15281547.255767208
1.661897897720337	15318155.18739565
1.6658192873001099	15291383.83383535
1.6697341203689575	15322750.06158696
1.6736423969268799	15536926.6372509
1.677544116973877	15610632.259865468
1.6814392805099487	15667232.700258367
1.6853278875350952	15731826.058026442
1.6892099380493164	15762070.99489386
1.6930854320526123	15725685.205181219
1.696954369544983	15696188.993364265
1.7008168697357178	15829172.185710477
1.7046726942062378	15875378.846480262
1.708522081375122	15923071.24152806
1.712364912033081	15941978.409579905
1.7162011861801147	16004620.178888483
1.7200311422348022	16110042.222484028
1.723854422569275	16125375.479630442
1.7276713848114014	16136116.843378749
1.731481909751892	16064276.149585363
1.7352858781814575	15986443.220329873
1.7390835285186768	15961875.439986546
1.7428747415542603	15905441.203957805
1.7466596364974976	15718692.10089257
1.7504380941390991	15587200.677282775
1.7542102336883545	15166295.184778443
1.7579760551452637	15871383.729927538
1.7617355585098267	16277461.949769242
1.7654887437820435	15986209.250002556
1.7692357301712036	15389360.657273004
1.7729763984680176	14681949.884795351
1.776710867881775	13157459.154547118
1.7804391384124756	13046653.070652144
1.7841613292694092	13586266.088186366
1.7878772020339966	12546582.864687344
1.7915871143341064	13306116.575591877
1.7952908277511597	13476579.137707317
1.7989884614944458	12631246.882444758
1.8026801347732544	10932059.543319566
1.806365728378296	9075849.217018958
1.8100452423095703	9477562.972173728
1.8137187957763672	11571662.863772508
1.817386507987976	9454814.66502973
1.8210482597351074	11392867.30004937
1.8247040510177612	12089744.565860296
1.828354001045227	9304858.294241618
1.8319982290267944	10777439.41428293
1.8356364965438843	12099804.386862762
1.8392690420150757	13397108.327141931
1.8428958654403687	13297354.327759022
1.8465168476104736	13292246.682186607
1.8501322269439697	12954712.173251437
1.8537418842315674	10008810.306125568
1.8573459386825562	10246937.549931632
1.860944390296936	10749059.29934646
1.864537239074707	9473684.113838242
1.8681244850158691	11323256.375959657
1.871706247329712	13059407.610741587
1.8752825260162354	13905232.984014407
1.8788533210754395	14511677.715262143
1.8824186325073242	15094943.560874065
1.8859784603118896	14382205.86577079
1.8895330429077148	14262300.334791454
1.8930821418762207	15327276.144056432
1.8966259956359863	15089091.53096083
1.9001644849777222	12583163.29377379
1.9036977291107178	10701704.681193538
1.9072256088256836	12124918.414754814
1.9107483625411987	11847295.91667933
1.9142658710479736	9550839.97999262
1.9177782535552979	10217904.30029312
1.9212853908538818	11887138.419167906
1.9247875213623047	10990554.531084025
1.9282845258712769	11496508.681252554
1.9317764043807983	12938972.675290287
1.9352631568908691	13111649.596309412
1.9387450218200684	12196226.71837907
1.942221760749817	12565288.505486134
1.9456936120986938	12633854.143367236
1.9491604566574097	12554996.3529854
1.952622413635254	12072228.129217383
1.956079363822937	11477447.503771678
1.959531545639038	12589882.227802854
1.962978720664978	12768596.330367077
1.966421127319336	13474712.696062416
1.9698586463928223	14824150.124916768
1.9732913970947266	14912741.526197275
1.9767193794250488	15042101.475581272
1.9801424741744995	15912578.639074933
1.9835609197616577	16399567.171044772
1.9869745969772339	16445171.850527331
1.990383505821228	15537214.286046736
1.9937876462936401	15709638.330826929
1.9971871376037598	15677147.46953526
2.000581979751587	15853474.005565884
2.003972291946411	16915990.28473183
2.007357597351074	17140978.96266411
2.0107386112213135	17641303.830391724
2.0141148567199707	17776751.724712983
2.017486572265625	17351689.494126342
2.0208535194396973	17611305.72674191
2.0242159366607666	18164667.803660184
2.027573823928833	18338251.162108902
2.0309269428253174	18494099.915492862
2.034275770187378	18697016.973720636
2.0376198291778564	18806131.29397887
2.040959596633911	18912122.069774874
2.044294595718384	19066300.772035163
2.0476250648498535	19240582.30759088
2.0509510040283203	19267369.017490078
2.054272413253784	19178052.363323234
2.057589530944824	19259489.245793883
2.0609018802642822	19383458.951555964
2.0642096996307373	19476744.334964488
2.0675129890441895	19542800.441091035
2.0708119869232178	19578595.856822196
2.074106216430664	19568103.567235135
2.0773961544036865	19578276.227372658
2.080681324005127	19633784.95321505
2.0839622020721436	19683404.471748356
2.087238311767578	19727095.207423523
2.090510129928589	19740328.84321975
2.0937774181365967	19732465.732955784
2.0970399379730225	19773745.541181523
2.1002981662750244	19801011.990199905
2.1035518646240234	19805124.828262977
2.1068007946014404	19804884.47941168
2.1100454330444336	19875849.011115063
2.1132853031158447	19947864.242655877
2.116520881652832	19946697.080830194
2.1197516918182373	19963005.010939524
2.1229779720306396	20008964.53856371
2.12619948387146	20043999.20084038
2.1294167041778564	20063694.84370932
2.132629156112671	20091414.410499092
2.1358368396759033	20098882.33941143
2.139039993286133	20087595.664455738
2.1422386169433594	20092205.80275706
2.145432472229004	20104377.218252994
2.1486217975616455	20112358.287346803
2.151806354522705	20106815.94768141
2.1549863815307617	20120754.500886388
2.1581614017486572	20148209.802133944
2.16133189201355	20155555.487635683
2.1644976139068604	20166563.721010312
2.167658567428589	20171536.755944464
2.1708147525787354	20166943.348600235
2.173966407775879	20149376.928607732
2.1771130561828613	20149949.71625448
2.1802549362182617	20177871.310295515
2.183391809463501	20194604.18864462
2.1865241527557373	20191443.902723473
2.1896514892578125	20179120.454723634
2.1927738189697266	20104584.455415778
2.1958916187286377	19953147.076318856
2.1990041732788086	19832559.666548148
2.2021119594573975	19801789.40501265
2.2052149772644043	19806863.736495476
2.208312749862671	19850514.487772048
2.2114057540893555	19921941.08316349
2.214493751525879	19955899.03455229
2.217576742172241	19930868.85365207
2.2206547260284424	19927544.207897272
2.2237277030944824	19927463.281006522
2.2267956733703613	19848348.63650411
2.2298583984375	19750959.640693292
2.2329163551330566	19711657.077955652
2.235969066619873	19722110.34738272
2.2390167713165283	19695314.999602217
2.2420592308044434	19548911.067814607
2.2450966835021973	19389547.341474365
2.248128890991211	19411260.927227434
2.2511560916900635	19549821.689389523
2.254178285598755	19638826.589150243
2.257194995880127	19682225.461860612
2.260206699371338	19655579.262284562
2.2632133960723877	19488481.520817768
2.266214609146118	19294179.3532847
2.2692108154296875	19248978.17708401
2.2722020149230957	19371350.373558845
2.2751877307891846	19493116.089133512
2.278168201446533	19466928.706766542
2.2811436653137207	19359669.485791273
2.284113883972168	19314696.714059524
2.287078857421875	19291538.577093896
2.290038824081421	19109964.298766427
2.2929933071136475	18627604.799442783
2.295942783355713	17864397.146090623
2.298887014389038	17013797.48618722
2.301826238632202	16277957.112830026
2.304760217666626	15714270.385985196
2.3076889514923096	15382506.699203376
2.310612440109253	15488735.575363904
2.3135311603546143	15748759.544303516
2.3164443969726562	15530587.155415703
2.319352865219116	15112096.62291985
2.322256088256836	14928821.735674093
2.3251543045043945	14919526.540123664
2.328047275543213	14994696.605749158
2.330935478210449	15237187.9823055
2.3338186740875244	15568136.93967839
2.3366971015930176	15923388.76815892
2.3395702838897705	16293283.824358778
2.3424389362335205	16709427.658883017
2.3453025817871094	17126670.52237232
2.348161458969116	17307452.832095705
2.351015567779541	17176600.929243144
2.353865146636963	16927137.13244075
2.3567099571228027	16761289.051252248
2.3595502376556396	16839993.140916042
2.3623859882354736	17227091.03501803
2.3652172088623047	17179798.060761876
2.368043899536133	16316411.536230482
2.370866537094116	16166609.660840295
2.3736846446990967	16560814.923238289
2.3764986991882324	16216661.661785623
2.3793084621429443	15551928.151658015
2.3821144104003906	15463662.380182568
2.384916305541992	16211304.34201641
2.387714147567749	17279102.21371028
2.3905084133148193	17929054.604713496
2.393299102783203	17853200.98677354
2.3960859775543213	17066909.784073375
2.398869514465332	16357857.97671339
2.4016497135162354	15984150.688778495
2.4044265747070312	15968600.18754371
2.407200336456299	16206558.789829975
2.409970998764038	16493934.291405996
2.4127390384674072	16666772.92409399
2.415503978729248	16821839.36427169
2.418266534805298	17133761.88086624
2.4210267066955566	17311777.680499736
2.4237842559814453	17236163.385079227
2.426539897918701	17044852.361900754
2.429293394088745	16882889.06869612
2.4320452213287354	16849640.658124033
2.4347951412200928	16953171.892497655
2.4375438690185547	17005065.679230146
2.440291166305542	16720852.01213076
2.443037271499634	16251415.800505174
2.445782423019409	15757776.014775205
2.4485268592834473	15351318.945451086
2.451270818710327	15270254.121160528
2.454014539718628	15739111.331635129
2.4567582607269287	16338597.682123559
2.4595019817352295	16067584.393057436
2.4622461795806885	16168595.244362207
2.4649908542633057	15890367.82533537
2.4677364826202393	14861681.005749058
2.4704833030700684	13228364.905764913
2.473231554031372	11533853.946162343
