#wavelength	surface flux
0.7	594617.8520529954
0.7001166666666666	595777.4257828768
0.7002333527777778	596372.9181921236
0.700350058336574	596968.5098501053
0.7004667833462966	597564.2007733623
0.7005835278101878	598159.9909784416
0.7007002917314895	598755.8804818874
0.7008170751134447	599351.8693002504
0.7009338779592968	599947.9574500829
0.7010507002722901	599984.748031305
0.7011675420556689	599340.7958870757
0.701284403312678	598696.73641749
0.7014012840465635	598052.5696046585
0.7015181842605713	597408.2954306917
0.701635103957948	596763.9138776963
0.701752043141941	596119.4249277754
0.701869001815798	595474.8285630287
0.7019859799827672	595273.9490135293
0.7021029776460976	595381.9126699563
0.7022199948090387	595489.8943203263
0.7023370314748403	595597.8939676379
0.7024540876467528	595705.9116148907
0.702571163328027	595813.9472650845
0.7026882585219152	595922.0009212202
0.7028053732316688	596030.0725862986
0.7029225074605406	597730.0784347549
0.7030396612117841	600045.0794584528
0.7031568344886527	602360.466315655
0.7032740272944008	604676.2390706652
0.7033912396322832	606992.3977878026
0.7035084715055552	609308.9425313905
0.7036257229174727	611625.8733657699
0.7037429938712924	613943.1903552904
0.7038602843702709	615693.9297548356
0.7039775944176659	617348.7997332452
0.7040949240167356	619003.9455233185
0.7042122731707383	620659.3671710227
0.7043296418829335	622315.0647223358
0.7044470301565806	623971.0382232405
0.70456443799494	625627.2877197274
0.7046818654012724	627283.813257798
0.7047993123788394	628176.7923810143
0.7049167789309024	629069.0438138646
0.7050342650607243	629961.4439552885
0.7051517707715678	630853.9928300688
0.7052692960666963	631746.6904629946
0.705386840949374	632639.5368788587
0.7055044054228656	633532.5321024603
0.7056219894904361	634241.3681944293
0.7057395931553511	633779.0649339178
0.705857216420877	633316.6846228626
0.7059748592902804	632854.2272484225
0.7060925217668288	632391.6927977528
0.70621020385379	631929.081258008
0.7063279055544321	631466.3926163407
0.7064456268720246	631003.6268598989
0.7065633678098366	630718.6749352425
0.7066811283711383	630923.5904828906
0.7067989085592001	631128.54018313
0.7069167083772933	631333.5240416526
0.7070345278286895	631538.5420641517
0.707152366916661	631743.5942563214
0.7072702256444803	631948.6806238561
0.7073881040154211	632153.8011724524
0.7075060020327569	632738.4062114814
0.7076239196997625	633875.7201345076
0.7077418570197124	635013.2236098531
0.7078598139958823	636150.9166691111
0.7079777906315483	637288.79934388
0.7080957869299869	638426.8716657606
0.7082138028944751	639565.1336663609
0.7083318385282908	640703.5853772954
0.7084498938347124	640418.7906180576
0.708567968817018	638927.1300871136
0.7086860634784875	637435.2209460792
0.7088041778224007	635943.0631535201
0.7089223118520377	634450.6566679977
0.7090404655706796	632958.0014480618
0.709158638981608	631465.0974522542
0.709276832088105	629971.9446391136
0.7093950448934531	630340.4005006796
0.7095132774009353	631596.8577150423
0.7096315296138355	632853.5243389412
0.7097498015354378	634110.400407277
0.7098680931690269	635367.4859549565
0.7099864045178884	636624.7810168954
0.7101047355853081	637882.2856280111
0.7102230863745722	639139.9998232278
0.7103414568889679	640128.6268864094
0.7104598471317828	641056.2281542928
0.7105782571063047	641983.984022387
0.7106966868158224	642911.8945164591
0.710815136263625	643839.9596622799
0.7109336054530023	644768.1794856257
0.7110520943872445	645696.5540122751
0.7111706030696424	646625.0832680127
0.7112891315034873	646463.662256267
0.7114076796920712	646250.2022909394
0.7115262476386865	646036.706748951
0.7116448353466263	645823.1756243723
0.711763442819184	645609.6089112728
0.711882070059654	645396.006603721
0.7120007170713306	645182.3686957846
0.7121193838575091	644977.1529967429
0.7122380704214853	644860.1159427714
0.7123567767665555	644743.0593826245
0.7124755028960166	644625.9833130507
0.7125942488131658	644508.8877307988
0.7127130145213015	644391.7726326161
0.7128318000237216	644274.6380152508
0.7129506053237256	644157.4838754492
0.7130694304246129	643997.1591248858
0.7131882753296837	643685.9362588065
0.7133071400422386	643374.6615222493
0.7134260245655789	643063.3349065697
0.7135449289030065	642751.9564031208
0.7136638530578235	642440.5260032546
0.7137827970333332	642129.0436983214
0.7139017608328388	641817.5094796709
0.7140207444596443	641455.3069377657
0.7141397479170543	641002.7493931841
0.7142587712083737	640550.1164223456
0.7143778143369084	640097.4080126783
0.7144968773059646	639644.6241516093
0.7146159601188489	639191.7648265637
0.7147350627788687	638738.8300249637
0.7148541852893318	638285.8197342304
0.7149733276535467	637077.7979483778
0.7150924898748222	635108.31424361
0.715211671956468	633138.5022915576
0.7153308739017941	631168.3620375118
0.715450095714111	629197.8934267579
0.71556933739673	627227.0964045685
0.7156885989529628	625255.970916209
0.7158078803861218	623284.5169069319
0.7159271816995193	619072.1882552446
0.7160465028964692	613544.0967918168
0.7161658439802853	608015.0839798119
0.7162852049542819	602485.1496656727
0.7164045858217744	596954.293695811
0.716523986586078	591422.5159166234
0.7166434072505089	585889.8161744754
0.716762847818384	580356.1943157016
0.7168823082930204	577708.1455092651
0.7170017886777359	575908.8500015229
0.7171212889758488	574109.2546111972
0.7172408091906781	572309.359288306
0.7173603493255433	570509.1639828603
0.7174799093837642	568708.6686448647
0.7175994893686615	566907.8732243121
0.7177190892835562	565106.7776711902
0.7178387091317702	570677.771479289
0.7179583489166254	576989.7554247542
0.7180780086414448	583302.7913675485
0.7181976883095517	589616.8794829998
0.7183173879242699	595932.019946471
0.718437107488924	602248.2129333541
0.7185568470068389	608565.4586190708
0.7186766064813399	614584.1213103179
0.7187963859157535	613112.2300517126
0.7189161853134061	611640.0934778975
0.719036004677625	610167.7115479866
0.7191558440117378	608695.0842210884
0.7192757033190732	607222.2114563003
0.7193955826029597	605749.0932127198
0.7195154818667269	604275.7294494308
0.7196354011137046	602602.8749813635
0.7197553403472235	600012.3814453152
0.7198752995706147	597421.4561603452
0.7199952787872098	594830.0990544925
0.720115278000341	592238.3100557891
0.7202352972133411	589646.0890922522
0.7203553364295432	587053.436091892
0.7204753956522815	584460.3509826945
0.7205954748848902	583010.6470308469
0.7207155741307044	584082.3823772174
0.7208356933930594	585154.2963461439
0.7209558326752915	586226.3889673988
0.7210759919807375	587298.6602707586
0.7211961713127342	588371.1102860009
0.7213163706746197	589443.7390429141
0.7214365900697322	590516.5465712858
0.7215568295014103	590070.7869671381
0.721677088972994	587812.8333182855
0.7217973684878227	585554.5033438285
0.7219176680492374	583295.7969810398
0.7220379876605789	581036.7141671919
0.722158327325189	578777.2548395409
0.7222786870464099	576517.4189353365
0.7223990668275843	574257.2063918138
0.7225194666720555	572344.133817022
0.7226398865831676	570677.0361614509
0.7227603265642646	569009.6606562745
0.722880786618692	567342.0072551771
0.7230012667497951	565674.0759118474
0.7231217669609201	564005.8665799601
0.7232422872554135	562337.3792131857
0.7233628276366229	560668.6137651807
0.7234833881078956	560874.9906277078
0.7236039686725803	561793.4266508955
0.7237245693340255	562712.0157467524
0.7238451900955812	563630.7579407935
0.7239658309605971	564549.6532585326
0.7240864919324239	565468.7017254925
0.7242071730144127	566387.903367197
0.724327874209915	567307.2582091732
0.7244485955222832	561450.6921730078
0.7245693369548704	554472.7834370291
0.7246900985110294	547493.7117162715
0.7248108801941148	540513.4768168752
0.7249316820074803	533532.0785450189
0.7250525039544815	526549.5167067727
0.7251733460384739	519565.79110821895
0.7252942082628137	512596.23536482867
0.7254150906308574	514510.41287666105
0.7255359931459625	516424.9094180789
0.7256569158114868	518339.72504225426
0.7257778586307888	520254.8598023679
0.7258988216072273	522170.3137516077
0.7260198047441617	524086.08694317023
0.7261408080449525	526002.179430268
0.72626183151296	527601.3832428915
0.7263828751515454	527092.8242752795
0.7265039389640706	526584.1805478396
0.726625022953898	526075.4520464449
0.7267461271243904	525566.6387569665
0.7268672514789111	525057.7406652733
0.7269883960208241	524548.7577572321
0.7271095607534942	524039.69001870573
0.7272307456802866	523400.8227196044
0.7273519508045666	522411.4581851938
0.7274731761297006	521421.9287566946
0.7275944216590555	520432.234406624
0.7277156873959987	519442.3751074947
0.7278369733438982	518452.35083181394
0.727958279506122	517462.1615520899
0.7280796058860397	516471.807240818
0.7282009524870207	514241.2993129397
0.7283223193124353	510176.33847214904
0.7284437063656539	506110.7001378932
0.7285651136500483	502044.3841972416
0.7286865411689898	497977.39053727506
0.7288079889258514	493909.719045022
0.7289294569240056	489841.3696075295
0.7290509451668262	485772.3421117928
0.7291724536576875	482571.3875660651
0.7292939823999636	480089.75335096894
0.7294155313970303	477607.7055301652
0.7295371006522632	475125.2440347254
0.7296586901690385	472642.36879570497
0.7297802999507332	470159.0797441458
0.7299019300007252	467675.3768110716
0.7300235803223919	465191.25992751523
0.7301452509191123	464475.11581635574
0.7302669417942654	464575.085665507
0.7303886529512311	464675.0721762999
0.7305103843933897	464775.0753515112
0.7306321361241218	464875.09519391827
0.7307539081468093	464975.1317062993
0.7308757004648336	465075.1848914322
0.7309975130815778	465175.2547520961
0.7311193460004248	466230.8240707936
0.7312411992247582	467502.87842131464
0.7313630727579622	468775.14478089375
0.7314849666034219	470047.6231848675
0.7316068807645224	471320.3136685744
0.7317288152446498	472593.21626736247
0.7318507700471907	473866.3310165844
0.7319727451755319	475139.65795159736
0.732094740633061	472663.7719121806
0.7322167564231665	470018.67291533836
0.7323387925492371	467373.1330686632
0.7324608490146619	464727.152298681
0.732582925822831	462080.73053190316
0.7327050229771347	459433.8676948339
0.7328271404809642	456786.5637139557
0.7329492783377112	454110.40493086324
0.7330714365507675	451154.4645116941
0.7331936151235259	448198.03143578913
0.7333158140593796	445241.10562104156
0.7334380333617229	442283.6869853203
0.7335602730339499	439325.7754464918
0.7336825330794556	436367.37092240615
0.7338048135016354	433408.47333090554
0.7339271143038857	431276.26030425844
0.734049435489603	431915.3044514595
0.7341717770621846	432554.45510601863
0.7342941390250283	433193.71228568646
0.7344165213815324	433833.07600821735
0.734538924135096	434472.5462913696
0.7346613472891185	435112.12315290153
0.734783790847	435751.8066105773
0.7349062548121412	434920.9803186089
0.7350287391879431	431490.6410719552
0.7351512439778078	428059.7301020867
0.7352737691851374	424628.24731372733
0.735396314813335	421196.1926115669
0.7355188808658037	417763.5659002951
0.7356414673459482	414330.3670845644
0.7357640742571725	410896.5960690335
0.7358867016028818	408357.3536844204
0.7360093493864824	406701.6809777578
0.7361320176113801	405045.7323256463
0.736254706280982	403389.50768209284
0.7363774153986956	401733.0070010966
0.7365001449679286	400076.2302366569
0.7366228949920899	398419.17734275514
0.7367456654745885	396761.8482733711
0.7368684564188344	395252.52967542276
0.7369912678282374	393826.7680381697
0.7371140997062088	392400.7687739766
0.7372369520561599	390974.5318432381
0.7373598248815024	389548.05720634764
0.7374827181856494	388121.34482368204
0.7376056319720137	386694.39465561917
0.7377285662440091	385267.2066625281
0.7378515210050496	383598.0381652164
0.7379744962585505	381855.8584670788
0.738097492007927	380113.38840565865
0.7382205082565949	378370.62793256267
0.738343545007971	376627.57699938817
0.7384666022654723	374884.2355577231
0.7385896800325165	373140.6035591537
0.7387127783125219	371396.68095524894
0.7388358971089073	369830.591241631
0.7389590364250921	368282.1067466435
0.7390821962644963	366733.3641709056
0.7392053766305403	365184.3634714073
0.7393285775266454	363635.10460512474
0.7394517989562333	362085.5875290296
0.7395750409227259	360535.81220009096
0.7396983034295463	358959.6548532708
0.739821586480118	356802.0931763317
0.7399448900778645	354644.1719057841
0.7400682142262109	352485.89098168485
0.740191558928582	350327.25034410047
0.7403149241884034	348168.24993307824
0.7404383100091014	346008.88968865364
0.7405617163941028	343849.16955085634
0.7406851433468352	341538.9454911021
0.7408085908707264	338541.4638459242
0.7409320589692048	335543.4826204735
0.7410555476456997	332545.0017314828
0.7411790569036406	329546.02109567943
0.7413025867464579	326546.54062976927
0.7414261371775823	323546.5602504473
0.7415497082004452	320546.0798743978
0.7416732998184786	317652.22343178425
0.741796912035115	314987.68677985447
0.7419205448537874	312322.70603848324
0.7420441982779297	309657.2811336552
0.742167872310976	306991.41199134063
0.7422915669563612	304325.0985375024
0.7424152822175206	301658.3406980892
0.7425390180978901	298991.13839903777
0.7426627746009065	296871.99033203936
0.7427865517300065	295421.14834621357
0.7429103494886282	293970.06455338857
0.7430341678802096	292518.7389132659
0.7431580069081896	291067.1713855366
0.7432818665760077	289615.36192988395
0.7434057468871037	288163.31050598994
0.7435296478449182	286711.0170735261
0.7436535694528923	284915.1020720207
0.7437775117144678	282883.8339373015
0.7439014746330868	280852.22725789616
0.7440254582121922	278820.28197737585
0.7441494624552276	276787.998039308
0.7442734873656368	274755.3753872509
0.7443975329468645	272722.4139647502
0.7445215992023557	270689.1137153459
0.7446456861355559	268458.3585683021
0.7447697937499119	266154.61932288966
0.7448939220488703	263850.4961209369
0.7450180710358784	261545.98889845237
0.7451422407143843	259241.0975914306
0.7452664310878367	256935.82213585544
0.7453906421596846	254630.16246770686
0.7455148739333779	252324.11852294614
0.7456391264123667	249971.2093371135
0.7457633996001021	247610.47596079644
0.7458876935000356	245249.34912891244
0.7460120081156189	242887.8287758943
0.7461363434503048	240525.91483614952
0.7462606995075466	238163.60724407935
0.7463850762907978	235800.90593408069
0.7465094738035127	233438.3537503056
0.7466338920491467	231217.4299844898
0.746758331031155	228996.13606471085
0.7468827907529935	226774.47192928125
0.7470072712181189	224552.43751649567
0.7471317724299886	222330.03276464087
0.7472562943920602	220107.25761199565
0.7473808371077922	217884.11199682302
0.7475054005806435	215662.69085198006
0.7476299848140736	213453.80381539924
0.7477545898115426	211244.5486309785
0.7478792155765113	209034.9252373598
0.7480038621124406	206824.93357317726
0.7481285294227926	204614.5735770512
0.7482532175110298	202403.8451875901
0.7483779263806148	200192.74834340054
0.7485026560350116	197987.9623934297
0.7486274064776842	195800.88655313133
0.748752177712097	193613.44620019686
0.7488769697417158	191425.64127386556
0.749001782570006	189237.47171338255
0.7491266162004343	187048.9374579734
0.7492514706364677	184860.03844685404
0.7493763458815739	182670.77461923062
0.7495012419392209	180469.0747031499
0.7496261588128773	178249.65403253067
0.7497510965060128	176029.86345846477
0.7498760550220971	173809.70291930405
0.7500010343646007	171589.1723533864
0.7501260345369949	169368.27169904005
0.750251055542751	167147.00089458714
0.7503760973853414	164925.35987833212
0.7505011600682389	162721.14361829113
0.750626243594917	160531.41843178007
0.7507513479688495	158341.32829107458
0.7508764731935109	156150.87313534488
0.7510016192723765	153960.05290375534
0.7511267862089218	151768.86753546257
0.7512519740066232	149577.31696960764
0.7513771826689577	147385.40114532382
0.7515024121994025	145258.28691412855
0.7516276626014359	143161.202640629
0.751752933878536	141063.76885308756
0.7518782260341824	138965.9854932475
0.7520035390718548	136867.85250284654
0.7521288729950334	134769.36982361492
0.7522542278071992	132670.53739726992
0.7523796035118337	130571.35516551952
0.7525050001124189	128513.25320940155
0.7526304176124378	126463.8183650325
0.7527558560153731	124414.041948192
0.752881315324709	122363.9239019467
0.7530067955439299	120313.46416935965
0.7531322966765205	118262.66269348655
0.7532578187259665	116211.51941736686
0.7533833616957542	114160.03428403454
0.75350892558937	112194.46715284039
0.7536345104103016	110232.62861492089
0.7537601161620366	108270.46310391276
0.7538857428480638	106307.97056531755
0.7540113904718717	104345.15094463511
0.7541370590369503	102382.00418734967
0.7542627485467898	100418.53023893677
0.7543884590048808	98466.56032053023
0.7545141904147151	96632.2478953469
0.7546399427797842	94797.62975142899
0.7547657161035808	92962.70583782015
0.754891510389598	91127.47610355912
0.7550173256413296	89291.940497675
0.7551431618622698	87456.09896919032
0.7552690190559135	85619.95146711796
0.7553948972257561	83803.82466344217
0.7555207963752938	82055.62432836721
0.755646716508023	80307.13262657075
0.755772657627441	78558.34950949006
0.7558986197370455	76809.27492855625
0.756024602840335	75059.90883519273
0.7561506069408084	73310.25118081368
0.7562766320419653	71560.30191682398
0.7564026781473054	69837.39840798976
0.75652874526033	68162.31430268464
0.7566548333845401	66486.95101669444
0.7567809425234375	64811.30850349049
0.7569070726805247	63135.3867165353
0.7570332238593047	61459.185609282504
0.7571593960632813	59782.705135176904
0.7572855892959586	58105.94524765886
0.7574118035608413	56538.11037709687
0.7575380388614347	55076.8525044429
0.7576642952012449	53615.35108880959
0.7577905725837782	52153.60608960912
0.7579168710125422	50691.61746623952
0.7580431904910444	49229.38517809881
0.7581695310227928	47766.90918457859
0.7582958926112967	46304.1894450576
0.7584222752600652	44928.81316240218
0.7585486789726085	43603.52317905535
0.7586751037524372	42278.01231404413
0.7588015496030628	40952.280530552816
0.7589280165279966	39626.32779176688
0.7590545045307512	38300.154060857814
0.7591810136148396	36973.759300993624
0.7593075437837755	35647.143475334175
0.7594340950410726	34449.388755248954
0.7595606673902461	33288.88587874551
0.7596872608348112	32128.189585094813
0.7598138753782836	30967.299842063123
0.75994051102418	29806.21661740651
0.7600671677760173	28644.939878880024
0.7601938456373134	27483.469594229566
0.7603205446115863	26321.805731198983
0.7604472647023548	25302.51232222276
0.7605740059131385	24297.219882012276
0.7607007682474575	23291.75989306078
0.7608275517088319	22286.132327446685
0.7609543563007835	21280.337157236092
0.7610811820268336	20274.374354497737
0.7612080288905045	19268.24389129419
0.7613348968953197	18268.694039496855
0.7614617860448022	17407.437807799874
0.7615886963424764	16546.038033396435
0.7617156277918667	15684.49469236476
0.7618425803964988	14822.807760775539
0.7619695541598982	13960.977214697949
0.7620965490855914	13099.003030196649
0.7622235651771058	12236.885183330267
0.7623506024379685	11417.651768121912
0.7624776608717082	10786.878751948972
0.7626047404818536	10156.000606939973
0.7627318412719337	9525.017315574558
0.762858963245479	8893.92886032685
0.7629861064060198	8262.735223669879
0.7631132707570876	7631.436388072811
0.7632404563022137	7000.032336003707
0.7633676630449308	6430.129508792192
0.7634948909887717	5991.271394160249
0.7636221401372697	5552.340136509772
0.7637494104939593	5113.335723649272
0.7638767020623748	4674.258143387264
0.7640040148460518	4235.107383528044
0.7641313488485262	3795.8834318755307
0.7642587040733344	3356.5862762305774
0.7643860805240132	2996.692575929898
0.7645134782041005	2731.578387265448
0.7646408971171346	2466.420012902777
0.764768337266654	2201.217445477809
0.7648957986561985	1935.9706776248518
0.7650232812893079	1670.6797019772873
0.7651507851695227	1405.3445111671124
0.7652783103003843	1139.9650978251682
0.7654058566854343	972.3944186069118
0.7655334243282153	871.485164509394
0.7656610132322699	770.5590922029915
