#wavelength (Angstrom)	surface_flux (erg / (Angstrom cm2 s))
6300.0	14.869685693312173
6301.3125	22.087993489875377
6302.6252734375	26.101354658347123
6303.938320369467	26.850160840725096
6305.251640852877	27.32402036628481
6306.565234944722	27.649452347840658
6307.8791027020025	27.971289366246218
6309.193244181732	28.19594853315933
6310.5076594409375	27.83117133021318
6311.822348536654	27.491703712713946
6313.137311525933	28.510907025401977
6314.452548465834	29.868270526141462
6315.768059413431	30.501533656044302
6317.083844425809	30.93090196887465
6318.399903560065	31.34575677180715
6319.716236873307	31.776134692061532
6321.032844422655	32.22856785554388
6322.349726265244	32.67728842993531
6323.666882458216	33.122465999866584
6324.984313058728	33.573890926337555
6326.302018123949	34.02935390921888
6327.619997711058	34.48727883822869
6328.938251877249	34.94787235266524
6330.256780679723	35.39711336138499
6331.575584175699	35.7751666003083
6332.894662422402	36.005797480494834
6334.214015477073	36.388207798943625
6335.533643396964	37.11142230793788
6336.853546239339	37.75872026195629
6338.173724061472	38.181946302501935
6339.494176920652	38.65378418397815
6340.814904874177	39.262782371049
6342.135907979359	39.851056916384444
6343.457186293522	40.37473247868118
6344.778739874001	40.901743267139864
6346.100568778142	41.43562342819495
6347.422673063304	41.97117743630478
6348.745052786858	42.50902169307874
6350.067708006189	43.05013916666801
6351.39063877869	43.59619668027311
6352.713845161769	44.143913669315985
6354.037327212845	44.69526025014707
6355.3610849893485	45.255817421986436
6356.685118548721	45.820677115684845
6358.009427948419	46.386669351453016
6359.334013245908	46.9561333501602
6360.658874498668	47.53398661580913
6361.984011764189	48.11796649157458
6363.309425099973	48.69183107112843
6364.635114563535	49.270388413225106
6365.961080212403	49.885315110426106
6367.2873221041145	50.49877591833316
6368.61384029622	51.07286178003482
6369.940634846282	51.687968456532516
6371.267705811875	52.36026297435258
6372.595053250586	53.00121252135448
6373.922677220014	53.59763401126404
6375.250577777768	54.22963506767262
6376.578754981471	54.9326760779709
6377.907208888761	55.630646711659196
6379.235939557279	56.29621141484019
6380.564947044686	56.96139746113512
6381.894231408654	57.64061269474542
6383.223792706865	58.32696311004709
6384.553630997012	59.019192509561144
6385.883746336804	59.73113073706678
6387.2141387839565	60.44286918727302
6388.544808396204	61.14040599183673
6389.875755231287	61.861054008513385
6391.20697934696	62.61346418714248
6392.53848080099	63.37318944716745
6393.870259651158	64.16354904826005
6395.202315955253	64.9700075028834
6396.534649771077	65.71464979619502
6397.867261156446	66.43483093309429
6399.2001501691875	67.26334433699378
6400.533316867139	68.14190824911915
6401.866761308153	68.96788303017642
6403.200483550093	69.79617686755812
6404.534483650832	70.65147433623642
6405.868761668259	71.5066991085605
6407.2033176602745	72.35418844986035
6408.5381516847865	73.19885153078019
6409.873263799722	74.0429781629953
6411.2086540630135	74.91242469791374
6412.544322532611	75.80562273692027
6413.880269266471	76.68410185505377
6415.216494322568	77.55548811904896
6416.552997758886	78.44509797315604
6417.8897796334195	79.35057618771401
6419.226840004177	80.25922613821146
6420.5641789291785	81.14927803095794
6421.9017964664545	81.87686386475544
6423.239692674053	82.3969874534296
6424.577867610025	83.29840095797377
6425.9163213324455	84.60083278765198
6427.25505389939	85.68490844114385
6428.594065368952	86.63773791500012
6429.933355799238	87.63258679695417
6431.272925248362	88.60421854693192
6432.612773774456	89.53522672836033
6433.9529014356585	90.06496950350488
6435.293308290125	89.43468603446469
6436.63399439602	89.4787057389285
6437.974959811519	91.82925602267845
6439.316204594813	94.1490217462722
6440.657728804104	95.34773369632424
6441.999532497605	96.34694733255398
6443.341615733541	97.48073209079541
6444.683978570154	98.64100296595427
6446.026621065689	99.71835872294027
6447.369543278411	100.78776545874372
6448.7127452665945	101.84990420199682
6450.056227088525	102.88862839946256
6451.399988802502	103.94171977362926
6452.744030466836	105.03508065319208
6454.088352139851	106.14357949502684
6455.43295387988	107.24719897400777
6456.777835745272	108.28911864200327
6458.122997794385	108.67977389915973
6459.468440085592	108.3641394224833
6460.814162677278	109.59012305353261
6462.160165627836	112.20860450483292
6463.506448995675	113.99626955161453
6464.853012839217	115.22930143448735
6466.199857216891	116.42229092514377
6467.546982187145	117.32124290628917
6468.894387808435	117.99632064305095
6470.242074139227	119.29964840580834
6471.590041238007	121.08448307821546
6472.938289163264	122.54118060300654
6474.286817973508	123.7886409345726
6475.6356277272525	125.03160611922267
6476.984718483029	126.26924081188827
6478.334090299379	127.33171079789847
6479.683743234858	127.92728869142647
6481.033677348033	128.64638194567775
6482.38389269748	130.10494709968904
6483.734389341793	131.68320298019879
6485.085167339573	133.03102729528484
6486.436226749436	134.3577163817109
6487.787567630007	135.71300780697186
6489.139190039932	137.08327113846153
6490.491094037857	138.4479248761733
6491.843279682447	139.76753256188186
6493.195747032382	141.08921290851524
6494.548496146348	142.51387355688684
6495.901527083045	143.98784195727745
6497.254839901187	145.42352355876767
6498.6084346595	146.77152730397532
6499.962311416722	147.99903199955176
6501.316470231601	149.3371703922897
6502.670911162898	150.92269167816872
6504.025634269391	152.5397651087761
6505.3806396098635	154.069071559579
6506.735927243117	155.59717858946985
6508.091497227958	157.01554675449597
6509.447349623215	157.53189677215937
6510.80348448772	157.66362007037907
6512.159901880322	159.76751188043517
6513.51660185988	162.81160855533238
6514.873584485267	164.79372161959947
6516.23084981537	166.34535693895612
6517.58839790908	167.7160005221467
6518.946228825313	168.99177238922545
6520.304342622985	170.63496571766598
6521.662739361031	172.49352103156173
6523.021419098398	174.21699671995788
6524.380381894044	175.89146431859263
6525.739627806938	177.52914966288216
6527.099156896065	179.0540881702262
6528.458969220418	180.38340754951477
6529.819064839006	181.820238985972
6531.179443810848	183.6406871309936
6532.540106194976	185.26600817828188
6533.9010520504335	186.20266447570566
6535.262281436278	187.16385506528437
6536.6237944115765	189.01849475401863
6537.985591035413	191.2686170843292
6539.347671366879	193.1534873651659
6540.71003546508	194.8958869279969
6542.072683389135	196.74691287790134
6543.435615198176	198.5906369171209
6544.798830951341	200.30467519573602
6546.162330707791	201.86775767092504
6547.526114526688	203.59553974768056
6548.890182467215	205.52681382108068
6550.254534588562	207.38828550735153
6551.619170949934	209.08761415576856
6552.984091610549	210.50812965166324
6554.349296629635	212.24490489643057
6555.7147860664345	214.4934292838945
6557.080559980198	216.5918041352342
6558.446618430195	218.58248067364642
6559.8129614757	220.5948693748919
6561.1795891760075	222.53483500405946
6562.54650159042	224.40678659450933
6563.913698778251	226.26198880522736
6565.281180798831	228.15462587383303
6566.648947711497	230.2081860654888
6568.016999575604	232.33624250197664
6569.385336450516	234.4131481146343
6570.753958395609	236.5182679889523
6572.122865470276	238.61625685109806
6573.492057733915	240.66227712056892
6574.861535245943	242.6325128290637
6576.231298065786	244.51175171075792
6577.601346252884	246.0889156855238
6578.971679866686	246.0143726075525
6580.342298966659	242.52211601845514
6581.7132036122775	242.34111867941832
6583.08439386303	249.72179334692697
6584.455869778419	255.61527140243717
6585.827631417956	258.0771678098805
6587.199678841168	261.0954289470445
6588.572012107595	263.82291414014685
6589.944631276783	265.62430545286855
6591.3175364083	267.2313949441981
6592.690727561718	269.36333413947705
6594.064204796627	271.8259438871033
6595.437968172626	273.94922934174525
6596.812017749329	275.86322017671574
6598.18635358636	278.2333975208227
6599.5609757433585	280.90538731667505
6600.935884279972	283.2989990103795
6602.311079255864	285.5161416330158
6603.686560730708	287.7171261417326
6605.062328764195	288.9723662094936
6606.43838341602	288.9630583806943
6607.814724745898	290.363123189101
6609.191352813554	294.4293355192483
6610.568267678725	298.6353587096913
6611.9454694011565	301.6051664209274
6613.322958040616	304.1138362211497
6614.700733656875	306.5959507542633
6616.07879630972	309.07885602412165
6617.457146058951	311.5320195757501
6618.835782964381	313.9151467814259
6620.214707085831	316.2747009287171
6621.593918483141	318.6069196109707
6622.973417216159	320.930023644245
6624.353203344746	323.0397601481042
6625.733276928776	325.372119951094
6627.113638028136	328.02010548320413
6628.494286702727	329.7425282574857
6629.8752230124555	329.4496274556795
6631.25644701725	330.33320640913536
6632.637958777046	335.2899723820501
6634.019758351792	340.28391766991524
6635.401845801448	343.28472558957225
6636.784221185991	345.9283048777335
6638.166884565405	348.3471628864976
6639.54983599969	350.6845664554834
6640.933075548856	353.18699724865775
6642.316603272929	355.7873969520902
6643.700419231944	358.6444777967005
6645.084523485952	361.53947921364977
6646.468916095012	364.2584476223689
6647.853597119198	366.8943476325041
6649.238566618597	369.2940306076826
6650.623824653309	371.48765351924754
6652.009371283446	372.8368918638161
6653.39520656913	373.8493791247605
6654.781330570499	376.72413136750794
6656.167743347702	380.5297891206641
6657.554444960899	383.3218181293113
6658.941435470266	385.90109485871244
6660.328714935989	388.5719985002998
6661.716283418268	391.0618370458592
6663.104140977314	393.7749785630219
6664.492287673351	396.6397040716027
6665.880723566617	399.1984456242902
6667.269448717359	401.4348331231985
6668.658463185843	404.25595131597424
6670.04776703234	407.61184660429427
6671.437360317139	410.5194519346972
6672.827243100539	412.8741102529539
6674.21741544285	415.51088628949134
6675.607877404403	418.6007126218203
6676.998629045529	421.33719748028346
6678.389670426579	424.1293746114775
6679.781001607919	426.94351748091265
6681.17262264992	428.6932406001703
6682.564533612973	429.8480825376414
6683.956734557476	432.0875373948411
6685.349225543842	435.5723970429413
6686.742006632498	438.96157329349444
6688.135077883879	441.70749152476606
6689.528439358438	444.3481909181817
6690.9220911166385	447.14772882065466
6692.316033218955	449.9577516529446
6693.710265725876	452.66199434333566
6695.104788697902	455.2119668937092
6696.4996021955485	457.9730025257391
6697.894706279339	461.05595085034173
6699.290101009814	464.2029864211668
6700.685786447524	467.2474988067532
6702.081762653035	469.979022200303
6703.478029686921	471.94611683138675
6704.874587609773	470.9625512505184
6706.27143648219	467.480485201433
6707.668576364793	448.24951449417404
6709.066007318201	393.80891578786054
6710.46372940306	380.2903517637582
6711.861742680019	441.227207316989
6713.260047209744	485.4361903618004
6714.658643052912	493.85431155593585
6716.0575302702155	496.14414513368877
6717.4567089223565	498.1967944717924
6718.856179070049	501.0585551301197
6720.255940774021	503.8672794668917
6721.6559940950165	507.06314353716334
6723.056339093787	510.53548708300957
6724.456975831098	513.5079664781975
6725.85790436773	515.3210003572545
6727.259124764472	515.7994271376657
6728.660637082132	517.9461564769745
6730.062441381524	521.2633660712565
6731.464537723479	524.1235412262773
6732.866926168839	528.7810171924067
6734.269606778457	534.5926317144597
6735.672579613203	539.2934497146414
6737.075844733956	542.7393731602339
6738.4794022016085	545.9251171995202
6739.883252077068	549.0768341076148
6741.2873944212515	552.119900782044
6742.691829295089	555.2469018493204
6744.096556759525	558.514356233949
6745.5015768755175	561.6875963786921
6746.906889704033	564.5839148910095
6748.312495306054	566.5761167238726
6749.718393742578	567.843584686632
6751.124585074607	570.2112136263714
6752.531069363165	574.0009042294909
6753.937846669282	577.5256337342121
6755.344917054005	580.464898295053
6756.752280578391	583.5477281733203
6758.159937303512	586.6283790078545
6759.567887290451	589.661310488579
6760.976130600304	592.7652308856173
6762.384667294178	595.6536312570104
6763.793497433198	598.4904891377748
6765.202621078498	601.4580202160267
6766.612038291223	604.0322237585513
6768.021749132533	605.4350663426661
6769.431753663604	606.6459081677999
6770.842051945616	610.2380922222934
6772.252644039771	614.8667729919797
6773.66353000728	618.236914951447
6775.074709909365	620.5819822176098
6776.486183807264	622.0151303109529
6777.897951762223	621.685827449127
6779.310013835508	615.5108552902359
6780.722370088391	612.4181147682215
6782.135020582158	621.9784397940805
6783.547965378113	631.0233249707538
6784.961204537568	633.9786374770796
6786.374738121846	636.6312610329137
6787.788566192289	639.2466113639633
6789.2026888102455	641.4396447493956
6790.617106037082	643.401939898503
6792.031817934173	645.3535398141183
6793.446824562909	647.3887195312564
6794.862125984693	649.8137067510769
6796.27772226094	652.4634116503479
6797.693613453079	654.5521145383639
6799.109799622548	656.1112146325772
6800.5262808308025	657.906632029733
6801.9430571393095	659.5562895305367
6803.360128609546	659.5510276269463
6804.777495303007	659.330715167033
6806.195157281196	662.0482403633598
6807.6131146056305	664.8716156558887
6809.031367337839	664.5092172563981
6810.449915539369	664.7009643414622
6811.868759271772	667.9930362680903
6813.287898596622	671.0148932106857
6814.707333575495	672.9914056763341
6816.12706426999	674.2758605461823
6817.547090741715	672.5806903364828
6818.967413052284	668.9492015373062
6820.388031263337	668.3287600074563
6821.808945436517	672.7538683647589
6823.230155633484	677.5899233742739
6824.651661915907	680.2770154141953
6826.073464345473	680.8747374799477
6827.49556298388	679.9120659210096
6828.917957892834	677.7760792378584
6830.340649134063	676.5220597470026
6831.763636769299	679.7936695337961
6833.186920860294	683.0821041271943
6834.610501468806	682.0259966077258
6836.034378656611	673.0934865461971
6837.458552485498	663.3311951225519
6838.883023017267	670.1086511928169
6840.307790313729	682.4757970524706
6841.732854436711	685.4553872120374
6843.158215448053	684.5714156266843
6844.583873409604	684.7644543868748
6846.009828383232	684.8491983193577
6847.436080430813	681.2459359967758
6848.862629614236	676.1742455514827
6850.289475995406	676.5449126610426
6851.716619636238	679.9606692212834
6853.144060598662	680.6362170160153
6854.57179894462	680.0281500720939
6855.999834736067	679.5237908906116
6857.428168034971	679.098401529797
6858.856798903312	678.0627647643415
6860.285727403084	676.4000795354215
6861.7149535962935	673.1091965234839
6863.144477544959	669.5501518403787
6864.5742993111135	666.8933581675448
6866.004418956804	660.7170101691883
6867.434836544087	659.2437310093254
6868.865552135034	666.2001231287319
6870.296565791729	669.7336018682986
6871.72787757627	668.0067716513811
6873.159487550764	666.2755176290808
6874.591395777338	664.7369817234984
6876.023602318125	662.5097765629091
6877.456107235274	660.7227354422744
6878.888910590949	658.5032530494427
6880.322012447323	656.5988171366071
6881.755412866582	653.9626536200934
6883.18911191093	650.5178171789669
6884.623109642579	648.2320173561276
6886.057406123754	644.4147665233593
6887.492001416697	638.7865817244538
6888.926895583659	635.1307299114127
6890.362088686906	631.5611622776208
6891.797580788715	612.5784539612036
6893.233371951381	545.9774631541524
6894.669462237203	486.4915416180912
6896.105851708503	527.8608127025225
6897.542540427609	595.7470466648642
6898.979528456865	615.0570427879561
6900.416815858628	615.961522043112
6901.854402695265	614.1939950978385
6903.29228902916	612.2309502725467
6904.730474922708	610.4663173962641
6906.168960438317	610.2485210867153
6907.607745638409	609.4085106395112
6909.0468305854165	607.7688291598816
6910.48621534179	605.7759290636642
6911.925899969986	601.8973010984287
6913.365884532479	598.3865735464077
6914.806169091757	597.6495020016282
6916.246753710318	595.8891908204691
6917.687638450675	588.567410054727
6919.128823375352	580.25289347638
6920.570308546889	579.290162694833
6922.012094027836	583.2967136113806
6923.454179880759	580.7732397456539
6924.896566168235	564.59222930739
6926.339252952854	555.7094734039318
6927.782240297219	568.3309545639061
6929.225528263946	578.6408026017308
6930.669116915669	578.7577700982455
6932.113006315028	577.7114012776827
6933.557196524675	576.3217354595068
6935.001687607285	574.8117824358808
6936.446479625538	573.402040196347
6937.8915726421255	570.6500508952181
6939.33696671976	563.3625227564706
6940.782661921161	553.6856620499301
6942.228658309061	554.0124495851085
6943.67495594621	562.3443062085978
6945.121554895365	565.917628800365
6946.568455219301	566.2995254601226
6948.015656980806	566.5550079028328
6949.463160242676	565.0280760317772
6950.910965067728	562.4652612298963
6952.359071518784	560.9077787389941
6953.807479658683	559.6535451366022
6955.256189550279	558.91611556587
6956.705201256435	558.8588676001111
6958.154514840031	557.2012465304227
6959.604130363956	554.7582914306504
6961.054047891116	554.8015354573554
6962.504267484427	556.2851698351841
6963.954789206819	557.225729553965
6965.405613121237	557.7492344812247
6966.856739290638	557.7640674883289
6968.30816777799	558.1306162794717
6969.759898646277	558.8586260080662
6971.211931958496	559.0887826975846
6972.6642677776545	558.9581500086813
6974.116906166776	559.0311039300478
6975.569847188894	558.9224307260715
6977.023090907059	558.3769345998794
6978.47663738433	558.5845265407654
6979.930486683786	560.2648234471013
6981.3846388685115	562.4344619295912
6982.83909400161	562.6822405906795
6984.293852146194	561.0256178540806
6985.748913365391	552.2289151757336
6987.204277722341	533.1046934724609
6988.659945280201	532.7057614432699
6990.115916102135	554.9475099930229
6991.572190251322	568.0597105718255
6993.028767790958	569.4724109905122
6994.485648784248	570.9508182938134
6995.942833294413	574.3295810778378
6997.400321384683	576.7962915466978
6998.858113118305	579.175471390526
7000.316208558537	579.520546465764
7001.774607768653	578.1963906943678
7003.23331081194	582.677567722948
7004.692317751692	590.1909708640782
7006.151628651223	594.4934519185827
7007.6112435738605	597.0290748239992
7009.071162582939	598.7499092301063
7010.5313857418105	600.7697154867943
7011.9919131138395	603.4306883894305
7013.452744762405	606.377029310841
7014.913880750897	609.5388717116002
7016.375321142722	612.3475434193462
7017.837066001293	615.0039477345205
7019.299115390043	617.5796206193965
7020.761469372417	620.3627506007329
7022.224128011869	623.6635902942807
7023.687091371872	626.9982752476856
7025.150359515908	629.8434015640072
7026.613932507475	631.8222425349645
7028.07781041008	632.9222173078487
7029.541993287248	635.5552101115028
7031.0064812025175	639.5019246586046
7032.471274219435	642.2408469245487
7033.936372401564	644.3982079561875
7035.401775812481	646.4394008116966
7036.867484515776	648.4895075633154
7038.33349857505	650.9618822300047
7039.79981805392	653.7340001717578
7041.266443016016	655.6141919551037
7042.733373524977	656.2904424620212
7044.200609644461	657.9943605555685
7045.668151438137	660.4857259429057
7047.135998969687	662.1082146379256
7048.604152302806	663.2150755621731
7050.072611501203	664.1085570901485
7051.541376628598	663.7062694154715
7053.010447748729	663.0727836193574
7054.479824925345	663.5881655701718
7055.949508222204	661.3256794121476
7057.419497703085	659.842679868816
7058.889793431773	663.6424677155377
7060.360395472071	666.1182069906515
7061.831303887795	665.4391918897154
7063.302518742772	666.8811440715119
7064.774040100844	670.2862974314219
7066.245868025865	672.3181698252872
