#wavelength	surface flux
0.6450077295303345	4.374485803344571e-07
0.6472567915916443	6.84719723565076e-07
0.6494921445846558	8.846921706344274e-07
0.6517150402069092	1.0089112159078399e-06
0.6539263725280762	1.1449377709079605e-06
0.6561272740364075	1.3016919981874604e-06
0.6583186388015747	1.484125354450339e-06
0.6605015397071838	1.698626920354474e-06
0.6626768708229065	1.9534444415511673e-06
0.6648455858230591	2.259242419261028e-06
0.6670085787773132	2.6294873975661927e-06
0.6691668033599854	3.0799538458962946e-06
0.6713210344314575	3.628378837772865e-06
0.6734722256660461	4.2951932378995175e-06
0.6756211519241333	5.104377066213148e-06
0.6777685880661011	6.083856915957447e-06
0.6799154281616211	7.2658357051294014e-06
0.6820623278617859	8.68693980733327e-06
0.6842101216316223	1.0387952547580639e-05
0.6863595843315125	1.2413563657065044e-05
0.688511312007904	1.481130438445787e-05
0.6906660795211792	1.762933061435976e-05
0.6928245425224304	2.0916252422645158e-05
0.6949873566627502	2.4720334393029797e-05
0.6971551775932312	2.90795214125518e-05
0.6993286609649658	3.4017509424504984e-05
0.7015084028244019	3.9554179180096366e-05
0.7036949396133423	4.571242802121792e-05
0.7058889269828796	5.252065813890198e-05
0.7080909013748169	6.001293634920494e-05
0.710301399230957	6.822822192152502e-05
0.712520956993103	7.720688201980311e-05
0.7147500514984131	8.698357123745154e-05
0.7169892191886902	9.760736120738134e-05
0.7192389369010925	0.00010916634545697821
0.7214996814727783	0.0001217356933654686
0.723771870136261	0.00013536939265923101
0.7260559797286987	0.0001501742501464025
0.7283523678779602	0.00016629232039278773
0.7306615710258484	0.00018388247376104145
0.7329838871955872	0.00020314668320270423
0.7353196740150452	0.0002242859061543558
0.7376693487167358	0.0002475581985091234
0.7400332689285278	0.0002733226576642649
0.7424117922782898	0.00030198944125813475
0.7448052167892456	0.0003340531310641757
0.7472138404846191	0.0003701295651854563
0.7496379613876343	0.0004109776937041691
0.7520779371261597	0.0004575396119268892
0.7545340061187744	0.0005109853957927469
0.7570064663887024	0.0005727654582388003
0.7594954967498779	0.000644635573737347
0.7620013952255249	0.000728524188697604
0.7645244002342224	0.0008263514976794187
0.7670646905899048	0.0009400221100464149
0.7696225643157959	0.0010714792208037975
0.7721980810165405	0.0012226283324777043
0.7747915983200073	0.001392035010334382
0.7774031162261963	0.001553061104474786
0.7800329327583313	0.0017175853740131804
0.7826811671257019	0.0019830393998191104
0.7853479981422424	0.0023141488769653075
0.7880334854125977	0.002625692344397281
0.7907378077507019	0.0029185077864385127
0.7934610247612	0.0031675361735129933
0.7962033748626709	0.003495261593718454
0.7989648580551147	0.003968785851682305
0.801745593547821	0.004442062027736317
0.8045456409454346	0.00489254492063262
0.8073651194572449	0.005379545992993716
0.8102040886878967	0.005913839646015739
0.8130625486373901	0.006507338548536582
0.8159406185150146	0.007178840733743672
0.8188382983207703	0.007947312991252621
0.8217556476593018	0.008827357778709242
0.8246926665306091	0.00983967843291035
0.8276493549346924	0.011005123018186354
0.8306257724761963	0.012340476099277804
0.8336219191551208	0.013871494627228401
0.8366377949714661	0.015627947887684936
0.8396733403205872	0.017637717328821086
0.8427285552024841	0.01993215808154123
0.8458034992218018	0.02254076017350143
0.8488980531692505	0.025449494585552287
0.8520121574401855	0.028715883425330064
0.8551458716392517	0.03255671942365943
0.8582990765571594	0.036950034259627805
0.8614717125892639	0.04178932998987802
0.8646637797355652	0.04717100231394958
0.8678751587867737	0.05316576097640463
0.8711057901382446	0.059819690804539284
0.8743556141853333	0.06718736184135642
0.87762451171875	0.07533875279598651
0.8809124231338501	0.0843567786070263
0.8842192888259888	0.09433232365174965
0.8875449895858765	0.10525782114014966
0.8908893465995789	0.11627976881625349
0.894252359867096	0.12784066614432144
0.8976338505744934	0.14319293563921703
0.9010337591171265	0.1613323822501145
0.9044519662857056	0.1797121240186461
0.9078882932662964	0.1991799633710857
0.9113426208496094	0.22032501257776554
0.914814829826355	0.2434260775210035
0.9183048605918884	0.26868756746847167
0.9218124747276306	0.2963168659514731
0.925337553024292	0.32600856031381853
0.9288799166679382	0.35680516138758617
0.9324395060539246	0.3895965663754234
0.9360161423683167	0.4287976670935537
0.9396095871925354	0.47615518952374947
0.943219780921936	0.5273478130136446
0.9468464851379395	0.5813780387854285
0.9504896402359009	0.6420911746017725
0.9541489481925964	0.710639329272916
0.9578243494033813	0.7875309408484755
0.9615156054496765	0.8748922896649184
0.9652225375175476	0.9742808048384761
0.9689450263977051	1.0861103066942295
0.9726828336715698	1.2105348408168533
0.9764357805252075	1.3500374473676997
0.9802037477493286	1.5081735578087951
0.983986496925354	1.6867938807049752
0.9877838492393494	1.8868700077874143
0.9915955662727356	2.1098939717974012
0.9954215884208679	2.357633527432863
0.9992615580558777	2.631191941770528
1.0031154155731201	2.931395692096492
1.0069829225540161	3.259425731856238
1.0108637809753418	3.6168231427237956
1.0147579908370972	4.005272810303903
1.018665075302124	4.426476546634118
1.022585153579712	4.88225615998131
1.0265177488327026	5.374823976510696
1.0304628610610962	5.906508715342944
1.0344202518463135	6.479656237702702
1.0383895635604858	7.0967361688235835
1.0423706769943237	7.7603986902774045
1.0463634729385376	8.473704359905797
1.0503677129745483	9.240071721817456
1.0543830394744873	10.063262796892685
1.058409333229065	10.947164860409016
1.0624464750289917	11.896016229078647
1.0664942264556885	12.91488971487982
1.0705522298812866	14.009364570388962
1.0746204853057861	15.185381835722154
1.0786986351013184	16.449499366233283
1.0827864408493042	17.80907085244202
1.086883783340454	19.27066678398522
1.0909905433654785	20.84156359962236
1.0951062440872192	22.530169348147712
1.0992310047149658	24.33367215493409
1.10336434841156	26.22975704982834
1.1075061559677124	28.17587050455194
1.1116561889648438	30.132114023148283
1.115814208984375	32.13318994344844
1.1199802160263062	34.33114347845468
1.124153733253479	37.16134662100183
1.1283347606658936	40.64156154035523
1.1325229406356812	44.025501483079864
1.1367181539535522	47.75996942458484
1.1409201622009277	52.18584652737011
1.145128846168518	56.44419389302999
1.1493438482284546	60.70179344807411
1.1535650491714478	65.46911610607653
1.1577922105789185	70.89515608654021
1.1620250940322876	77.13549885210188
1.1662636995315552	83.97084597526677
1.170507550239563	91.17430646742243
1.174756646156311	98.83231832964805
1.1790107488632202	107.00563319451618
1.1832695007324219	115.72925321343854
1.1875330209732056	125.08292613410497
1.191800832748413	135.14625965763466
1.1960728168487549	145.96725748210352
1.2003488540649414	157.58673746690152
1.2046287059783936	170.07039393743537
1.2089121341705322	183.5034803250844
1.2131990194320679	197.97101143377247
1.2174891233444214	213.55114246603642
1.2217823266983032	230.29066203929082
1.2260783910751343	248.27043695447185
1.230377197265625	267.59240844309886
1.2346785068511963	288.3325740707991
1.238982081413269	310.5901766357526
1.2432878017425537	334.45775920716585
1.2475954294204712	360.0440295324207
1.2519049644470215	387.4736017447504
1.256216049194336	416.8626281082994
1.2605286836624146	448.3327776154734
1.2648425102233887	482.00355280033085
1.2691574096679688	518.000195424851
1.2734732627868652	556.4568580091727
1.2777899503707886	597.5311093263538
1.2821072340011597	641.3745147539458
1.2864248752593994	688.0802679170381
1.2907428741455078	737.7216092249233
1.2950609922409058	790.5442960981849
1.2993791103363037	846.9070473522486
1.303696870803833	907.0978117043568
1.3080145120620728	971.2876367622864
1.3123314380645752	1039.2978684477366
1.3166478872299194	1111.547882027742
1.3209635019302368	1188.213653497111
1.3252781629562378	1268.0851362555914
1.3295916318893433	1347.994951536628
1.3339040279388428	1419.138988181325
1.3382149934768677	1459.4011771464466
1.3425244092941284	1441.2931244336735
1.3468321561813354	1364.4052951561462
1.3511382341384888	1269.6128183911635
1.3554422855377197	1220.1593662209953
1.3597444295883179	1262.6514350924688
1.3640443086624146	1415.0195920816639
1.3683418035507202	1656.368901565614
1.3726370334625244	1935.0999180964109
1.3769296407699585	2116.096163728393
1.381219506263733	2087.9684982497333
1.3855066299438477	2077.3421699507994
1.3897908926010132	2235.4824223196106
1.3940720558166504	2398.4982808426207
1.3983501195907593	2578.7732075358285
1.4026249647140503	2815.0078877565065
1.4068963527679443	3020.1736106360563
1.4111642837524414	3216.138185606655
1.4154287576675415	3409.7196771030904
1.419689416885376	3607.5367156756215
1.4239463806152344	3921.40995468316
1.4281994104385376	4317.593789834982
1.4324485063552856	4715.878127779592
1.436693549156189	5156.46834169195
1.440934419631958	5621.833977527736
1.4451709985733032	6079.9001306919035
1.449403166770935	6556.725493859628
1.453631043434143	7082.031645053196
1.4578542709350586	7615.523982849995
1.4620729684829712	8076.81262531065
1.4662868976593018	8468.441829760028
1.4704961776733398	8858.249445384048
1.4747005701065063	9322.306414148725
1.4788999557495117	9840.747230954887
1.4830944538116455	10392.987164912509
1.4872838258743286	10982.482939486426
1.491468071937561	11597.66821932957
1.4956470727920532	12249.467362734387
1.4998208284378052	12927.550750962566
1.5039892196655273	13624.195697692938
1.5081522464752197	14335.904678044777
1.5123097896575928	15065.799441828898
1.5164618492126465	15816.842030183503
1.5206083059310913	16594.310376183395
1.5247491598129272	17395.406728325233
1.5288842916488647	18220.663046194568
1.5330137014389038	19074.068733062282
1.5371372699737549	19953.826534384607
1.541254997253418	20859.95398030987
1.545366883277893	21799.912402983944
1.5494728088378906	22772.60554412792
1.5535727739334106	23776.863819681646
1.5576666593551636	24815.072988913307
1.561754584312439	25887.381494802896
1.5658363103866577	26994.468022833116
1.5699119567871094	28134.40949968716
1.5739814043045044	29312.758599247474
1.5780447721481323	30533.743917183554
1.582101821899414	31793.169380265823
1.5861525535583496	33090.93038522032
1.5901970863342285	34429.815153605276
1.5942351818084717	35811.731645338274
1.5982669591903687	37237.77725030562
1.6022924184799194	38705.5690934485
1.606311559677124	40213.92009913567
1.6103241443634033	41737.530285019144
1.6143304109573364	42896.75971343479
1.6183301210403442	42345.318827606454
1.6223233938217163	39386.330125114204
1.6263102293014526	36079.35285120083
1.6302905082702637	34404.64204544467
1.634264349937439	35481.78237596721
1.638231635093689	40149.67136357614
1.6421923637390137	45244.4434664141
1.646146535873413	46858.064860290484
1.6500942707061768	47231.608125152234
1.6540353298187256	49110.51183284337
1.6579699516296387	52845.55911040984
1.661897897720337	53704.27869715361
1.6658192873001099	45675.79737019266
1.6697341203689575	45218.22872163164
1.6736423969268799	57806.83763328916
1.677544116973877	64742.1335853644
1.6814392805099487	64220.82348405893
1.6853278875350952	63128.02854459774
1.6892099380493164	62683.459851937434
1.6930854320526123	62460.18043304786
1.696954369544983	59162.79199098853
1.7008168697357178	50830.53749947851
1.7046726942062378	46914.456101538955
1.708522081375122	56171.53012969021
1.712364912033081	72858.6019623313
1.7162011861801147	85250.1511657465
1.7200311422348022	85242.03592785427
1.723854422569275	74212.1891148637
1.7276713848114014	64926.6981610073
1.731481909751892	66975.90161374872
1.7352858781814575	76820.42764212692
1.7390835285186768	87497.91576389091
1.7428747415542603	94810.3151050438
1.7466596364974976	99453.2362407186
1.7504380941390991	105397.42321844422
1.7542102336883545	112278.6950989816
1.7579760551452637	115444.89698304713
1.7617355585098267	112976.42461003784
1.7654887437820435	110026.31846404716
1.7692357301712036	108638.69336644352
1.7729763984680176	106722.73538465852
1.776710867881775	111782.0798365492
1.7804391384124756	120748.30349204922
1.7841613292694092	116060.54223495815
1.7878772020339966	101880.80193494602
1.7915871143341064	90483.64680278969
1.7952908277511597	93821.10046368129
1.7989884614944458	104878.77856743133
1.8026801347732544	103586.78757010913
1.806365728378296	99840.04424936694
1.8100452423095703	98906.52111165675
1.8137187957763672	96996.64101585529
1.817386507987976	97273.96152425297
1.8210482597351074	105343.32423733019
1.8247040510177612	120093.71482031241
1.828354001045227	120641.89950593158
1.8319982290267944	113278.62536503165
1.8356364965438843	108281.32484323795
1.8392690420150757	107961.52028875744
1.8428958654403687	124286.1981141584
1.8465168476104736	136582.16019533927
1.8501322269439697	139671.67977128422
1.8537418842315674	140224.0945412576
1.8573459386825562	132931.54197984774
1.860944390296936	126776.060585102
1.864537239074707	121088.78148733689
1.8681244850158691	108168.47268239352
1.871706247329712	106775.21897499765
1.8752825260162354	139249.72626302775
1.8788533210754395	186301.48307898102
1.8824186325073242	212002.61235269232
1.8859784603118896	216133.2784834624
1.8895330429077148	217401.97773225058
1.8930821418762207	226378.45308024247
1.8966259956359863	223940.9625126356
1.9001644849777222	196009.01352013592
1.9036977291107178	179036.3294039099
1.9072256088256836	189995.11645379206
1.9107483625411987	196369.2144502352
1.9142658710479736	192396.19231708543
1.9177782535552979	201761.85900113563
1.9212853908538818	208451.307120827
1.9247875213623047	206934.85209947743
1.9282845258712769	203159.98226832668
1.9317764043807983	202462.84159643974
1.9352631568908691	201133.27376094757
1.9387450218200684	191511.84987905994
1.942221760749817	210121.89371905295
1.9456936120986938	241743.03434785042
1.9491604566574097	258855.98755841
1.952622413635254	261461.29626736636
1.956079363822937	261012.26164506783
1.959531545639038	282443.9661620533
1.962978720664978	306330.93176159245
1.966421127319336	327656.5822814022
1.9698586463928223	340698.0111467254
1.9732913970947266	346247.9494493179
1.9767193794250488	366051.93198878306
1.9801424741744995	389258.2791685292
1.9835609197616577	415960.28926212416
1.9869745969772339	430951.7809774543
1.990383505821228	427707.69810286013
1.9937876462936401	440929.3849758446
1.9971871376037598	457051.25417010585
2.000581979751587	466908.5739039966
2.003972291946411	482676.1766587129
2.007357597351074	494314.1068490557
2.0107386112213135	507963.28105064156
2.0141148567199707	520192.9116201458
2.017486572265625	525317.0968508408
2.0208535194396973	536877.2052423784
2.0242159366607666	552417.3877813484
2.027573823928833	560395.009631419
2.0309269428253174	567118.7993494372
2.034275770187378	581141.2325221709
2.0376198291778564	596392.543745277
2.040959596633911	607539.1366477072
2.044294595718384	616667.8939792239
2.0476250648498535	624125.5017207655
2.0509510040283203	629488.8525496079
2.054272413253784	638714.2624579928
2.057589530944824	653953.5850617903
2.0609018802642822	667854.9996229386
2.0642096996307373	678316.7957047458
2.0675129890441895	688847.7360114073
2.0708119869232178	699635.8683251393
2.074106216430664	710292.9881062404
2.0773961544036865	720466.6249815789
2.080681324005127	729080.4602026251
2.0839622020721436	738673.8058231066
2.087238311767578	750902.9960328861
2.090510129928589	763170.2196360083
2.0937774181365967	774880.7896757411
2.0970399379730225	786015.9019392793
2.1002981662750244	796249.5081434577
2.1035518646240234	806213.2432905077
2.1068007946014404	817513.3282981014
2.1100454330444336	829659.4195319483
2.1132853031158447	841096.5220171418
2.116520881652832	851745.2784620783
2.1197516918182373	862567.6004343336
2.1229779720306396	874629.3891771666
2.12619948387146	886681.1116354218
2.1294167041778564	897651.7946118477
2.132629156112671	908656.5763273792
2.1358368396759033	919870.4649180043
2.139039993286133	921667.0307186127
2.1422386169433594	906769.3681952367
2.145432472229004	891891.8741526554
2.1486217975616455	873510.3878197081
2.151806354522705	853942.5477669
2.1549863815307617	866681.8073933942
2.1581614017486572	892921.7947753859
2.16133189201355	901414.8828667798
2.1644976139068604	917036.9799583306
2.167658567428589	940151.1481481673
2.1708147525787354	956778.1154296553
2.173966407775879	974349.167272541
2.1771130561828613	992300.3520004969
2.1802549362182617	1012895.2120478362
2.183391809463501	1031006.1890657066
2.1865241527557373	1056081.1434611864
2.1896514892578125	1084360.978771544
2.1927738189697266	1086503.520014232
2.1958916187286377	941642.4070115368
2.1990041732788086	609475.7701395677
2.2021119594573975	410967.3381738129
2.2052149772644043	569130.7421804259
2.208312749862671	872666.461056975
2.2114057540893555	1028627.6337467158
2.214493751525879	961339.7262519514
2.217576742172241	768087.7851299754
2.2206547260284424	593952.1079542993
2.2237277030944824	490534.1230040283
2.2267956733703613	398413.6770466139
2.2298583984375	328863.4970788007
2.2329163551330566	320335.01852677995
2.235969066619873	360935.53694267327
2.2390167713165283	380142.9694084896
2.2420592308044434	338009.3859082382
2.2450966835021973	285915.48457601387
2.248128890991211	259499.35355476572
2.2511560916900635	253574.1697542202
2.254178285598755	255384.9109579423
2.257194995880127	295170.1998007864
2.260206699371338	352418.30215891765
2.2632133960723877	370357.1476638565
2.266214609146118	372748.34821214195
2.2692108154296875	397359.73813255806
2.2722020149230957	462954.3091460254
2.2751877307891846	501555.11788449227
2.278168201446533	538655.5109214144
2.2811436653137207	545162.7542184248
2.284113883972168	428725.697257842
2.287078857421875	309752.2583176326
2.290038824081421	253591.91004142514
2.2929933071136475	219500.32058533243
2.295942783355713	196456.42370667597
2.298887014389038	205469.67942737654
2.301826238632202	246459.5145259525
2.304760217666626	346728.6503507496
2.3076889514923096	581024.4147068437
2.310612440109253	954920.0730340737
2.3135311603546143	1111715.234266402
2.3164443969726562	714716.6715958702
2.319352865219116	289895.51382977294
2.322256088256836	309087.01182492665
2.3251543045043945	496419.151232482
2.328047275543213	590602.5212723982
2.330935478210449	514534.8453265299
2.3338186740875244	345048.3142527923
2.3366971015930176	220587.9460411417
2.3395702838897705	184399.89041366184
2.3424389362335205	193840.12617629804
2.3453025817871094	175293.10048268645
2.348161458969116	173620.9433284377
2.351015567779541	222725.7125423606
2.353865146636963	286049.8043644274
2.3567099571228027	430060.9190721478
2.3595502376556396	652394.1106267982
2.3623859882354736	765592.4819128459
2.3652172088623047	674765.9981753998
2.368043899536133	427775.39206348837
2.370866537094116	187326.20394035167
2.3736846446990967	132954.6591021107
2.3764986991882324	275511.21866189333
2.3793084621429443	508946.25353797147
2.3821144104003906	626285.5483470764
2.384916305541992	604735.3853305827
2.387714147567749	634630.6621552838
2.3905084133148193	690494.7031261337
2.393299102783203	595093.3927731832
2.3960859775543213	381193.7287488038
2.398869514465332	246874.50647917192
2.4016497135162354	242149.41829991774
2.4044265747070312	284346.7367042313
2.407200336456299	330016.7501593405
2.409970998764038	394167.12412667554
2.4127390384674072	464166.00815347314
2.415503978729248	429446.4252202953
2.418266534805298	337505.3614526231
2.4210267066955566	317072.3242446274
2.4237842559814453	282842.5351576472
2.426539897918701	252330.27292710252
2.429293394088745	391859.15941998194
2.4320452213287354	553686.9867112577
2.4347951412200928	485047.07499542175
2.4375438690185547	434584.38060856215
2.440291166305542	541623.6054004007
2.443037271499634	565030.5961432203
2.445782423019409	515006.8099578187
2.4485268592834473	522268.43237486796
2.451270818710327	583196.5381875734
2.454014539718628	626413.2393613327
2.4567582607269287	620387.2839588289
