#wavelength	surface flux
0.6450077295303345	2.1891238878130104e-05
0.6472567915916443	3.411155375651266e-05
0.6494921445846558	4.370423873179245e-05
0.6517150402069092	4.931682717337764e-05
0.6539263725280762	5.5340489041400964e-05
0.6561272740364075	6.216630567340968e-05
0.6583186388015747	6.996602945493128e-05
0.6605015397071838	7.89529364744961e-05
0.6626768708229065	8.939520357714073e-05
0.6648455858230591	0.00010163244710841573
0.6670085787773132	0.00011607740770066317
0.6691668033599854	0.00013319360258520437
0.6713210344314575	0.00015347842832131044
0.6734722256660461	0.0001774775177558222
0.6756211519241333	0.00020580717970465935
0.6777685880661011	0.0002391613430881731
0.6799154281616211	0.00027831047559789173
0.6820623278617859	0.00032410054821502965
0.6842101216316223	0.00037744256132251215
0.6863595843315125	0.00043929630853101935
0.688511312007904	0.0005106420950286476
0.6906660795211792	0.0005924327538612078
0.6928245425224304	0.0006856337375453842
0.6949873566627502	0.0007911734288627779
0.6971551775932312	0.0009096636454366066
0.6993286609649658	0.0010414722897352884
0.7015084028244019	0.0011869916269311943
0.7036949396133423	0.0013466523152748057
0.7058889269828796	0.0015209879800468062
0.7080909013748169	0.0017107041199061967
0.710301399230957	0.0019167416989072665
0.712520956993103	0.002140036152392397
0.7147500514984131	0.0023813171139644832
0.7169892191886902	0.002641821369484338
0.7192389369010925	0.0029233161456701817
0.7214996814727783	0.0032271041487420037
0.723771870136261	0.003554690271154402
0.7260559797286987	0.003908477331390975
0.7283523678779602	0.004290903034853536
0.7306615710258484	0.0047054278300900495
0.7329838871955872	0.005156860481244095
0.7353196740150452	0.00564859448670178
0.7376693487167358	0.006185165427420712
0.7400332689285278	0.006773705956841412
0.7424117922782898	0.007421739196099903
0.7448052167892456	0.00813851514454275
0.7472138404846191	0.008935293110246061
0.7496379613876343	0.009825109078421428
0.7520779371261597	0.01082419247479052
0.7545340061187744	0.011952571575258237
0.7570064663887024	0.013234016337995947
0.7594954967498779	0.014696668775067787
0.7620013952255249	0.016370844325923402
0.7645244002342224	0.018285472248943533
0.7670646905899048	0.02046810098566361
0.7696225643157959	0.02294613111607265
0.7721980810165405	0.025746322542634707
0.7747915983200073	0.028877433015651748
0.7774031162261963	0.03220143496752889
0.7800329327583313	0.035785118746274935
0.7826811671257019	0.0401922339755441
0.7853479981422424	0.045223555426314586
0.7880334854125977	0.05038239571398851
0.7907378077507019	0.05561782582864339
0.7934610247612	0.060703971651819066
0.7962033748626709	0.0666047391110811
0.7989648580551147	0.07383853083899959
0.801745593547821	0.08130058665088837
0.8045456409454346	0.08887539332660174
0.8073651194572449	0.0970544219569824
0.8102040886878967	0.10594862053289089
0.8130625486373901	0.11572173982810637
0.8159406185150146	0.12668065807603612
0.8188382983207703	0.1390396505725741
0.8217556476593018	0.15290203560270688
0.8246926665306091	0.16860604960539025
0.8276493549346924	0.18643428246855975
0.8306257724761963	0.2064626654113899
0.8336219191551208	0.22896421795025826
0.8366377949714661	0.25431252899221835
0.8396733403205872	0.2828234415665486
0.8427285552024841	0.3148404405584096
0.8458034992218018	0.35066482034506113
0.8488980531692505	0.39055481761900973
0.8520121574401855	0.43495361697978907
0.8551458716392517	0.4845659151400243
0.8582990765571594	0.5396678655537914
0.8614717125892639	0.6003891225407871
0.8646637797355652	0.6672238450954676
0.8678751587867737	0.7406129551778478
0.8711057901382446	0.8209698464720856
0.8743556141853333	0.9087967815652985
0.87762451171875	1.0047449877799666
0.8809124231338501	1.1095680767359446
0.8842192888259888	1.2240713342421412
0.8875449895858765	1.3479011558691851
0.8908893465995789	1.4709253998164904
0.894252359867096	1.5976572609874014
0.8976338505744934	1.765024871890041
0.9010337591171265	1.9628384419579208
0.9044519662857056	2.1619954332382143
0.9078882932662964	2.369942415392214
0.9113426208496094	2.5927901176688493
0.914814829826355	2.834036039350057
0.9183048605918884	3.095384226013691
0.9218124747276306	3.3788444342932755
0.925337553024292	3.680387197228844
0.9288799166679382	3.9852236997120185
0.9324395060539246	4.292396987839616
0.9360161423683167	4.660124823197722
0.9396095871925354	5.138721079861007
0.943219780921936	5.66032123146585
0.9468464851379395	6.170222241868321
0.9504896402359009	6.722162922697994
0.9541489481925964	7.348755521118509
0.9578243494033813	8.056527149060761
0.9615156054496765	8.852925995635752
0.9652225375175476	9.73158623921975
0.9689450263977051	10.696959385121913
0.9726828336715698	11.752600521666626
0.9764357805252075	12.917603761423319
0.9802037477493286	14.22164490666616
0.983986496925354	15.672145153861855
0.9877838492393494	17.262973933165053
0.9915955662727356	19.001421573671387
0.9954215884208679	20.90423346895905
0.9992615580558777	22.977157828555583
1.0031154155731201	25.21988772371722
1.0069829225540161	27.637037860594045
1.0108637809753418	30.239087824178025
1.0147579908370972	33.03635543007593
1.018665075302124	36.036567561458384
1.022585153579712	39.24746161345734
1.0265177488327026	42.68324186919736
1.0304628610610962	46.35792044591365
1.0344202518463135	50.28310433519841
1.0383895635604858	54.47215372096114
1.0423706769943237	58.939402001192306
1.0463634729385376	63.701613853814514
1.0503677129745483	68.77682960226106
1.0543830394744873	74.18385883307471
1.058409333229065	79.94347096845031
1.0624464750289917	86.08071558866631
1.0664942264556885	92.62190699483789
1.0705522298812866	99.5928016642524
1.0746204853057861	107.02708081429589
1.0786986351013184	114.95909582637879
1.0827864408493042	123.41525118182861
1.086883783340454	132.4047872239912
1.0909905433654785	141.96232804310716
1.0951062440872192	152.15522809708855
1.0992310047149658	162.85477026576334
1.10336434841156	173.70223083039033
1.1075061559677124	184.64835907659253
1.1116561889648438	196.15445616799627
1.115814208984375	208.6571465945138
1.1199802160263062	221.7826637610298
1.124153733253479	237.73298252206123
1.1283347606658936	257.5104220894069
1.1325229406356812	276.6148717726122
1.1367181539535522	297.3062969643285
1.1409201622009277	321.6471059327427
1.145128846168518	345.6416821679333
1.1493438482284546	369.59290784883297
1.1535650491714478	393.44102066742556
1.1577922105789185	418.91726638479224
1.1620250940322876	451.10230412529336
1.1662636995315552	487.4211372573974
1.170507550239563	523.5356591007585
1.174756646156311	561.2922627446615
1.1790107488632202	601.6472385918768
1.1832695007324219	644.2679393105412
1.1875330209732056	689.5946464514104
1.191800832748413	737.8614741969643
1.1960728168487549	789.1866580724716
1.2003488540649414	843.686549780198
1.2046287059783936	901.6252037751968
1.2089121341705322	963.2540688445583
1.2131990194320679	1028.8439670571424
1.2174891233444214	1098.7423819749756
1.2217823266983032	1173.077033188305
1.2260783910751343	1252.0539530016122
1.230377197265625	1335.945073416391
1.2346785068511963	1425.067058526876
1.238982081413269	1519.8248728457347
1.2432878017425537	1620.346671174666
1.2475954294204712	1726.9242900939594
1.2519049644470215	1839.9827104454546
1.256216049194336	1959.875778763194
1.2605286836624146	2086.9603104229645
1.2648425102233887	2221.50796070624
1.2691574096679688	2363.763923843925
1.2734732627868652	2514.0492386390974
1.2777899503707886	2672.800451035729
1.2821072340011597	2840.7374343946203
1.2864248752593994	3018.319544509435
1.2907428741455078	3204.9864619135155
1.2950609922409058	3401.8996051149497
1.2993791103363037	3611.2074623256103
1.303696870803833	3832.9122022453384
1.3080145120620728	4065.0400320334797
1.3123314380645752	4304.678649324018
1.3166478872299194	4557.9086450167615
1.3209635019302368	4829.589911770812
1.3252781629562378	5110.657363176572
1.3295916318893433	5380.528118861939
1.3339040279388428	5595.029989635595
1.3382149934768677	5720.295492789799
1.3425244092941284	5756.454560486948
1.3468321561813354	5710.853184807245
1.3511382341384888	5616.079868187484
1.3554422855377197	5644.354680495863
1.3597444295883179	5933.551564167322
1.3640443086624146	6370.810577903945
1.3683418035507202	6976.882917282315
1.3726370334625244	7774.923061644359
1.3769296407699585	8484.93429781311
1.381219506263733	8881.640369148905
1.3855066299438477	9132.122575585057
1.3897908926010132	9413.052522120617
1.3940720558166504	9673.875963655672
1.3983501195907593	10161.507823145106
1.4026249647140503	10935.376555293204
1.4068963527679443	11746.817712118418
1.4111642837524414	12368.866904258253
1.4154287576675415	12608.934051727478
1.419689416885376	12801.753811122328
1.4239463806152344	13460.352586085159
1.4281994104385376	14461.021299559061
1.4324485063552856	15686.898912582395
1.436693549156189	17006.35976488398
1.440934419631958	18261.744921592333
1.4451709985733032	19408.565710018
1.449403166770935	20443.31412411508
1.453631043434143	21878.398905091508
1.4578542709350586	23544.566407379298
1.4620729684829712	24855.77626806734
1.4662868976593018	25937.033897143618
1.4704961776733398	27004.41135754168
1.4747005701065063	28220.625984494007
1.4788999557495117	29660.28869463903
1.4830944538116455	31148.375651546194
1.4872838258743286	32672.58394794526
1.491468071937561	34228.29071695253
1.4956470727920532	35858.39057495193
1.4998208284378052	37626.78670817258
1.5039892196655273	39422.41721339529
1.5081522464752197	41305.73335726089
1.5123097896575928	43238.14812387656
1.5164618492126465	45188.25630277551
1.5206083059310913	47214.83262144687
1.5247491598129272	49251.82509482073
1.5288842916488647	51284.27091985659
1.5330137014389038	53369.89919869475
1.5371372699737549	55554.136458222136
1.541254997253418	57772.16920072887
1.545366883277893	60024.698791718125
1.5494728088378906	62352.66269385038
1.5535727739334106	64747.4908362131
1.5576666593551636	67202.03787860916
1.561754584312439	69719.76760258344
1.5658363103866577	72306.2829406807
1.5699119567871094	74961.15225136107
1.5739814043045044	77684.814521254
1.5780447721481323	80477.40140231616
1.582101821899414	83341.16235574643
1.5861525535583496	86280.39577906737
1.5901970863342285	89295.48876197202
1.5942351818084717	92392.80254861234
1.5982669591903687	95574.1898687323
1.6022924184799194	98827.10034754229
1.606311559677124	102149.3949414044
1.6103241443634033	105538.53106437207
1.6143304109573364	108707.51641375455
1.6183301210403442	109770.3990593325
1.6223233938217163	106539.62423226942
1.6263102293014526	102143.35378631996
1.6302905082702637	100430.64101676903
1.634264349937439	104001.66225014527
1.638231635093689	114780.08176866619
1.6421923637390137	124834.39282047977
1.646146535873413	126709.25324057665
1.6500942707061768	126851.85299506478
1.6540353298187256	129528.80333762702
1.6579699516296387	134053.41932369312
1.661897897720337	136221.0509887465
1.6658192873001099	126829.5586317271
1.6697341203689575	127776.79611603211
1.6736423969268799	147398.74313012973
1.677544116973877	157951.38004674175
1.6814392805099487	158776.32427751934
1.6853278875350952	160746.1603602787
1.6892099380493164	162326.3955165955
1.6930854320526123	162605.74104541744
1.696954369544983	156036.72963523128
1.7008168697357178	139969.30240152625
1.7046726942062378	134526.5227660222
1.708522081375122	154481.386114865
1.712364912033081	184184.29244519523
1.7162011861801147	203898.83016429964
1.7200311422348022	206520.4037637761
1.723854422569275	191065.33372206474
1.7276713848114014	173806.50370396074
1.731481909751892	177050.70064900018
1.7352858781814575	199328.493579206
1.7390835285186768	221565.87803952515
1.7428747415542603	230350.282376456
1.7466596364974976	232548.5810559943
1.7504380941390991	240937.34944524072
1.7542102336883545	252018.08939870977
1.7579760551452637	254230.30272307227
1.7617355585098267	252803.8209244975
1.7654887437820435	256657.695059221
1.7692357301712036	257320.38084950266
1.7729763984680176	249921.520165171
1.776710867881775	255053.60299280344
1.7804391384124756	270255.21750675474
1.7841613292694092	263528.4076084144
1.7878772020339966	243966.33020399217
1.7915871143341064	231843.8601522715
1.7952908277511597	242213.6037587501
1.7989884614944458	260580.62886365035
1.8026801347732544	265097.1908919392
1.806365728378296	268901.38288023544
1.8100452423095703	269172.5962731473
1.8137187957763672	269148.2453041902
1.817386507987976	271301.9858735183
1.8210482597351074	281187.1414262204
1.8247040510177612	305256.2855786942
1.828354001045227	313228.75281007966
1.8319982290267944	310521.4933227379
1.8356364965438843	308871.0514670351
1.8392690420150757	307953.5464406238
1.8428958654403687	323065.2007795046
1.8465168476104736	333814.67777886504
1.8501322269439697	335171.6225535444
1.8537418842315674	333678.15319467743
1.8573459386825562	320882.1620265609
1.860944390296936	308980.9021447508
1.864537239074707	304680.3091279908
1.8681244850158691	302156.9446266097
1.871706247329712	319823.90858331
1.8752825260162354	372661.19283414836
1.8788533210754395	428453.61662379117
1.8824186325073242	454229.3400328624
1.8859784603118896	469273.977794203
1.8895330429077148	490815.07480734837
1.8930821418762207	511278.9586853563
1.8966259956359863	515308.38375203114
1.9001644849777222	498508.9840677963
1.9036977291107178	490528.0553402967
1.9072256088256836	496941.48420129047
1.9107483625411987	483147.0840811232
1.9142658710479736	470828.6851369469
1.9177782535552979	496627.3938197134
1.9212853908538818	510440.09031456965
1.9247875213623047	506411.2659712818
1.9282845258712769	509232.6477328234
1.9317764043807983	512273.0129138947
1.9352631568908691	512052.7911975775
1.9387450218200684	487348.7875447633
1.942221760749817	493966.6743616138
1.9456936120986938	541529.4943677167
1.9491604566574097	569196.5975148244
1.952622413635254	574867.000931652
1.956079363822937	570023.3332564948
1.959531545639038	585026.2468069007
1.962978720664978	622704.6223894681
1.966421127319336	673301.1848844662
1.9698586463928223	710457.5009291131
1.9732913970947266	721568.6712932864
1.9767193794250488	746535.8767744409
1.9801424741744995	784492.8102336096
1.9835609197616577	827323.296882592
1.9869745969772339	848673.5943746716
1.990383505821228	844398.9276137108
1.9937876462936401	870485.6921467358
1.9971871376037598	895651.9353988607
2.000581979751587	917074.1877742518
2.003972291946411	959265.696829441
2.007357597351074	978628.8239064693
2.0107386112213135	1002669.6485192031
2.0141148567199707	1038416.1220715536
2.017486572265625	1052056.3865284603
2.0208535194396973	1078311.646176549
2.0242159366607666	1114975.78034787
2.027573823928833	1127630.4169018136
2.0309269428253174	1142338.9074676733
2.034275770187378	1178036.4509689205
2.0376198291778564	1207100.9361515567
2.040959596633911	1221647.3573335495
2.044294595718384	1241148.966481797
2.0476250648498535	1263474.2286942448
2.0509510040283203	1276490.3453207228
2.054272413253784	1293381.85474076
2.057589530944824	1322041.3929737678
2.0609018802642822	1346675.5820710727
2.0642096996307373	1365162.4327741102
2.0675129890441895	1385189.6420362515
2.0708119869232178	1406220.543039263
2.074106216430664	1426103.4069162973
2.0773961544036865	1444333.1630095923
2.080681324005127	1461570.7009379643
2.0839622020721436	1479894.0139873286
2.087238311767578	1500287.9994087955
2.090510129928589	1521976.9473830059
2.0937774181365967	1544786.8620683097
2.0970399379730225	1566378.1663267037
2.1002981662750244	1584768.0778380113
2.1035518646240234	1602741.1937468953
2.1068007946014404	1624184.3124448634
2.1100454330444336	1646210.0071769718
2.1132853031158447	1666433.9615838013
2.116520881652832	1684498.4900679076
2.1197516918182373	1703570.5244964347
2.1229779720306396	1727295.9072123275
2.12619948387146	1750373.3478842913
2.1294167041778564	1769786.462431898
2.132629156112671	1789696.020483427
2.1358368396759033	1811613.6974268446
2.139039993286133	1826197.2445672813
2.1422386169433594	1825486.947681726
2.145432472229004	1821490.0700302953
2.1486217975616455	1809160.9542028015
2.151806354522705	1797475.585205128
2.1549863815307617	1819741.705997903
2.1581614017486572	1856541.4546479555
2.16133189201355	1874132.9889460118
2.1644976139068604	1907172.2475143743
2.167658567428589	1954997.7679711236
2.1708147525787354	1978950.4894602725
2.173966407775879	1986714.3149557854
2.1771130561828613	2006273.9926668142
2.1802549362182617	2047543.8566005342
2.183391809463501	2080278.3990188024
2.1865241527557373	2108302.039089152
2.1896514892578125	2140965.6112178643
2.1927738189697266	2158808.7158267205
2.1958916187286377	1974125.3622468293
2.1990041732788086	1483382.7021098149
2.2021119594573975	1189585.0459823008
2.2052149772644043	1468128.6845835112
2.208312749862671	1961811.3240947293
2.2114057540893555	2215419.4001779063
2.214493751525879	2152301.1167017515
2.217576742172241	1891689.9655850115
2.2206547260284424	1603215.641737244
2.2237277030944824	1421418.6776001106
2.2267956733703613	1286319.1711987427
2.2298583984375	1173759.2832198027
2.2329163551330566	1170971.9624348977
2.235969066619873	1283210.7810045255
2.2390167713165283	1358163.8145255218
2.2420592308044434	1261854.662709171
2.2450966835021973	1088084.6116138117
2.248128890991211	1013182.3477380488
2.2511560916900635	1050755.991066161
2.254178285598755	1088942.3571922893
2.257194995880127	1156372.7467135864
2.260206699371338	1278840.58699004
2.2632133960723877	1343361.0179977212
2.266214609146118	1355233.4530024088
2.2692108154296875	1412669.252793542
2.2722020149230957	1535231.2094866068
2.2751877307891846	1557845.3480351246
2.278168201446533	1576688.0021553165
2.2811436653137207	1584991.736893765
2.284113883972168	1370925.7432247687
2.287078857421875	1120089.4140614385
2.290038824081421	997560.460107327
2.2929933071136475	947782.7667921
2.295942783355713	898925.1129301897
2.298887014389038	898384.4399011018
2.301826238632202	1036737.7320499658
2.304760217666626	1335583.5623787814
2.3076889514923096	1758358.2413623284
2.310612440109253	2270397.1120202476
2.3135311603546143	2375376.424367623
2.3164443969726562	1592532.3250600283
2.319352865219116	944464.5629212873
2.322256088256836	1204820.350641971
2.3251543045043945	1637503.4624928592
2.328047275543213	1804869.660269785
2.330935478210449	1673533.7485485193
2.3338186740875244	1337477.525756646
2.3366971015930176	1044884.7577019855
2.3395702838897705	906029.1787779225
2.3424389362335205	905125.43613643
2.3453025817871094	868746.4006531099
2.348161458969116	864421.4901294708
2.351015567779541	987924.2064763318
2.353865146636963	1182388.8005137863
2.3567099571228027	1561827.6447511022
2.3595502376556396	2040633.809545982
2.3623859882354736	2294876.4202288757
2.3652172088623047	2183006.9553539446
2.368043899536133	1614332.038605759
2.370866537094116	896198.8509486495
2.3736846446990967	687353.1058325077
2.3764986991882324	1042277.1046429706
2.3793084621429443	1586387.7734023777
2.3821144104003906	1841242.3631973406
2.384916305541992	1810856.301104307
2.387714147567749	1979875.4520597553
2.3905084133148193	2234895.177323012
2.393299102783203	2067007.1117974727
2.3960859775543213	1512405.2048085576
2.398869514465332	1062301.080080749
2.4016497135162354	913782.1706227784
2.4044265747070312	993558.7710851128
2.407200336456299	1194168.5072100502
2.409970998764038	1370944.548869908
2.4127390384674072	1479543.9301687807
2.415503978729248	1370239.4786765354
2.418266534805298	1090267.1383619173
2.4210267066955566	946091.6511205154
2.4237842559814453	893149.8661821027
2.426539897918701	866973.0000833006
2.429293394088745	1181545.5918511788
2.4320452213287354	1609642.1949444583
2.4347951412200928	1457599.5801059965
2.4375438690185547	1343545.0867553249
2.440291166305542	1645408.3101873144
2.443037271499634	1636055.5961346417
2.445782423019409	1469535.988025669
2.4485268592834473	1538761.0000912978
2.451270818710327	1570848.4633966216
2.454014539718628	1524859.403686715
2.4567582607269287	1571026.5045388427
2.4595019817352295	1645531.278737328
2.4622461795806885	1790554.9114851588
