#wavelength	surface flux
0.6450077295303345	11133.573464494619
0.6472567915916443	16895.200333383982
0.6494921445846558	20600.859881986296
0.6517150402069092	21860.373528200744
0.6539263725280762	23023.583357537245
0.6561272740364075	24231.370336206146
0.6583186388015747	25486.493884525036
0.6605015397071838	26792.43717461625
0.6626768708229065	28153.201433200007
0.6648455858230591	29572.841023268178
0.6670085787773132	31041.751204930693
0.6691668033599854	32499.429458141774
0.6713210344314575	34034.696899514354
0.6734722256660461	35811.2097457268
0.6756211519241333	37686.66180909645
0.6777685880661011	39555.03789673495
0.6799154281616211	41492.613682241266
0.6820623278617859	43515.76655827022
0.6842101216316223	45627.44137743853
0.6863595843315125	47830.21446971105
0.688511312007904	50126.49362135757
0.6906660795211792	52520.7203708633
0.6928245425224304	55017.50416544387
0.6949873566627502	57619.6972652904
0.6971551775932312	60328.34093303745
0.6993286609649658	63144.82327628562
0.7015084028244019	66073.32729162634
0.7036949396133423	69116.60357190199
0.7058889269828796	72276.55982873205
0.7080909013748169	75556.7108780338
0.710301399230957	78960.58573125428
0.712520956993103	82489.84846996353
0.7147500514984131	86142.89198790262
0.7169892191886902	89923.22361965787
0.7192389369010925	93842.0785584902
0.7214996814727783	97903.24047695582
0.723771870136261	102109.65798626703
0.7260559797286987	106468.81290208273
0.7283523678779602	110984.51550432654
0.7306615710258484	115663.12209175792
0.7329838871955872	120516.55620404913
0.7353196740150452	125549.0205500372
0.7376693487167358	130764.26498539746
0.7400332689285278	136173.21779097844
0.7424117922782898	141784.20542437182
0.7448052167892456	147604.37104746717
0.7472138404846191	153640.6262647971
0.7496379613876343	159897.70488852618
0.7520779371261597	166371.80272685972
0.7545340061187744	173041.45937671902
0.7570064663887024	179838.31072232785
0.7594954967498779	186465.56717696844
0.7620013952255249	190305.85938002125
0.7645244002342224	183779.87578995916
0.7670646905899048	173253.19374736937
0.7696225643157959	179488.60981465026
0.7721980810165405	204913.13656194726
0.7747915983200073	230837.9092531842
0.7774031162261963	244633.459973296
0.7800329327583313	252209.34444437738
0.7826811671257019	264541.41776242433
0.7853479981422424	279782.48909081594
0.7880334854125977	292527.34631325427
0.7907378077507019	303417.6571509533
0.7934610247612	311504.4808334064
0.7962033748626709	322946.6655577667
0.7989648580551147	340934.1926384362
0.801745593547821	357948.0099479149
0.8045456409454346	372707.2836433431
0.8073651194572449	387865.5978432759
0.8102040886878967	403560.7160576792
0.8130625486373901	419840.55836806167
0.8159406185150146	436774.8075307033
0.8188382983207703	454351.3619111326
0.8217556476593018	472512.85619322106
0.8246926665306091	491306.34304437856
0.8276493549346924	510757.6500730626
0.8306257724761963	530821.4854972917
0.8336219191551208	551516.9334812639
0.8366377949714661	572876.4385989412
0.8396733403205872	594918.6936680208
0.8427285552024841	617675.7612035343
0.8458034992218018	641095.174792598
0.8488980531692505	664784.7915654789
0.8520121574401855	688924.4240189289
0.8551458716392517	714885.004401475
0.8582990765571594	742163.235111661
0.8614717125892639	769614.5887625279
0.8646637797355652	797676.4356475935
0.8678751587867737	826568.3542752734
0.8711057901382446	856313.5551554603
0.8743556141853333	886953.3069083528
0.87762451171875	918518.3250378356
0.8809124231338501	951029.1668910263
0.8842192888259888	984514.4008903388
0.8875449895858765	1018402.843308936
0.8908893465995789	1047189.7801324793
0.894252359867096	1073164.837068459
0.8976338505744934	1114711.6297494832
0.9010337591171265	1164472.4979389012
0.9044519662857056	1207151.5921457123
0.9078882932662964	1248417.208998438
0.9113426208496094	1290832.2388105276
0.914814829826355	1334419.9674398918
0.9183048605918884	1379332.1106874042
0.9218124747276306	1425609.7319581155
0.925337553024292	1472189.6499081647
0.9288799166679382	1518781.3645411571
0.9324395060539246	1567352.562786065
0.9360161423683167	1619506.0607132616
0.9396095871925354	1674918.3776185345
0.943219780921936	1731213.302891023
0.9468464851379395	1787031.7292947872
0.9504896402359009	1844210.4268624217
0.9541489481925964	1903529.8314681975
0.9578243494033813	1964447.1075327543
0.9615156054496765	2027344.4158729166
0.9652225375175476	2092335.7264583681
0.9689450263977051	2159066.1638799934
0.9726828336715698	2227179.061404142
0.9764357805252075	2296545.3880767077
0.9802037477493286	2367945.428205798
0.983986496925354	2441618.225668729
0.9877838492393494	2516590.9703479456
0.9915955662727356	2592695.153807538
0.9954215884208679	2670548.8845242304
0.9992615580558777	2750436.930025158
1.0031154155731201	2832212.7277167565
1.0069829225540161	2915621.1708469638
1.0108637809753418	3000619.607854543
1.0147579908370972	3087372.4094280237
1.018665075302124	3175877.198854303
1.022585153579712	3266049.609539078
1.0265177488327026	3358086.2964184163
1.0304628610610962	3452080.450796491
1.0344202518463135	3548073.8472299613
1.0383895635604858	3646168.109416869
1.0423706769943237	3746187.9375032187
1.0463634729385376	3848189.794562752
1.0503677129745483	3952302.089533345
1.0543830394744873	4058541.5260918583
1.058409333229065	4167048.1709548472
1.0624464750289917	4277682.350246279
1.0664942264556885	4390369.225243122
1.0705522298812866	4505577.689903672
1.0746204853057861	4623304.224099438
1.0786986351013184	4743021.635841793
1.0827864408493042	4864786.041342802
1.086883783340454	4988266.978520614
1.0909905433654785	5112936.674528243
1.0951062440872192	5238812.442996795
1.0992310047149658	5364625.367814563
1.10336434841156	5488042.476317588
1.1075061559677124	5611669.554394336
1.1116561889648438	5741385.601706169
1.115814208984375	5878541.513031132
1.1199802160263062	6019268.636429552
1.124153733253479	6166939.801562639
1.1283347606658936	6320763.621026623
1.1325229406356812	6465864.363933146
1.1367181539535522	6619320.580918337
1.1409201622009277	6789287.3689487595
1.145128846168518	6953814.955925087
1.1493438482284546	7114304.222297647
1.1535650491714478	7271513.659806953
1.1577922105789185	7429511.967690868
1.1620250940322876	7601548.606226651
1.1662636995315552	7780648.779474954
1.170507550239563	7957668.952513561
1.174756646156311	8136954.928381062
1.1790107488632202	8321423.571940951
1.1832695007324219	8510234.238174627
1.1875330209732056	8701010.389961882
1.191800832748413	8893355.638846297
1.1960728168487549	9088918.928483522
1.2003488540649414	9286600.858445853
1.2046287059783936	9485176.250044923
1.2089121341705322	9685576.667815853
1.2131990194320679	9888812.81575853
1.2174891233444214	10094792.974320369
1.2217823266983032	10303545.083123561
1.2260783910751343	10515000.94446639
1.230377197265625	10729312.90382225
1.2346785068511963	10946298.070910694
1.238982081413269	11165306.324469095
1.2432878017425537	11386692.69475545
1.2475954294204712	11610993.982848452
1.2519049644470215	11837890.792097151
1.256216049194336	12068708.90431752
1.2605286836624146	12302665.648858594
1.2648425102233887	12537194.965411725
1.2691574096679688	12774289.213667562
1.2734732627868652	13015248.793618616
1.2777899503707886	13258473.555858307
1.2821072340011597	13503962.98987105
1.2864248752593994	13751464.633107003
1.2907428741455078	13999542.659614608
1.2950609922409058	14251775.591059525
1.2993791103363037	14509577.781632362
1.303696870803833	14770183.250438128
1.3080145120620728	15031905.167141858
1.3123314380645752	15292196.827070175
1.3166478872299194	15556181.07603549
1.3209635019302368	15823345.782913452
1.3252781629562378	16076365.164562402
1.3295916318893433	16268691.767217577
1.3339040279388428	16304853.657911265
1.3382149934768677	16207801.340242364
1.3425244092941284	16095838.322334463
1.3468321561813354	15990678.400188515
1.3511382341384888	15949868.856861768
1.3554422855377197	16137632.789999101
1.3597444295883179	16619151.35805262
1.3640443086624146	17169559.840136155
1.3683418035507202	17663693.97991092
1.3726370334625244	18192631.516300935
1.3769296407699585	18651446.826593
1.381219506263733	18859093.627712227
1.3855066299438477	18892188.362675264
1.3897908926010132	18932592.751359686
1.3940720558166504	19060989.710995138
1.3983501195907593	19397488.38368517
1.4026249647140503	19825478.720071007
1.4068963527679443	20182595.197505526
1.4111642837524414	20450094.144049257
1.4154287576675415	20552565.338833705
1.419689416885376	20634018.264671475
1.4239463806152344	20926855.280502446
1.4281994104385376	21388483.746689796
1.4324485063552856	21879869.317245144
1.436693549156189	22333915.674161464
1.440934419631958	22761290.153324552
1.4451709985733032	23165386.488287307
1.449403166770935	23547782.196831115
1.453631043434143	24029788.531685174
1.4578542709350586	24549544.18448848
1.4620729684829712	24970501.792557526
1.4662868976593018	25355054.12575523
1.4704961776733398	25759793.526752852
1.4747005701065063	26164559.05703987
1.4788999557495117	26551041.59970739
1.4830944538116455	26924010.214095484
1.4872838258743286	27318595.171055175
1.491468071937561	27714575.855419923
1.4956470727920532	28102057.01043838
1.4998208284378052	28510199.562729992
1.5039892196655273	28918781.770069502
1.5081522464752197	29316391.003913917
1.5123097896575928	29715941.257392883
1.5164618492126465	30129344.35214414
1.5206083059310913	30549090.312371515
1.5247491598129272	30951250.83048541
1.5288842916488647	31332589.04931837
1.5330137014389038	31714402.71586681
1.5371372699737549	32107007.094011746
1.541254997253418	32496468.660259563
1.545366883277893	32885954.52104641
1.5494728088378906	33271486.529017508
1.5535727739334106	33647361.8164996
1.5576666593551636	34015686.13951875
1.561754584312439	34383513.69447039
1.5658363103866577	34764498.253831
1.5699119567871094	35157638.3812654
1.5739814043045044	35551512.78725666
1.5780447721481323	35934286.8143528
1.582101821899414	36311631.0480312
1.5861525535583496	36692108.878764056
1.5901970863342285	37064175.52831268
1.5942351818084717	37425362.32498953
1.5982669591903687	37798183.944449164
1.6022924184799194	38184817.709862575
1.606311559677124	38571524.62824333
1.6103241443634033	38940968.80309192
1.6143304109573364	39180106.54702858
1.6183301210403442	39206456.32426556
1.6223233938217163	39267576.045267016
1.6263102293014526	39515939.490558065
1.6302905082702637	39784052.863604434
1.634264349937439	40071449.600705355
1.638231635093689	40543358.8396118
1.6421923637390137	41070490.44642204
1.646146535873413	41462961.67493205
1.6500942707061768	41805553.600296214
1.6540353298187256	42167707.03530647
1.6579699516296387	42537760.3580052
1.661897897720337	42861552.362247154
1.6658192873001099	43085489.74227693
1.6697341203689575	43424686.65694188
1.6736423969268799	43942404.61052212
1.677544116973877	44372603.561671965
1.6814392805099487	44728013.00712844
1.6853278875350952	45094673.091732524
1.6892099380493164	45434936.328233704
1.6930854320526123	45762683.06544504
1.696954369544983	46075726.7634371
1.7008168697357178	46370636.263748035
1.7046726942062378	46689410.07561902
1.708522081375122	47052069.65538877
1.712364912033081	47406519.83346762
1.7162011861801147	47702544.54084577
1.7200311422348022	47980405.59152796
1.723854422569275	48222533.431703165
1.7276713848114014	48424118.807059854
1.731481909751892	48627330.94304211
1.7352858781814575	48786144.57532052
1.7390835285186768	48842996.41271936
1.7428747415542603	48930021.79525685
1.7466596364974976	48971909.018101424
1.7504380941390991	48895397.54888339
1.7542102336883545	48861338.6266073
1.7579760551452637	48919824.12671083
1.7617355585098267	49067726.8261597
1.7654887437820435	49005123.91482474
1.7692357301712036	48774778.97228269
1.7729763984680176	48555793.45560581
1.776710867881775	48343726.65194169
1.7804391384124756	48198999.595983
1.7841613292694092	47839881.609109595
1.7878772020339966	47662327.719010055
1.7915871143341064	47740016.63389794
1.7952908277511597	47303125.49964428
1.7989884614944458	46309949.621251985
1.8026801347732544	45827129.1583169
1.806365728378296	46099720.39098733
1.8100452423095703	46303780.52060601
1.8137187957763672	46596031.87523887
1.817386507987976	46543702.4623672
1.8210482597351074	46664835.10428492
1.8247040510177612	47838461.22706145
1.828354001045227	48344461.78152577
1.8319982290267944	48561062.484682254
1.8356364965438843	48930207.00817133
1.8392690420150757	48615283.7028072
1.8428958654403687	48434433.93894061
1.8465168476104736	48092550.94579193
1.8501322269439697	47504727.474253535
1.8537418842315674	46743321.72933237
1.8573459386825562	45565731.38668339
1.860944390296936	45095562.83330338
1.864537239074707	45728351.829512425
1.8681244850158691	46925424.477775395
1.871706247329712	48390754.30718625
1.8752825260162354	50177228.37243052
1.8788533210754395	52070097.30789351
1.8824186325073242	53189723.74144261
1.8859784603118896	53899974.85041974
1.8895330429077148	54879662.506385066
1.8930821418762207	55742520.270388074
1.8966259956359863	56130999.636979595
1.9001644849777222	55986208.15327835
1.9036977291107178	55542352.08242127
1.9072256088256836	55670557.43495001
1.9107483625411987	55971332.83699665
1.9142658710479736	55706358.09738841
1.9177782535552979	55454449.801927105
1.9212853908538818	54866856.74057473
1.9247875213623047	54870951.12901639
1.9282845258712769	55656379.97599297
1.9317764043807983	55494521.03667903
1.9352631568908691	54179518.005933315
1.9387450218200684	52128806.44131254
1.942221760749817	52358394.267836586
1.9456936120986938	54656621.12222201
1.9491604566574097	55598325.475327246
1.952622413635254	54950037.95009908
1.956079363822937	54022555.98311782
1.959531545639038	54511996.713897
1.962978720664978	55938176.531412855
1.966421127319336	57341609.18267971
1.9698586463928223	57853011.442810565
1.9732913970947266	57413858.420625366
1.9767193794250488	57663554.820398934
1.9801424741744995	58631067.35596085
1.9835609197616577	60155073.243510805
1.9869745969772339	60939292.64654064
1.990383505821228	60044675.74117857
1.9937876462936401	60343278.10268826
1.9971871376037598	61250135.71845964
2.000581979751587	61918244.11570497
2.003972291946411	63361119.44961304
2.007357597351074	63601722.17868538
2.0107386112213135	63773253.23985945
2.0141148567199707	65129684.243033275
2.017486572265625	65673038.5527936
2.0208535194396973	66376573.841415554
2.0242159366607666	67358617.93818548
2.027573823928833	67263541.70636052
2.0309269428253174	67744562.56871593
2.034275770187378	68957757.54667601
2.0376198291778564	69612938.40418707
2.040959596633911	70121247.04169069
2.044294595718384	70738827.81599782
2.0476250648498535	71021046.90517333
2.0509510040283203	71060997.74198014
2.054272413253784	71558107.97967662
2.057589530944824	72659865.45574015
2.0609018802642822	73389093.50868922
2.0642096996307373	73544709.33697732
2.0675129890441895	74273485.93353434
2.0708119869232178	74989736.97811598
2.074106216430664	75092166.8635255
2.0773961544036865	75453621.71081167
2.080681324005127	75730413.88685872
2.0839622020721436	75738526.51371716
2.087238311767578	76051243.8036606
2.090510129928589	76671012.12678704
2.0937774181365967	77133839.69676231
2.0970399379730225	77347952.21440633
2.1002981662750244	77591133.4808314
2.1035518646240234	77977162.70757589
2.1068007946014404	78418860.65769878
2.1100454330444336	78633611.17507257
2.1132853031158447	78840910.62516235
2.116520881652832	79120416.98981649
2.1197516918182373	79468253.1439559
2.1229779720306396	79979455.0786833
2.12619948387146	80264980.87260307
2.1294167041778564	80277160.26192524
2.132629156112671	80449634.96756554
2.1358368396759033	80697791.76373596
2.139039993286133	80900579.00555643
2.1422386169433594	81233391.28012842
2.145432472229004	81585617.50985396
2.1486217975616455	81859764.59844738
2.151806354522705	82073383.80881107
2.1549863815307617	82259278.98617068
2.1581614017486572	82328954.90991323
2.16133189201355	82292782.38653043
2.1644976139068604	82457317.13454969
2.167658567428589	82850306.7819393
2.1708147525787354	83062302.09669325
2.173966407775879	83200280.40964758
2.1771130561828613	83440007.10692413
2.1802549362182617	83703386.69221842
2.183391809463501	83931583.75965
2.1865241527557373	84034525.94597684
2.1896514892578125	84159120.26513338
2.1927738189697266	84355870.64153539
2.1958916187286377	84389360.2608865
2.1990041732788086	84074203.2905746
2.2021119594573975	83791102.23144382
2.2052149772644043	84022572.20643742
2.208312749862671	84611661.39947808
2.2114057540893555	85159705.9638777
2.214493751525879	85339611.39347853
2.217576742172241	84754482.56196178
2.2206547260284424	83945095.55033189
2.2237277030944824	84040857.18562907
2.2267956733703613	84114539.42275733
2.2298583984375	83827174.67770608
2.2329163551330566	84058986.13528009
2.235969066619873	84416553.23458138
2.2390167713165283	84770586.79567398
2.2420592308044434	84865249.4872607
2.2450966835021973	84586339.6932173
2.248128890991211	84735721.03638275
2.2511560916900635	85203508.4164818
2.254178285598755	85181045.67851146
2.257194995880127	85218397.97849095
2.260206699371338	85736494.56916972
2.2632133960723877	85902966.86459991
2.266214609146118	85747204.74894495
2.2692108154296875	85765427.33635633
2.2722020149230957	85945785.09426475
2.2751877307891846	86299823.57013506
2.278168201446533	86496506.91170868
2.2811436653137207	86155233.18352076
2.284113883972168	85819337.54662715
2.287078857421875	86050974.89886902
2.290038824081421	85537844.87130418
2.2929933071136475	82402868.22960563
2.295942783355713	78899288.61675677
2.298887014389038	77707298.18615708
2.301826238632202	77365689.16942038
2.304760217666626	76616135.84228954
2.3076889514923096	76757526.02563931
2.310612440109253	78174219.52521531
2.3135311603546143	78719917.4148501
2.3164443969726562	77984354.69697155
2.319352865219116	77373985.94299273
2.322256088256836	76482255.91228901
2.3251543045043945	75730895.223537
2.328047275543213	76832461.14888427
2.330935478210449	78581337.23530015
2.3338186740875244	78941752.17976066
2.3366971015930176	78261802.9025863
2.3395702838897705	78322625.19467236
2.3424389362335205	78950300.82899085
2.3453025817871094	79342936.43519285
2.348161458969116	79576987.03772452
2.351015567779541	78198689.31690186
2.353865146636963	77284103.9387875
2.3567099571228027	78513096.72684453
2.3595502376556396	79166589.35269381
2.3623859882354736	79530447.69108824
2.3652172088623047	80102782.04564764
2.368043899536133	79214931.4634453
2.370866537094116	77740749.35520573
2.3736846446990967	77869515.88351944
2.3764986991882324	78960285.6558827
2.3793084621429443	79348187.28001286
2.3821144104003906	79162864.38276272
2.384916305541992	79020880.54672886
2.387714147567749	79249966.14969437
2.3905084133148193	79656284.1590366
2.393299102783203	79186152.08937669
2.3960859775543213	77568027.38384981
2.398869514465332	76536337.8201766
2.4016497135162354	77134957.6509553
2.4044265747070312	77525783.05504352
2.407200336456299	76955215.18035014
2.409970998764038	76598008.79462537
2.4127390384674072	76733256.77220674
2.415503978729248	76260816.78220303
2.418266534805298	74992353.29524799
2.4210267066955566	74554250.0699894
2.4237842559814453	74795894.19390523
2.426539897918701	74386622.10171498
2.429293394088745	73961204.97853807
2.4320452213287354	73085819.31958182
2.4347951412200928	70445554.06157997
2.4375438690185547	69988588.26835282
2.440291166305542	71253649.43430997
2.443037271499634	69253822.39508143
2.445782423019409	67311224.00628579
2.4485268592834473	67707379.92778724
2.451270818710327	64966666.91224294
2.454014539718628	62479202.65848091
2.4567582607269287	66722054.66267606
2.4595019817352295	67114682.39542642
2.4622461795806885	64966490.84724398
2.4649908542633057	65042757.579262406
2.4677364826202393	61169520.81557734
2.4704833030700684	58546435.613697395
2.473231554031372	56291221.091817394
2.4759814739227295	54747449.70985915
2.4787333011627197	56906649.96519525
2.481487512588501	58149155.850897856
2.4842441082000732	60270169.381061874
2.4870035648345947	57701351.3141335
