#wavelength	surface flux
0.6450077295303345	1.4634938805157182e-08
0.6472567915916443	2.3026959336046182e-08
0.6494921445846558	3.0036481945782016e-08
0.6517150402069092	3.4648090420191025e-08
0.6539263725280762	3.976556278121583e-08
0.6561272740364075	4.5703288738120976e-08
0.6583186388015747	5.265316239158407e-08
0.6605015397071838	6.086009520761543e-08
0.6626768708229065	7.06369443849058e-08
0.6648455858230591	8.239014007606853e-08
0.6670085787773132	9.663603130920088e-08
0.6691668033599854	1.1398431327520331e-07
0.6713210344314575	1.3512718722674212e-07
0.6734722256660461	1.6087558519208584e-07
0.6756211519241333	1.9219061122962584e-07
0.6777685880661011	2.3019068567036294e-07
0.6799154281616211	2.7618294287929263e-07
0.6820623278617859	3.316802143875997e-07
0.6842101216316223	3.983810590138436e-07
0.6863595843315125	4.781687859859483e-07
0.688511312007904	5.731032836256739e-07
0.6906660795211792	6.853405183122501e-07
0.6928245425224304	8.171274308570784e-07
0.6949873566627502	9.707158573831847e-07
0.6971551775932312	1.1480475978293514e-06
0.6993286609649658	1.3507248386189856e-06
0.7015084028244019	1.5802562062332736e-06
0.7036949396133423	1.8382120908020134e-06
0.7058889269828796	2.1264428433320612e-06
0.7080909013748169	2.447176477607489e-06
0.710301399230957	2.8028982605462515e-06
0.712520956993103	3.1962727030211445e-06
0.7147500514984131	3.6300543499571384e-06
0.7169892191886902	4.107623546262698e-06
0.7192389369010925	4.633233588966798e-06
0.7214996814727783	5.2110390144656284e-06
0.723771870136261	5.845772099081334e-06
0.7260559797286987	6.543621888355146e-06
0.7283523678779602	7.311566939110181e-06
0.7306615710258484	8.159046769726673e-06
0.7329838871955872	9.09807621535716e-06
0.7353196740150452	1.0139498830735686e-05
0.7376693487167358	1.1297155868991226e-05
0.7400332689285278	1.2590425505307123e-05
0.7424117922782898	1.404153660201465e-05
0.7448052167892456	1.5677675787408203e-05
0.7472138404846191	1.753214361062765e-05
0.7496379613876343	1.964551910954054e-05
0.7520779371261597	2.2068512105706185e-05
0.7545340061187744	2.4864196498582987e-05
0.7570064663887024	2.8110777707505827e-05
0.7594954967498779	3.190351319355531e-05
0.7620013952255249	3.634901864410318e-05
0.7645244002342224	4.155724727714627e-05
0.7670646905899048	4.764124296842724e-05
0.7696225643157959	5.4720107581683624e-05
0.7721980810165405	6.291799206548904e-05
0.7747915983200073	7.232376981525117e-05
0.7774031162261963	8.271031978543255e-05
0.7800329327583313	9.428544446037101e-05
0.7826811671257019	0.00010832175301239785
0.7853479981422424	0.00012442988573731564
0.7880334854125977	0.0001415502478462871
0.7907378077507019	0.00015946960311888939
0.7934610247612	0.0001775547144834425
0.7962033748626709	0.00019841475980400574
0.7989648580551147	0.0002234945223603553
0.801745593547821	0.00024994640695788413
0.8045456409454346	0.00027760825155209376
0.8073651194572449	0.0003079851042645594
0.8102040886878967	0.00034161776598083134
0.8130625486373901	0.0003792605047430057
0.8159406185150146	0.0004221805287232271
0.8188382983207703	0.0004715255773020883
0.8217556476593018	0.000528216763495708
0.8246926665306091	0.0005938598680699961
0.8276493549346924	0.0006699774154276973
0.8306257724761963	0.000757640053692794
0.8336219191551208	0.0008586509954420467
0.8366377949714661	0.000975285757974643
0.8396733403205872	0.0011097779083752164
0.8427285552024841	0.0012646063652748583
0.8458034992218018	0.0014423864006462216
0.8488980531692505	0.0016458093819179732
0.8520121574401855	0.001878317592237101
0.8551458716392517	0.0021443589600723153
0.8582990765571594	0.002447290781267192
0.8614717125892639	0.002790185376098443
0.8646637797355652	0.003177391894408313
0.8678751587867737	0.0036132920099683826
0.8711057901382446	0.004102294315533961
0.8743556141853333	0.004649575842412705
0.87762451171875	0.005261601539499386
0.8809124231338501	0.005945939898198896
0.8842192888259888	0.0067109400554592035
0.8875449895858765	0.007558691462681155
0.8908893465995789	0.008435023805851956
0.894252359867096	0.009370377450404317
0.8976338505744934	0.01058348122971962
0.9010337591171265	0.012020690264537887
0.9044519662857056	0.013519962408830436
0.9078882932662964	0.015130734829327247
0.9113426208496094	0.016894173225980493
0.914814829826355	0.018838620774010578
0.9183048605918884	0.020983649780964665
0.9218124747276306	0.02335361852502857
0.925337553024292	0.025943241509691257
0.9288799166679382	0.02865664694137834
0.9324395060539246	0.031454817986735426
0.9360161423683167	0.03478098094052193
0.9396095871925354	0.03909488470148625
0.943219780921936	0.04392312013025803
0.9468464851379395	0.04885217140843898
0.9504896402359009	0.05432272577824276
0.9541489481925964	0.060633190452512864
0.9578243494033813	0.06789246132115984
0.9615156054496765	0.07621017653153185
0.9652225375175476	0.08559633077833384
0.9689450263977051	0.09616727053771074
0.9726828336715698	0.10806552400174846
0.9764357805252075	0.12159556552883197
0.9802037477493286	0.13710197327399495
0.983986496925354	0.15475540108071892
0.9877838492393494	0.1746725694420658
0.9915955662727356	0.19706728394264014
0.9954215884208679	0.22221928525371515
0.9992615580558777	0.25031001927025925
1.0031154155731201	0.28146213838934764
1.0069829225540161	0.31585644352096354
1.0108637809753418	0.3537436528319241
1.0147579908370972	0.39538155642387235
1.018665075302124	0.44100803023089397
1.022585153579712	0.4908765739338999
1.0265177488327026	0.5453341421890524
1.0304628610610962	0.60472794925198
1.0344202518463135	0.6693815278195683
1.0383895635604858	0.7396532880785675
1.0423706769943237	0.815945517948123
1.0463634729385376	0.8987170425571392
1.0503677129745483	0.9884647919338986
1.0543830394744873	1.085719773229676
1.058409333229065	1.1910545400777444
1.0624464750289917	1.305123355479733
1.0664942264556885	1.4286540635050848
1.0705522298812866	1.5624328850846654
1.0746204853057861	1.7073977066071007
1.0786986351013184	1.8645474731924463
1.0827864408493042	2.034867916316046
1.086883783340454	2.2191368486517535
1.0909905433654785	2.418689235623712
1.0951062440872192	2.6357254910917196
1.0992310047149658	2.8699458363074744
1.10336434841156	3.1177641202535935
1.1075061559677124	3.3758358158165116
1.1116561889648438	3.6456180318009537
1.115814208984375	3.9345310033427903
1.1199802160263062	4.241027859335732
1.124153733253479	4.617262265847263
1.1283347606658936	5.093288049601577
1.1325229406356812	5.580339520755994
1.1367181539535522	6.10394123844161
1.1409201622009277	6.703839530085737
1.145128846168518	7.3184982970966095
1.1493438482284546	7.957113468894204
1.1535650491714478	8.624409399376034
1.1577922105789185	9.357233483289061
1.1620250940322876	10.252258252114938
1.1662636995315552	11.262332443261661
1.170507550239563	12.305363990193658
1.174756646156311	13.418808036016355
1.1790107488632202	14.62774476726473
1.1832695007324219	15.933888748760811
1.1875330209732056	17.351202527961867
1.191800832748413	18.889843101453533
1.1960728168487549	20.557543488567497
1.2003488540649414	22.364142790147103
1.2046287059783936	24.324871311923875
1.2089121341705322	26.4522561847556
1.2131990194320679	28.759034904220904
1.2174891233444214	31.263257910612204
1.2217823266983032	33.977226079427034
1.2260783910751343	36.91573908817954
1.230377197265625	40.097080816780775
1.2346785068511963	43.54127261905279
1.238982081413269	47.272266834146606
1.2432878017425537	51.3075709025318
1.2475954294204712	55.66853441627185
1.2519049644470215	60.381560073539234
1.256216049194336	65.473931569554
1.2605286836624146	70.97417165637556
1.2648425102233887	76.91033245300208
1.2691574096679688	83.31175059729584
1.2734732627868652	90.21077082280983
1.2777899503707886	97.64131008151706
1.2821072340011597	105.64554684901142
1.2864248752593994	114.26373206365086
1.2907428741455078	123.51086630879314
1.2950609922409058	133.4488727655623
1.2993791103363037	144.17289980385223
1.303696870803833	155.72314507424284
1.3080145120620728	168.0746137159224
1.3123314380645752	181.1644016401016
1.3166478872299194	195.21928512453528
1.3209635019302368	210.4640133959339
1.3252781629562378	226.65397473773766
1.3295916318893433	243.0863624724655
1.3339040279388428	258.56246634302454
1.3382149934768677	271.39172631071204
1.3425244092941284	278.7508557359022
1.3468321561813354	279.95855916533316
1.3511382341384888	278.2108263815355
1.3554422855377197	281.7896448332828
1.3597444295883179	297.53728494221025
1.3640443086624146	323.48161617915264
1.3683418035507202	362.5921394926609
1.3726370334625244	413.1669739982385
1.3769296407699585	456.73195076263085
1.381219506263733	481.3901072847581
1.3855066299438477	502.83343325603977
1.3897908926010132	531.1966405478555
1.3940720558166504	557.068995709778
1.3983501195907593	594.8368139565728
1.4026249647140503	651.1285950368461
1.4068963527679443	710.9984587033554
1.4111642837524414	761.4855157987602
1.4154287576675415	791.4881298059445
1.419689416885376	819.2889508849771
1.4239463806152344	877.080813275718
1.4281994104385376	959.1389445488455
1.4324485063552856	1058.416681788996
1.436693549156189	1167.9769843145605
1.440934419631958	1277.165271760375
1.4451709985733032	1381.0470448701315
1.449403166770935	1479.4161976405553
1.453631043434143	1606.0528538970368
1.4578542709350586	1751.081096064306
1.4620729684829712	1872.4139034671186
1.4662868976593018	1975.5480649910141
1.4704961776733398	2078.8111837493034
1.4747005701065063	2198.677908411193
1.4788999557495117	2343.3485102790964
1.4830944538116455	2499.61291686568
1.4872838258743286	2661.2808409968657
1.491468071937561	2828.1737197635925
1.4956470727920532	3005.3249204396548
1.4998208284378052	3196.4745958801586
1.5039892196655273	3394.681594767928
1.5081522464752197	3603.6662349762937
1.5123097896575928	3819.766939985306
1.5164618492126465	4040.5256063045463
1.5206083059310913	4272.845958777017
1.5247491598129272	4512.878207083408
1.5288842916488647	4758.995210967551
1.5330137014389038	5015.263623524046
1.5371372699737549	5284.605573251158
1.541254997253418	5563.259417805047
1.545366883277893	5851.396700481279
1.5494728088378906	6152.435918633722
1.5535727739334106	6465.916962101674
1.5576666593551636	6791.373745496491
1.561754584312439	7129.834764424652
1.5658363103866577	7481.7916767591605
1.5699119567871094	7847.1453092412685
1.5739814043045044	8226.626995287806
1.5780447721481323	8620.634118858663
1.582101821899414	9029.371433320403
1.5861525535583496	9453.757505731455
1.5901970863342285	9894.125788664644
1.5942351818084717	10350.89132554443
1.5982669591903687	10824.936711168066
1.6022924184799194	11315.91678007787
1.606311559677124	11823.425336535904
1.6103241443634033	12345.885825049429
1.6143304109573364	12833.037416748612
1.6183301210403442	12998.740932248451
1.6223233938217163	12565.118966434382
1.6263102293014526	11998.313461609501
1.6302905082702637	11811.774691311375
1.634264349937439	12353.950051878866
1.638231635093689	13885.288301322144
1.6421923637390137	15340.559521306322
1.646146535873413	15627.110728527374
1.6500942707061768	15680.40168130608
1.6540353298187256	16235.189562387413
1.6579699516296387	17085.900079245133
1.661897897720337	17500.863305222356
1.6658192873001099	16194.899329648704
1.6697341203689575	16451.55232667968
1.6736423969268799	19525.795886114083
1.677544116973877	21302.494107181414
1.6814392805099487	21525.975926313626
1.6853278875350952	21749.756390234565
1.6892099380493164	21980.808158295422
1.6930854320526123	22166.969502493128
1.696954369544983	21145.793532909396
1.7008168697357178	18347.516871492062
1.7046726942062378	17234.87591538485
1.708522081375122	20498.750949560024
1.712364912033081	25687.433363928933
1.7162011861801147	29358.0014267041
1.7200311422348022	29747.181761540298
1.723854422569275	26742.92194946841
1.7276713848114014	23731.689414589255
1.731481909751892	24529.591222865758
1.7352858781814575	28795.074573930353
1.7390835285186768	33187.151838837046
1.7428747415542603	35119.08336114797
1.7466596364974976	35903.24609391203
1.7504380941390991	37937.88998630336
1.7542102336883545	40459.65678338713
1.7579760551452637	41173.47236672118
1.7617355585098267	40862.99994321285
1.7654887437820435	41495.6298024275
1.7692357301712036	41565.60089553008
1.7729763984680176	40131.18807048399
1.776710867881775	41561.64865475757
1.7804391384124756	44995.99229118554
1.7841613292694092	43595.155372583315
1.7878772020339966	39407.945399625634
1.7915871143341064	36869.35355763659
1.7952908277511597	39380.648117308294
1.7989884614944458	43835.40044017131
1.8026801347732544	44732.21906075996
1.806365728378296	45055.06410070516
1.8100452423095703	44872.985838790795
1.8137187957763672	44606.07468593855
1.817386507987976	45433.2309779729
1.8210482597351074	48342.423629835524
1.8247040510177612	53854.75421094674
1.828354001045227	55544.62659871973
1.8319982290267944	54450.1395288136
1.8356364965438843	53352.94799571415
1.8392690420150757	53175.45547616991
1.8428958654403687	57369.447702774254
1.8465168476104736	60607.821961102236
1.8501322269439697	61707.47293137365
1.8537418842315674	61993.999764051434
1.8573459386825562	59534.554165083566
1.860944390296936	57251.07036427922
1.864537239074707	55867.01874127964
1.8681244850158691	53811.77409937305
1.871706247329712	56601.65832789495
1.8752825260162354	68944.62292354662
1.8788533210754395	83213.31003419444
1.8824186325073242	90334.55917376356
1.8859784603118896	93710.35728698062
1.8895330429077148	97829.22835037729
1.8930821418762207	102102.35687681002
1.8966259956359863	102415.56746033095
1.9001644849777222	97039.32558490556
1.9036977291107178	94666.82956182749
1.9072256088256836	97300.9126315228
1.9107483625411987	95460.21719657448
1.9142658710479736	93135.89177653709
1.9177782535552979	99290.17185579486
1.9212853908538818	103031.20640379246
1.9247875213623047	102577.05574219702
1.9282845258712769	103061.43996734136
1.9317764043807983	104458.34366077137
1.9352631568908691	105752.05011057568
1.9387450218200684	101271.66634946274
1.942221760749817	104584.38947665303
1.9456936120986938	116474.7285759356
1.9491604566574097	123822.25340618688
1.952622413635254	126178.26118143993
1.956079363822937	125931.19841186934
1.959531545639038	131178.43682156995
1.962978720664978	141230.68532901193
1.966421127319336	155037.8237136968
1.9698586463928223	165806.31399823274
1.9732913970947266	169301.53480574503
1.9767193794250488	176289.9620550049
1.9801424741744995	186099.01581705888
1.9835609197616577	197676.44451609795
1.9869745969772339	204322.610376584
1.990383505821228	204009.55792771708
1.9937876462936401	211333.5339271922
1.9971871376037598	219820.12599842506
2.000581979751587	226201.2353112378
2.003972291946411	235589.9123081349
2.007357597351074	242335.90235722734
2.0107386112213135	250338.7131050623
2.0141148567199707	256769.76363098872
2.017486572265625	259168.77716586378
2.0208535194396973	267344.64495329594
2.0242159366607666	277593.571166472
2.027573823928833	282055.1094975329
2.0309269428253174	285865.8349386364
2.034275770187378	294871.0101036949
2.0376198291778564	303938.90238659
2.040959596633911	309199.7656485138
2.044294595718384	314681.6875442717
2.0476250648498535	320635.6446886911
2.0509510040283203	325249.6861555783
2.054272413253784	331346.3232477708
2.057589530944824	339596.30036862567
2.0609018802642822	346930.5750206248
2.0642096996307373	352893.96021280694
2.0675129890441895	358763.8087572324
2.0708119869232178	365134.6604050169
2.074106216430664	371959.3779962322
2.0773961544036865	378305.8413413093
2.080681324005127	383753.4061501525
2.0839622020721436	389918.2969707581
2.087238311767578	397419.9122527033
2.090510129928589	404908.0379819714
2.0937774181365967	412141.1958974065
2.0970399379730225	418900.70211046905
2.1002981662750244	425077.04586416896
2.1035518646240234	431365.05763614894
2.1068007946014404	438622.07168212807
2.1100454330444336	446317.403142839
2.1132853031158447	453480.60114905424
2.116520881652832	460088.6793899675
2.1197516918182373	466921.59464303835
2.1229779720306396	474743.0714823216
2.12619948387146	482527.63431792916
2.1294167041778564	489625.20068290376
2.132629156112671	496906.69252512977
2.1358368396759033	504555.8286345993
2.139039993286133	509007.8121714226
2.1422386169433594	507460.4284989085
2.145432472229004	505138.0403915489
2.1486217975616455	500111.4360117451
2.151806354522705	496048.7856770384
2.1549863815307617	505296.18791773426
2.1581614017486572	518515.7400677878
2.16133189201355	523915.82969812205
2.1644976139068604	534727.9825742155
2.167658567428589	550635.4160159773
2.1708147525787354	559760.3827376119
2.173966407775879	564021.0559091583
2.1771130561828613	571127.0237391423
2.1802549362182617	585609.2777826815
2.183391809463501	597843.0995608222
2.1865241527557373	609994.2197864393
2.1896514892578125	624261.4043388653
2.1927738189697266	631550.1662611889
2.1958916187286377	566286.960228512
2.1990041732788086	395596.1110974949
2.2021119594573975	292424.93820299313
2.2052149772644043	384592.3335266704
2.208312749862671	554433.5018085449
2.2114057540893555	643567.7578906058
2.214493751525879	619745.7642240175
2.217576742172241	528118.4962266926
2.2206547260284424	433912.83126647404
2.2237277030944824	375334.52593075443
2.2267956733703613	328888.9226405646
2.2298583984375	291778.4644243876
2.2329163551330566	288285.6810040002
2.235969066619873	318999.0428628554
2.2390167713165283	338976.253971259
2.2420592308044434	312694.86715592473
2.2450966835021973	268306.2687305957
2.248128890991211	245726.38536504257
2.2511560916900635	250709.0303134143
2.254178285598755	259123.19346039952
2.257194995880127	280222.9623089175
2.260206699371338	317130.7893427527
2.2632133960723877	337746.2675789954
2.266214609146118	346901.81234726484
2.2692108154296875	367324.4360075614
2.2722020149230957	409282.197479634
2.2751877307891846	422401.24768272135
2.278168201446533	436344.4937452652
2.2811436653137207	444450.1813887059
2.284113883972168	371737.9312711361
2.287078857421875	285952.9151546989
2.290038824081421	244132.01508793872
2.2929933071136475	224714.45588749772
2.295942783355713	206110.9752472926
2.298887014389038	204563.5728703673
2.301826238632202	241863.64948022313
2.304760217666626	329536.6999351803
2.3076889514923096	480908.50018732477
2.310612440109253	690681.4849140899
2.3135311603546143	755899.0962995767
2.3164443969726562	489692.4081929129
2.319352865219116	244731.8379702461
2.322256088256836	306215.9345566175
2.3251543045043945	449216.8034698601
2.328047275543213	511867.46342172334
2.330935478210449	467295.88442035666
2.3338186740875244	351021.896431773
2.3366971015930176	253105.09908805482
2.3395702838897705	213320.49538741336
2.3424389362335205	217481.69098974112
2.3453025817871094	206661.1827203655
2.348161458969116	206023.6643636659
2.351015567779541	246689.04433116192
2.353865146636963	303663.7216102884
2.3567099571228027	424218.61137349805
2.3595502376556396	590702.466054945
2.3623859882354736	676152.858930354
2.3652172088623047	627577.7739401619
2.368043899536133	440789.8814603244
2.370866537094116	221807.46781522245
2.3736846446990967	160186.29249000974
2.3764986991882324	275337.45544042625
2.3793084621429443	457328.2214674003
2.3821144104003906	545835.4900583283
2.384916305541992	537092.0259933027
2.387714147567749	585793.428741518
2.3905084133148193	665414.5934198988
2.393299102783203	607609.0755250183
2.3960859775543213	417200.6416095574
2.398869514465332	266235.5392280503
2.4016497135162354	221306.54781452747
2.4044265747070312	251448.14196545052
2.407200336456299	315871.309079947
2.409970998764038	374031.3854418778
2.4127390384674072	414651.27605566103
2.415503978729248	380194.16524533334
2.418266534805298	286383.7862362966
2.4210267066955566	237900.737238148
2.4237842559814453	218461.91076274205
2.426539897918701	211388.1425764223
2.429293394088745	324901.26221816294
2.4320452213287354	468661.80173461046
2.4347951412200928	412795.7686847567
2.4375438690185547	377259.40966007183
2.440291166305542	485539.06027131266
2.443037271499634	489421.9038199824
2.445782423019409	431334.91789496865
2.4485268592834473	447068.80921633454
