#wavelength	surface flux
0.6450077295303345	2.1644709588918883e-17
0.6472567915916443	3.5083515710921235e-17
0.6494921445846558	4.8301150696016253e-17
0.6517150402069092	5.945586736636954e-17
0.6539263725280762	7.288809114915052e-17
0.6561272740364075	8.954121755656313e-17
0.6583186388015747	1.1034215553756885e-16
0.6605015397071838	1.3656420572203827e-16
0.6626768708229065	1.699581212910971e-16
0.6648455858230591	2.1293374018059815e-16
0.6670085787773132	2.687776522137846e-16
0.6691668033599854	3.417954099640099e-16
0.6713210344314575	4.375893244399625e-16
0.6734722256660461	5.634138849555957e-16
0.6756211519241333	7.286488880857272e-16
0.6777685880661011	9.455044773843765e-16
0.6799154281616211	1.2296646566019804e-15
0.6820623278617859	1.6010363454936874e-15
0.6842101216316223	2.084559194769099e-15
0.6863595843315125	2.7110005681388562e-15
0.688511312007904	3.518088804029856e-15
0.6906660795211792	4.551309754877736e-15
0.6928245425224304	5.863933411077408e-15
0.6949873566627502	7.516177831037932e-15
0.6971551775932312	9.573592098705827e-15
0.6993286609649658	1.2106660867893557e-14
0.7015084028244019	1.519193536343536e-14
0.7036949396133423	1.8914176875087095e-14
0.7058889269828796	2.3370657248095982e-14
0.7080909013748169	2.8674381113738476e-14
0.710301399230957	3.495458239559691e-14
0.712520956993103	4.2357618953585616e-14
0.7147500514984131	5.1048439413596066e-14
0.7169892191886902	6.121874414820928e-14
0.7192389369010925	7.309631791231127e-14
0.7214996814727783	8.693849428256875e-14
0.723771870136261	1.0304398702662904e-13
0.7260559797286987	1.217832153500479e-13
0.7283523678779602	1.4359701378954704e-13
0.7306615710258484	1.6903354372154145e-13
0.7329838871955872	1.987752386400053e-13
0.7353196740150452	2.335769998976473e-13
0.7376693487167358	2.7439625707784516e-13
0.7400332689285278	3.225021166176158e-13
0.7424117922782898	3.7943398540994134e-13
0.7448052167892456	4.4712376635683595e-13
0.7472138404846191	5.280511204453496e-13
0.7496379613876343	6.253831752743267e-13
0.7520779371261597	7.432092786584145e-13
0.7545340061187744	8.868567607045933e-13
0.7570064663887024	1.0633002259954818e-12
0.7594954967498779	1.2815718580036344e-12
0.7620013952255249	1.5528223543030008e-12
0.7645244002342224	1.8902616222911497e-12
0.7670646905899048	2.3094326643772267e-12
0.7696225643157959	2.828687319535788e-12
0.7721980810165405	3.4695013827844292e-12
0.7747915983200073	4.256108671673824e-12
0.7774031162261963	5.213604047572435e-12
0.7800329327583313	6.371948297563789e-12
0.7826811671257019	7.768546844752173e-12
0.7853479981422424	9.428752153380936e-12
0.7880334854125977	1.1370106880036092e-11
0.7907378077507019	1.3610516036598051e-11
0.7934610247612	1.6168676419417525e-11
0.7962033748626709	1.91147160607988e-11
0.7989648580551147	2.2518645647760585e-11
0.801745593547821	2.6415543250539065e-11
0.8045456409454346	3.089477539808521e-11
0.8073651194572449	3.609209953106545e-11
0.8102040886878967	4.2161514755210595e-11
0.8130625486373901	4.9319577713202936e-11
0.8159406185150146	5.789619215203819e-11
0.8188382983207703	6.826355106249642e-11
0.8217556476593018	8.083556728317142e-11
0.8246926665306091	9.619933414734769e-11
0.8276493549346924	1.1500547621429242e-10
0.8306257724761963	1.379437782904678e-10
0.8336219191551208	1.6596925664925234e-10
0.8366377949714661	2.0028578904295953e-10
0.8396733403205872	2.4228514924242183e-10
0.8427285552024841	2.9364482295851e-10
0.8458034992218018	3.5637046146593735e-10
0.8488980531692505	4.328560862873123e-10
0.8520121574401855	5.25963080238638e-10
0.8551458716392517	6.390591866408394e-10
0.8582990765571594	7.760384904434423e-10
0.8614717125892639	9.41405218062502e-10
0.8646637797355652	1.1403342149674765e-09
0.8678751587867737	1.3786945269090496e-09
0.8711057901382446	1.6632182945716138e-09
0.8743556141853333	2.001925550540826e-09
0.87762451171875	2.4046167175038e-09
0.8809124231338501	2.8829998399144312e-09
0.8842192888259888	3.450788810488475e-09
0.8875449895858765	4.119588332918853e-09
0.8908893465995789	4.866197636913003e-09
0.894252359867096	5.723636538704494e-09
0.8976338505744934	6.849772628032199e-09
0.9010337591171265	8.234607827607604e-09
0.9044519662857056	9.800148171074031e-09
0.9078882932662964	1.1598333962108045e-08
0.9113426208496094	1.3682747766662006e-08
0.914814829826355	1.6110322425525e-08
0.9183048605918884	1.893772239400746e-08
0.9218124747276306	2.2234857315997074e-08
0.925337553024292	2.6056663436981255e-08
0.9288799166679382	3.033467877596291e-08
0.9324395060539246	3.496756388197118e-08
0.9360161423683167	4.060553557749968e-08
0.9396095871925354	4.829109766492738e-08
0.943219780921936	5.7491473887301566e-08
0.9468464851379395	6.743348731992286e-08
0.9504896402359009	7.904007345927168e-08
0.9541489481925964	9.321850039058286e-08
0.9578243494033813	1.1048658063431546e-07
0.9615156054496765	1.3127182384561565e-07
0.9652225375175476	1.5583790797123088e-07
0.9689450263977051	1.8495943856582381e-07
0.9726828336715698	2.197874612647257e-07
0.9764357805252075	2.6193820394507825e-07
0.9802037477493286	3.1293440002758877e-07
0.983986496925354	3.7416317831244033e-07
0.9877838492393494	4.4739014420510345e-07
0.9915955662727356	5.347536978477031e-07
0.9954215884208679	6.387265564443054e-07
0.9992615580558777	7.617447637693163e-07
1.0031154155731201	9.063304526137173e-07
1.0069829225540161	1.0755030869695246e-06
1.0108637809753418	1.2728355848693252e-06
1.0147579908370972	1.502252904200823e-06
1.018665075302124	1.76798159573109e-06
1.022585153579712	2.074782060198951e-06
1.0265177488327026	2.4284984272194595e-06
1.0304628610610962	2.8354150689771317e-06
1.0344202518463135	3.3020798133190668e-06
1.0383895635604858	3.836137825981986e-06
1.0423706769943237	4.446390294665123e-06
1.0463634729385376	5.142668564603465e-06
1.0503677129745483	5.935943591668686e-06
1.0543830394744873	6.8386603836556325e-06
1.058409333229065	7.864939102804992e-06
1.0624464750289917	9.030762440250776e-06
1.0664942264556885	1.035427437532748e-05
1.0705522298812866	1.1856012306787974e-05
1.0746204853057861	1.3559949463178073e-05
1.0786986351013184	1.5493377536343244e-05
1.0827864408493042	1.7686038388668e-05
1.086883783340454	2.0166638584511347e-05
1.0909905433654785	2.2977030213347476e-05
1.0951062440872192	2.618225575177357e-05
1.0992310047149658	2.982858798675339e-05
1.10336434841156	3.3937661132639754e-05
1.1075061559677124	3.849406303393125e-05
1.1116561889648438	4.349434386217413e-05
1.115814208984375	4.9135770839553635e-05
1.1199802160263062	5.542377750885638e-05
1.124153733253479	6.298898114545167e-05
1.1283347606658936	7.252216041733218e-05
1.1325229406356812	8.318528213707855e-05
1.1367181539535522	9.50129224225884e-05
1.1409201622009277	0.00010858237423880281
1.145128846168518	0.000123864614374941
1.1493438482284546	0.0001410139154073081
1.1535650491714478	0.00015973939365450734
1.1577922105789185	0.0001808748926666602
1.1620250940322876	0.00020645261812641136
1.1662636995315552	0.0002361727687431619
1.170507550239563	0.000268979778828857
1.174756646156311	0.00030571270391877226
1.1790107488632202	0.00034733851142728067
1.1832695007324219	0.00039458476070875804
1.1875330209732056	0.0004481920389065147
1.191800832748413	0.0005089043437442355
1.1960728168487549	0.0005775527993597733
1.2003488540649414	0.000655171195431777
1.2046287059783936	0.0007431424430940684
1.2089121341705322	0.0008427643365605972
1.2131990194320679	0.0009553458690829532
1.2174891233444214	0.001082620633996679
1.2217823266983032	0.0012263325803389357
1.2260783910751343	0.001388512577134252
1.230377197265625	0.0015715239393238299
1.2346785068511963	0.0017779847971760444
1.238982081413269	0.002010904644215343
1.2432878017425537	0.002273279555323043
1.2475954294204712	0.0025685970368908395
1.2519049644470215	0.0029009895008069706
1.256216049194336	0.003275001943006302
1.2605286836624146	0.0036955755766756517
1.2648425102233887	0.004168122977575022
1.2691574096679688	0.004698673068899163
1.2734732627868652	0.005294071087446542
1.2777899503707886	0.0059618388112819805
1.2821072340011597	0.006710430226610782
1.2864248752593994	0.00754905453780354
1.2907428741455078	0.008487167744255779
1.2950609922409058	0.009537123890789768
1.2993791103363037	0.010713072275241457
1.303696870803833	0.012027062932125394
1.3080145120620728	0.013490621751370458
1.3123314380645752	0.015117258381986572
1.3166478872299194	0.0169286971404223
1.3209635019302368	0.018959695117938328
1.3252781629562378	0.02121708949192844
1.3295916318893433	0.02365034292457479
1.3339040279388428	0.026284973772373117
1.3382149934768677	0.02915299440992173
1.3425244092941284	0.03192392490968006
1.3468321561813354	0.034392393282023544
1.3511382341384888	0.036645792560500406
1.3554422855377197	0.039798640514121617
1.3597444295883179	0.0446976274318683
1.3640443086624146	0.049921659670294445
1.3683418035507202	0.05589241489553702
1.3726370334625244	0.06409056242608857
1.3769296407699585	0.07330169334737648
1.381219506263733	0.08200282230049526
1.3855066299438477	0.08990999243986873
1.3897908926010132	0.09790374588258584
1.3940720558166504	0.10569562218182244
1.3983501195907593	0.11566498660885409
1.4026249647140503	0.13075930418622617
1.4068963527679443	0.14913948038848274
1.4111642837524414	0.16491479220572539
1.4154287576675415	0.17583257471870806
1.419689416885376	0.18894645929376347
1.4239463806152344	0.2088150735314558
1.4281994104385376	0.2341805950744199
1.4324485063552856	0.2653592923568254
1.436693549156189	0.3004543223652572
1.440934419631958	0.3372841997665104
1.4451709985733032	0.3726697553754291
1.449403166770935	0.40650168648429835
1.453631043434143	0.449574603421249
1.4578542709350586	0.5006850486618473
1.4620729684829712	0.5494935262005327
1.4662868976593018	0.5987551692427168
1.4704961776733398	0.6513616588969583
1.4747005701065063	0.7089823253717704
1.4788999557495117	0.7794249933964456
1.4830944538116455	0.8584079712084359
1.4872838258743286	0.9403208959449293
1.491468071937561	1.029216487860313
1.4956470727920532	1.1268831928625325
1.4998208284378052	1.231275416117678
1.5039892196655273	1.3404064814966483
1.5081522464752197	1.460975102037295
1.5123097896575928	1.5930442374946052
1.5164618492126465	1.733694292503306
1.5206083059310913	1.8862727015527072
1.5247491598129272	2.0499252224018663
1.5288842916488647	2.225129267590473
1.5330137014389038	2.4133891503256746
1.5371372699737549	2.6154181529279
1.541254997253418	2.8315156852237555
1.545366883277893	3.0631489875165148
1.5494728088378906	3.312607386719684
1.5535727739334106	3.580131120698768
1.5576666593551636	3.8662149047537118
1.561754584312439	4.172628337569202
1.5658363103866577	4.500793613838098
1.5699119567871094	4.851580006785133
1.5739814043045044	5.226227848454035
1.5780447721481323	5.62630650667762
1.582101821899414	6.053344821212831
1.5861525535583496	6.509335853839275
1.5901970863342285	6.995890172298595
1.5942351818084717	7.514342657418282
1.5982669591903687	8.066468293014074
1.6022924184799194	8.654135823159848
1.606311559677124	9.279307508153776
1.6103241443634033	9.944001187828686
1.6143304109573364	10.629558072980513
1.6183301210403442	11.134543572364082
1.6223233938217163	11.173846187086918
1.6263102293014526	11.061898166722058
1.6302905082702637	11.235570683180418
1.634264349937439	12.076737113240217
1.638231635093689	13.891354261592353
1.6421923637390137	15.559123078220583
1.646146535873413	15.93918356050848
1.6500942707061768	16.22691315727309
1.6540353298187256	17.212804120621108
1.6579699516296387	18.360975387261437
1.661897897720337	19.3878611047903
1.6658192873001099	19.299851689193936
1.6697341203689575	20.269308895193404
1.6736423969268799	23.520220838878835
1.677544116973877	25.776263442348867
1.6814392805099487	26.843232747336778
1.6853278875350952	27.9712689462099
1.6892099380493164	28.945125431671894
1.6930854320526123	29.86039464122491
1.696954369544983	28.86137103503628
1.7008168697357178	24.979368947580237
1.7046726942062378	23.413672475373033
1.708522081375122	28.619330488428396
1.712364912033081	36.94676730850334
1.7162011861801147	43.330744482902475
1.7200311422348022	44.894873854592866
1.723854422569275	40.89327746289634
1.7276713848114014	37.028133626632815
1.731481909751892	39.77440104327618
1.7352858781814575	49.110186961348056
1.7390835285186768	58.409810069647506
1.7428747415542603	62.13853586610095
1.7466596364974976	63.95780095552437
1.7504380941390991	69.63715294928663
1.7542102336883545	77.76703487834543
1.7579760551452637	81.68001330079915
1.7617355585098267	83.32624923580731
1.7654887437820435	87.90694206246691
1.7692357301712036	90.18259681495567
1.7729763984680176	88.4303584452945
1.776710867881775	94.4470811963608
1.7804391384124756	105.03877548483473
1.7841613292694092	103.58297083376802
1.7878772020339966	96.24462782971469
1.7915871143341064	94.56662396551687
1.7952908277511597	107.42069028424194
1.7989884614944458	126.63203356103917
1.8026801347732544	138.64654464350147
1.806365728378296	145.13940404149238
1.8100452423095703	145.6754725759826
1.8137187957763672	147.04239299393817
1.817386507987976	153.78892058677374
1.8210482597351074	167.39645990186014
1.8247040510177612	183.48031351062562
1.828354001045227	192.1111668759956
1.8319982290267944	199.74365930925362
1.8356364965438843	207.16748569302567
1.8392690420150757	212.82827949038506
1.8428958654403687	223.38731730845404
1.8465168476104736	234.0396180254793
1.8501322269439697	244.29030581461194
1.8537418842315674	254.9880449355575
1.8573459386825562	258.402006562492
1.860944390296936	256.61111312073626
1.864537239074707	260.3215418104112
1.8681244850158691	268.3063628951564
1.871706247329712	285.35914393016174
1.8752825260162354	317.571165371933
1.8788533210754395	347.88161850784104
1.8824186325073242	366.750656288928
1.8859784603118896	390.81360494406675
1.8895330429077148	421.1264438084918
1.8930821418762207	441.3109103103591
1.8966259956359863	447.13581022758405
1.9001644849777222	445.7196327264847
1.9036977291107178	455.1363159956064
1.9072256088256836	470.32255356180764
1.9107483625411987	456.0837412109955
1.9142658710479736	445.1842193857103
1.9177782535552979	488.3228599314715
1.9212853908538818	528.3632805273404
1.9247875213623047	545.3387908434968
1.9282845258712769	572.3863188594382
1.9317764043807983	603.2868861149897
1.9352631568908691	626.1208993394979
1.9387450218200684	620.7973154344949
1.942221760749817	645.6133683194286
1.9456936120986938	715.0655135278913
1.9491604566574097	755.6178026116313
1.952622413635254	772.2255713382393
1.956079363822937	788.0322291798038
1.959531545639038	808.2023865370127
1.962978720664978	848.8942748921125
1.966421127319336	920.8166018470963
1.9698586463928223	996.2451072797509
1.9732913970947266	1049.6140919431875
1.9767193794250488	1078.4727216048036
1.9801424741744995	1097.5665099262635
1.9835609197616577	1143.37398029889
1.9869745969772339	1201.8807465686189
1.990383505821228	1248.1272092746206
1.9937876462936401	1283.6327703750205
1.9971871376037598	1305.580003757027
2.000581979751587	1347.1974094539214
2.003972291946411	1411.1884485139228
2.007357597351074	1459.9924611519127
2.0107386112213135	1509.6967441913432
2.0141148567199707	1561.3012149858225
2.017486572265625	1601.1486100443453
2.0208535194396973	1660.8055373164675
2.0242159366607666	1729.2183673614693
2.027573823928833	1774.2974529501507
2.0309269428253174	1812.963292464875
2.034275770187378	1873.4840432239696
2.0376198291778564	1952.1061543699425
2.040959596633911	2021.961197452946
2.044294595718384	2081.171050611953
2.0476250648498535	2139.1358034275822
2.0509510040283203	2193.003072068715
2.054272413253784	2252.4724997900944
2.057589530944824	2327.238735181794
2.0609018802642822	2404.853548263036
2.0642096996307373	2475.371545398947
2.0675129890441895	2543.756828838847
2.0708119869232178	2615.0760619413945
2.074106216430664	2690.6819550216537
2.0773961544036865	2766.7085973625985
2.080681324005127	2839.7082740428414
2.0839622020721436	2917.5842130961623
2.087238311767578	3002.271891342128
2.090510129928589	3085.627229620838
2.0937774181365967	3168.3775107812253
2.0970399379730225	3252.0179435828823
2.1002981662750244	3337.7739066920262
2.1035518646240234	3429.377621543455
2.1068007946014404	3525.0317570086504
2.1100454330444336	3620.5288390973355
2.1132853031158447	3714.9705963646984
2.116520881652832	3809.63523939708
2.1197516918182373	3907.5255712806893
2.1229779720306396	4011.826547266812
2.12619948387146	4117.714199586698
2.1294167041778564	4222.276578189427
2.132629156112671	4330.265505765426
2.1358368396759033	4441.704500449315
2.139039993286133	4546.050733114333
2.1422386169433594	4633.413437622974
2.145432472229004	4694.4055635253435
2.1486217975616455	4709.685621852024
2.151806354522705	4752.586406244401
2.1549863815307617	4882.713397464844
2.1581614017486572	5039.255233849563
2.16133189201355	5154.306286230225
2.1644976139068604	5298.1678823093
2.167658567428589	5485.858415913204
2.1708147525787354	5609.002225032348
2.173966407775879	5652.232930595811
2.1771130561828613	5757.83456117195
2.1802549362182617	5988.824309250216
2.183391809463501	6181.567943624653
2.1865241527557373	6323.809240683394
2.1896514892578125	6481.514543422118
2.1927738189697266	6657.363150989892
2.1958916187286377	6255.352187064353
2.1990041732788086	4813.049379047527
2.2021119594573975	3892.477679235151
2.2052149772644043	4857.676219532321
2.208312749862671	6601.779351543272
2.2114057540893555	7553.199198102217
2.214493751525879	7505.444447395241
2.217576742172241	6845.237239446778
2.2206547260284424	5985.394490936631
2.2237277030944824	5443.591665616742
2.2267956733703613	5222.3926068937435
2.2298583984375	5067.215957498549
2.2329163551330566	5139.6741591642485
2.235969066619873	5614.390210470082
2.2390167713165283	6017.992219676285
2.2420592308044434	5599.539318216784
2.2450966835021973	4759.380978603908
2.248128890991211	4524.100204326056
2.2511560916900635	4893.3785668760975
2.254178285598755	5261.169569239359
2.257194995880127	5615.764860224648
2.260206699371338	6142.371543868743
2.2632133960723877	6548.265023695236
2.266214609146118	6672.687670794938
2.2692108154296875	6902.360720840467
2.2722020149230957	7342.234439815737
2.2751877307891846	7192.621670383599
2.278168201446533	7104.70638506668
2.2811436653137207	7120.086166048012
2.284113883972168	6271.094415365666
2.287078857421875	5381.75140617537
2.290038824081421	5173.615597412223
2.2929933071136475	5287.629055618373
2.295942783355713	5010.151875254569
2.298887014389038	4664.523497370735
2.301826238632202	5335.429653213534
2.304760217666626	6926.411982180327
2.3076889514923096	8905.382587155267
2.310612440109253	11377.468459766318
2.3135311603546143	11971.372382101032
2.3164443969726562	8219.36982380502
2.319352865219116	5361.320597548409
2.322256088256836	7184.211918576218
2.3251543045043945	9607.0903108236
2.328047275543213	10535.441911057005
2.330935478210449	9997.865205006643
2.3338186740875244	8580.636858559474
2.3366971015930176	7254.266356149795
2.3395702838897705	6324.586546401943
2.3424389362335205	6177.843821469968
2.3453025817871094	5780.409535017288
2.348161458969116	5652.86566990767
2.351015567779541	6618.219534431534
2.353865146636963	8263.44778673389
2.3567099571228027	10983.275279670383
2.3595502376556396	13762.573802540559
2.3623859882354736	15241.455695416764
2.3652172088623047	14992.686534863842
2.368043899536133	11716.115019259865
2.370866537094116	6973.10463916128
2.3736846446990967	5373.29542836363
2.3764986991882324	7669.032382121218
2.3793084621429443	11550.69335281429
2.3821144104003906	13360.202950163522
2.384916305541992	13042.587963174747
2.387714147567749	14406.172396685848
2.3905084133148193	16633.41621832606
2.393299102783203	16087.933963933123
2.3960859775543213	12447.49769344221
2.398869514465332	8388.74361384532
2.4016497135162354	5972.724900011954
2.4044265747070312	6542.171882776455
2.407200336456299	9328.379585266446
2.409970998764038	11222.202377414464
2.4127390384674072	11946.347955201816
2.415503978729248	11436.09279981819
2.418266534805298	8923.132161539874
2.4210267066955566	6477.148896019298
