#wavelength	surface flux
0.6450077295303345	1.833064561736036e-08
0.6472567915916443	2.885792026613721e-08
0.6494921445846558	3.767576369390173e-08
0.6517150402069092	4.349148313759348e-08
0.6539263725280762	4.992116900894771e-08
0.6561272740364075	5.733633709270311e-08
0.6583186388015747	6.594020782260997e-08
0.6605015397071838	7.598535507367427e-08
0.6626768708229065	8.779134450506891e-08
0.6648455858230591	1.0176166261266944e-07
0.6670085787773132	1.1839190111195151e-07
0.6691668033599854	1.3825832578113189e-07
0.6713210344314575	1.620029514415999e-07
0.6734722256660461	1.9035308927367554e-07
0.6756211519241333	2.2415477174471656e-07
0.6777685880661011	2.643830519203092e-07
0.6799154281616211	3.1214669542545086e-07
0.6820623278617859	3.6869788349216443e-07
0.6842101216316223	4.3542651511815304e-07
0.6863595843315125	5.138648245588452e-07
0.688511312007904	6.056672079085575e-07
0.6906660795211792	7.125546648931144e-07
0.6928245425224304	8.363501556763378e-07
0.6949873566627502	9.789036779820197e-07
0.6971551775932312	1.1418757906518332e-06
0.6993286609649658	1.326766278970642e-06
0.7015084028244019	1.5350952048013075e-06
0.7036949396133423	1.7685555299301898e-06
0.7058889269828796	2.0291444451096073e-06
0.7080909013748169	2.3192131573736575e-06
0.710301399230957	2.6414284966436805e-06
0.712520956993103	2.9986367707391008e-06
0.7147500514984131	3.393906921877345e-06
0.7169892191886902	3.830875007911485e-06
0.7192389369010925	4.3137798473848566e-06
0.7214996814727783	4.847090411855617e-06
0.723771870136261	5.435967200692356e-06
0.7260559797286987	6.086684853218927e-06
0.7283523678779602	6.806045218516994e-06
0.7306615710258484	7.60297226747441e-06
0.7329838871955872	8.488754680516222e-06
0.7353196740150452	9.47364173253422e-06
0.7376693487167358	1.0570328778494708e-05
0.7400332689285278	1.1796060019930556e-05
0.7424117922782898	1.3170271561733842e-05
0.7448052167892456	1.4716338453785146e-05
0.7472138404846191	1.6462428277342694e-05
0.7496379613876343	1.8442172337216703e-05
0.7520779371261597	2.0696756449733385e-05
0.7545340061187744	2.3276469954903926e-05
0.7570064663887024	2.6242431811822058e-05
0.7594954967498779	2.966784326560604e-05
0.7620013952255249	3.3634008029982044e-05
0.7645244002342224	3.822486830256658e-05
0.7670646905899048	4.352700986113589e-05
0.7696225643157959	4.963189957468539e-05
0.7721980810165405	5.6635812149876995e-05
0.7747915983200073	6.463416374805481e-05
0.7774031162261963	7.36990463353104e-05
0.7800329327583313	8.39278384435267e-05
0.7826811671257019	9.548352249448115e-05
0.7853479981422424	0.00010839118262994956
0.7880334854125977	0.00012260406059189812
0.7907378077507019	0.00013811589569101088
0.7934610247612	0.0001549138013611184
0.7962033748626709	0.00017334606505532097
0.7989648580551147	0.00019370121487741844
0.801745593547821	0.00021591296194129077
0.8045456409454346	0.00024022236084397886
0.8073651194572449	0.0002670794287904693
0.8102040886878967	0.0002968846290674025
0.8130625486373901	0.00033021053320629514
0.8159406185150146	0.00036800595964713554
0.8188382983207703	0.00041110893546597474
0.8217556476593018	0.00046019171051635185
0.8246926665306091	0.0005164763713729532
0.8276493549346924	0.0005811231282829617
0.8306257724761963	0.0006549295468642607
0.8336219191551208	0.0007392113452096174
0.8366377949714661	0.0008356281383504366
0.8396733403205872	0.0009458226096522642
0.8427285552024841	0.0010716199025111938
0.8458034992218018	0.00121496829881289
0.8488980531692505	0.0013779930177412016
0.8520121574401855	0.001563102777783203
0.8551458716392517	0.0017729308893307371
0.8582990765571594	0.0020101978484046343
0.8614717125892639	0.0022777579130686294
0.8646637797355652	0.002578735575326822
0.8678751587867737	0.002916386997024693
0.8711057901382446	0.0032941810175054734
0.8743556141853333	0.003716164411412052
0.87762451171875	0.004187196771130782
0.8809124231338501	0.004712910585997108
0.8842192888259888	0.005299468038607192
0.8875449895858765	0.005949087162069373
0.8908893465995789	0.0066274169896979596
0.894252359867096	0.00735577141634523
0.8976338505744934	0.008277940347021309
0.9010337591171265	0.00935961402238236
0.9044519662857056	0.010497885214567036
0.9078882932662964	0.011728125753249444
0.9113426208496094	0.013077847875911026
0.914814829826355	0.014566540690684903
0.9183048605918884	0.016209818602162928
0.9218124747276306	0.018026450967680022
0.925337553024292	0.02001893525470739
0.9288799166679382	0.022136114314557018
0.9324395060539246	0.024347535016217538
0.9360161423683167	0.02690613762572286
0.9396095871925354	0.030135033603416236
0.943219780921936	0.03377385845398142
0.9468464851379395	0.03751347075901524
0.9504896402359009	0.04161585988404005
0.9541489481925964	0.046316375054393524
0.9578243494033813	0.051718748486028365
0.9615156054496765	0.05785732648841926
0.9652225375175476	0.06467363370177033
0.9689450263977051	0.0722691535469241
0.9726828336715698	0.08079076270966895
0.9764357805252075	0.0904143547651878
0.9802037477493286	0.10131683081780493
0.983986496925354	0.1136014637970654
0.9877838492393494	0.12735661208545324
0.9915955662727356	0.14271746442213307
0.9954215884208679	0.1598567309302903
0.9992615580558777	0.17889325813266255
1.0031154155731201	0.19992102467013642
1.0069829225540161	0.22307166340093423
1.0108637809753418	0.2485154036044808
1.0147579908370972	0.2764300348974301
1.018665075302124	0.30698307199584773
1.022585153579712	0.34035073934542076
1.0265177488327026	0.3767727483931799
1.0304628610610962	0.4164889536372225
1.0344202518463135	0.45972250190570146
1.0383895635604858	0.5067335706418463
1.0423706769943237	0.5578049785568218
1.0463634729385376	0.6132488707692595
1.0503677129745483	0.6734039521745381
1.0543830394744873	0.7386259917795074
1.058409333229065	0.8093164483222807
1.0624464750289917	0.8859173816917179
1.0664942264556885	0.9688985733590864
1.0705522298812866	1.0587913033688787
1.0746204853057861	1.1562284256137552
1.0786986351013184	1.2618477615988186
1.0827864408493042	1.376245457789194
1.086883783340454	1.499924925338015
1.0909905433654785	1.6337840457415225
1.0951062440872192	1.7792998756072944
1.0992310047149658	1.936452767300802
1.10336434841156	2.103214396375745
1.1075061559677124	2.2782078423303838
1.1116561889648438	2.464648654166356
1.115814208984375	2.6720464117716105
1.1199802160263062	2.8969817273369145
1.124153733253479	3.151899914655541
1.1283347606658936	3.449706798196642
1.1325229406356812	3.7580354302922947
1.1367181539535522	4.093894961671837
1.1409201622009277	4.476311501114601
1.145128846168518	4.8803282110571855
1.1493438482284546	5.3056305934683285
1.1535650491714478	5.741064307381904
1.1577922105789185	6.206062401377231
1.1620250940322876	6.761899808569869
1.1662636995315552	7.388677450107023
1.170507550239563	8.038310255818315
1.174756646156311	8.72763478511367
1.1790107488632202	9.474107782602667
1.1832695007324219	10.281909770360166
1.1875330209732056	11.156411122163862
1.191800832748413	12.101951397514744
1.1960728168487549	13.122636913758964
1.2003488540649414	14.223301987115873
1.2046287059783936	15.412724907279651
1.2089121341705322	16.69793018826093
1.2131990194320679	18.08490582626295
1.2174891233444214	19.58269810132465
1.2217823266983032	21.198057887956132
1.2260783910751343	22.93886004969252
1.230377197265625	24.81426536625688
1.2346785068511963	26.834830259875044
1.238982081413269	29.013459913846518
1.2432878017425537	31.35816259574588
1.2475954294204712	33.87961304879146
1.2519049644470215	36.59225625560071
1.256216049194336	39.50981467070819
1.2605286836624146	42.64598980682626
1.2648425102233887	46.014512095792504
1.2691574096679688	49.63005741435032
1.2734732627868652	53.50824697435346
1.2777899503707886	57.666572370734364
1.2821072340011597	62.12847273540838
1.2864248752593994	66.91295540624634
1.2907428741455078	72.0279820257923
1.2950609922409058	77.51000849305913
1.2993791103363037	83.40372537388066
1.303696870803833	89.71199986154718
1.3080145120620728	96.42073069393288
1.3123314380645752	103.5318052764907
1.3166478872299194	111.1440493849714
1.3209635019302368	119.36896647003132
1.3252781629562378	128.12539120174554
1.3295916318893433	137.11898691184936
1.3339040279388428	146.0151045444564
1.3382149934768677	154.49785000313796
1.3425244092941284	161.4977862102448
1.3468321561813354	166.88120705067914
1.3511382341384888	171.03349891840944
1.3554422855377197	178.72065324711406
1.3597444295883179	194.03003046610743
1.3640443086624146	209.34355902190384
1.3683418035507202	224.61028943274314
1.3726370334625244	246.58976225320524
1.3769296407699585	271.512389848593
1.381219506263733	292.9260437567206
1.3855066299438477	308.5928926743859
1.3897908926010132	322.1108426674681
1.3940720558166504	335.33660238237366
1.3983501195907593	354.69665355790545
1.4026249647140503	384.2034486691273
1.4068963527679443	418.9241575023621
1.4111642837524414	446.66255693611356
1.4154287576675415	459.2251099317162
1.419689416885376	474.26661997765086
1.4239463806152344	505.6327504398375
1.4281994104385376	546.3999316191868
1.4324485063552856	596.6795484912335
1.436693549156189	651.5676836950897
1.440934419631958	702.6484703699067
1.4451709985733032	745.8507413154736
1.449403166770935	784.0858941423571
1.453631043434143	839.3623020076803
1.4578542709350586	906.0542880792088
1.4620729684829712	963.9728673367518
1.4662868976593018	1017.7066603138758
1.4704961776733398	1072.1141128359038
1.4747005701065063	1131.7388035027263
1.4788999557495117	1203.2992263280476
1.4830944538116455	1277.372806231391
1.4872838258743286	1350.629801337547
1.491468071937561	1428.9983887530295
1.4956470727920532	1514.386198092227
1.4998208284378052	1602.9998400820657
1.5039892196655273	1690.393086547053
1.5081522464752197	1786.8011936387059
1.5123097896575928	1890.217520680107
1.5164618492126465	1995.815547784254
1.5206083059310913	2106.613135744539
1.5247491598129272	2220.1005238264997
1.5288842916488647	2336.6669968481806
1.5330137014389038	2458.01516877244
1.5371372699737549	2585.449642713385
1.541254997253418	2716.8677336527144
1.545366883277893	2852.755358092783
1.5494728088378906	2995.5698149303785
1.5535727739334106	3144.3823772853566
1.5576666593551636	3298.480289293054
1.561754584312439	3458.7713767610658
1.5658363103866577	3625.6684790952995
1.5699119567871094	3798.768595482236
1.5739814043045044	3978.361876582487
1.5780447721481323	4165.011046991704
1.582101821899414	4358.689065803406
1.5861525535583496	4559.735017485432
1.5901970863342285	4768.40626115131
1.5942351818084717	4984.83779421889
1.5982669591903687	5209.242312399673
1.6022924184799194	5441.607861452606
1.606311559677124	5682.083997031787
1.6103241443634033	5931.048547795593
1.6143304109573364	6179.893736805883
1.6183301210403442	6339.007035729513
1.6223233938217163	6275.627512286967
1.6263102293014526	6142.34782411939
1.6302905082702637	6137.48708063703
1.634264349937439	6413.661681437559
1.638231635093689	7123.708394376315
1.6421923637390137	7779.595747509629
1.646146535873413	7916.115831699882
1.6500942707061768	7968.711462540464
1.6540353298187256	8187.284514866951
1.6579699516296387	8492.933682571618
1.661897897720337	8756.58818484489
1.6658192873001099	8470.475050138684
1.6697341203689575	8648.49844513475
1.6736423969268799	9781.529541990285
1.677544116973877	10452.660193428777
1.6814392805099487	10640.645819004289
1.6853278875350952	10921.040974320262
1.6892099380493164	11145.159685480952
1.6930854320526123	11282.20247472628
1.696954369544983	10914.184048541965
1.7008168697357178	9835.089920299404
1.7046726942062378	9478.099146015347
1.708522081375122	10948.316056518435
1.712364912033081	13123.381765195352
1.7162011861801147	14605.819541842662
1.7200311422348022	14940.495092167132
1.723854422569275	13984.89819837558
1.7276713848114014	12876.981096242644
1.731481909751892	13299.273282896796
1.7352858781814575	15258.440163763487
1.7390835285186768	17169.32856154147
1.7428747415542603	17858.9635887145
1.7466596364974976	18078.890711530825
1.7504380941390991	19022.582994892848
1.7542102336883545	20381.47231742527
1.7579760551452637	20853.224518044168
1.7617355585098267	20946.01762961827
1.7654887437820435	21732.71240515966
1.7692357301712036	22206.702933893906
1.7729763984680176	21783.232529442022
1.776710867881775	22513.93277358259
1.7804391384124756	24212.781572940934
1.7841613292694092	23961.992537958962
1.7878772020339966	22566.767331158142
1.7915871143341064	21979.280277781825
1.7952908277511597	23631.7996013209
1.7989884614944458	26139.05674728535
1.8026801347732544	27703.483459848005
1.806365728378296	28681.47618253275
1.8100452423095703	28654.564520015916
1.8137187957763672	28766.572418477597
1.817386507987976	29392.99147686597
1.8210482597351074	30766.09466008198
1.8247040510177612	32819.53991730824
1.828354001045227	33778.383290247744
1.8319982290267944	34563.50702424239
1.8356364965438843	35533.89579123007
1.8392690420150757	36141.16294818893
1.8428958654403687	37194.90641151639
1.8465168476104736	37978.100361782046
1.8501322269439697	38567.89902157431
1.8537418842315674	39361.73001172292
1.8573459386825562	39121.60066858801
1.860944390296936	38366.71450525366
1.864537239074707	38765.540245081
1.8681244850158691	39832.97875124522
1.871706247329712	42064.51366105227
1.8752825260162354	46081.59578526255
1.8788533210754395	49469.86798412951
1.8824186325073242	51048.48017291225
1.8859784603118896	53411.22866776985
1.8895330429077148	57050.33454277995
1.8930821418762207	59342.70464720652
1.8966259956359863	59715.56591020755
1.9001644849777222	59413.030839730585
1.9036977291107178	60013.698273368296
1.9072256088256836	60869.22308559987
1.9107483625411987	58498.67426339416
1.9142658710479736	56694.95030201243
1.9177782535552979	60827.60976340663
1.9212853908538818	64223.933668118945
1.9247875213623047	64919.23908716891
1.9282845258712769	66640.37080855102
1.9317764043807983	68345.07131371804
1.9352631568908691	69245.13938706584
1.9387450218200684	67211.73545671212
1.942221760749817	68371.81052324708
1.9456936120986938	74620.0919098583
1.9491604566574097	77816.01616041578
1.952622413635254	78287.36755554038
1.956079363822937	78433.41656034962
1.959531545639038	79582.60960855821
1.962978720664978	83360.39827901113
1.966421127319336	89651.49872297455
1.9698586463928223	95492.67744984895
1.9732913970947266	99030.6172134142
1.9767193794250488	101218.05727203249
1.9801424741744995	103777.31220994232
1.9835609197616577	108217.06169633643
1.9869745969772339	111510.90448426407
1.990383505821228	113088.5908310829
1.9937876462936401	115129.21506126692
1.9971871376037598	115538.56821447355
2.000581979751587	117949.74200200824
2.003972291946411	123569.11699731485
2.007357597351074	126700.49142089486
2.0107386112213135	129877.96050910752
2.0141148567199707	133655.04435179927
2.017486572265625	135940.9073620168
2.0208535194396973	140134.46621165247
2.0242159366607666	144756.77181769555
2.027573823928833	146559.10006486505
2.0309269428253174	148053.90429145837
2.034275770187378	152106.85182917226
2.0376198291778564	157393.99968212348
2.040959596633911	161366.749444179
2.044294595718384	164311.94475268043
2.0476250648498535	166886.8668170354
2.0509510040283203	168855.58765553465
2.054272413253784	171716.00294043648
2.057589530944824	176254.0425509807
2.0609018802642822	180562.41194356617
2.0642096996307373	183952.63162724354
2.0675129890441895	187298.7039024871
2.0708119869232178	190776.61146529805
2.074106216430664	194324.50256867416
2.0773961544036865	197684.17781671372
2.080681324005127	200631.5958020537
2.0839622020721436	203995.62426816192
2.087238311767578	207978.69841060106
2.090510129928589	211807.58015138004
2.0937774181365967	215560.23660362576
2.0970399379730225	219326.88690107007
2.1002981662750244	222867.7925870136
2.1035518646240234	226351.77299837218
2.1068007946014404	230304.98135362053
2.1100454330444336	234478.03964670398
2.1132853031158447	238390.67892035082
2.116520881652832	242128.39796459544
2.1197516918182373	246029.34479836273
2.1229779720306396	250336.21764709093
2.12619948387146	254640.3469690073
2.1294167041778564	258691.27190066015
2.132629156112671	262797.4331510654
2.1358368396759033	267086.9352923238
2.139039993286133	270945.7221876585
2.1422386169433594	273742.51340890053
2.145432472229004	275261.12451014906
2.1486217975616455	274675.63560674037
2.151806354522705	275107.845071562
2.1549863815307617	279523.1318822975
2.1581614017486572	285637.94761917676
2.16133189201355	290013.05357664276
2.1644976139068604	296133.90453797136
2.167658567428589	304258.3615637682
2.1708147525787354	308723.2926528413
2.173966407775879	309803.45054596354
2.1771130561828613	313743.7441273671
2.1802549362182617	322499.0546047043
2.183391809463501	329373.15321720066
2.1865241527557373	333864.23591708037
2.1896514892578125	338643.03214076225
2.1927738189697266	343802.67115297966
2.1958916187286377	322725.4150230332
2.1990041732788086	256331.12744520413
2.2021119594573975	214970.5110469836
2.2052149772644043	256605.08910137656
2.208312749862671	330778.1389042025
2.2114057540893555	370187.4556404244
2.214493751525879	365909.24835352437
2.217576742172241	333096.6704858105
2.2206547260284424	290353.3248507467
2.2237277030944824	263829.79197362886
2.2267956733703613	251702.3780021719
2.2298583984375	241936.6339609767
2.2329163551330566	244498.68093012559
2.235969066619873	265449.92941576155
2.2390167713165283	282791.95794300194
2.2420592308044434	264105.8909783926
2.2450966835021973	225947.9132170069
2.248128890991211	214143.36811290425
2.2511560916900635	227852.70009070553
2.254178285598755	240622.19047153753
2.257194995880127	255773.3327622788
2.260206699371338	280165.5777209843
2.2632133960723877	295653.9274956958
2.266214609146118	296241.0948335092
2.2692108154296875	302350.8314009727
2.2722020149230957	318611.0292040775
2.2751877307891846	313028.94520431873
2.278168201446533	308427.3160809547
2.2811436653137207	307774.62552109844
2.284113883972168	273664.812014323
2.287078857421875	234644.5720652821
2.290038824081421	221196.19997110148
2.2929933071136475	222977.97845130265
2.295942783355713	214841.5533243189
2.298887014389038	206620.65962233994
2.301826238632202	234320.88975117393
2.304760217666626	294098.59137722704
2.3076889514923096	362054.9297367862
2.310612440109253	440743.73188350984
2.3135311603546143	454657.0834177698
2.3164443969726562	319208.13576935686
2.319352865219116	217873.49432368187
2.322256088256836	281059.6353750713
2.3251543045043945	361280.5915263277
2.328047275543213	388566.57628912
2.330935478210449	368565.9272747481
2.3338186740875244	319803.2794351549
2.3366971015930176	272412.55261433433
2.3395702838897705	238119.66296847927
2.3424389362335205	233617.64819164592
2.3453025817871094	224966.3167327876
2.348161458969116	221788.90639160562
2.351015567779541	248287.54056226905
2.353865146636963	298170.9184424387
2.3567099571228027	384252.7456726023
2.3595502376556396	471482.03103208484
2.3623859882354736	518938.6210111633
2.3652172088623047	511497.03235488676
2.368043899536133	403356.52793918893
2.370866537094116	246239.48591875538
2.3736846446990967	193328.35011853906
2.3764986991882324	265449.7749919046
2.3793084621429443	383801.91399593966
2.3821144104003906	437191.5703065286
2.384916305541992	426777.50064373063
2.387714147567749	469926.0942877691
2.3905084133148193	535994.732903341
2.393299102783203	511838.68107708346
2.3960859775543213	398095.3238077042
2.398869514465332	284388.9295402483
2.4016497135162354	224284.55411466828
2.4044265747070312	237896.9077874997
2.407200336456299	306190.3327187443
2.409970998764038	356313.9674295051
2.4127390384674072	375281.45389589196
2.415503978729248	352900.29412267776
2.418266534805298	283090.90903255885
2.4210267066955566	229005.37894700802
2.4237842559814453	207149.1830969472
2.426539897918701	203376.2241289317
2.429293394088745	285504.3660005073
2.4320452213287354	398251.88596704684
2.4347951412200928	363096.0104130565
2.4375438690185547	338116.4796153061
2.440291166305542	418521.0705795777
2.443037271499634	423723.85255173565
2.445782423019409	395054.95675327984
