#wavelength	surface flux
0.6450077295303345	0.0003515374750664831
0.6472567915916443	0.0005457219348174014
0.6494921445846558	0.0006943486904500851
0.6517150402069092	0.0007769014484702041
0.6539263725280762	0.0008643849772059767
0.6561272740364075	0.0009628419909699822
0.6583186388015747	0.001074682317189292
0.6605015397071838	0.0012028995673241212
0.6626768708229065	0.0013512418013252923
0.6648455858230591	0.0015244219533178706
0.6670085787773132	0.001728097742818089
0.6691668033599854	0.0019684701955951945
0.6713210344314575	0.0022519448573444572
0.6734722256660461	0.002585419695457589
0.6756211519241333	0.0029765373676382783
0.6777685880661011	0.0034336283434938616
0.6799154281616211	0.003965794479761666
0.6820623278617859	0.004582853012886288
0.6842101216316223	0.005295117593769274
0.6863595843315125	0.006113126115756905
0.688511312007904	0.00704724653900178
0.6906660795211792	0.008107133051868033
0.6928245425224304	0.009302287726270054
0.6949873566627502	0.010642123085957174
0.6971551775932312	0.012132119205997846
0.6993286609649658	0.013773403704557643
0.7015084028244019	0.015567394727794299
0.7036949396133423	0.017517562532236703
0.7058889269828796	0.01962897078855088
0.7080909013748169	0.021907720321028903
0.710301399230957	0.024361485327994283
0.712520956993103	0.026998148491890906
0.7147500514984131	0.02982216511201719
0.7169892191886902	0.03284339277844654
0.7192389369010925	0.036085657254725914
0.7214996814727783	0.03956389282102024
0.723771870136261	0.04328305655560213
0.7260559797286987	0.04726628356211597
0.7283523678779602	0.05154467934978025
0.7306615710258484	0.05614881624323568
0.7329838871955872	0.06112025800751282
0.7353196740150452	0.06649510209464508
0.7376693487167358	0.0723180797016318
0.7400332689285278	0.07865650609088229
0.7424117922782898	0.08558457424759708
0.7448052167892456	0.09319023538618988
0.7472138404846191	0.10157853232971596
0.7496379613876343	0.1108731634010835
0.7520779371261597	0.12122720124443716
0.7545340061187744	0.1328280942499101
0.7570064663887024	0.14589820973003628
0.7594954967498779	0.16069298457505848
0.7620013952255249	0.1774774060214904
0.7645244002342224	0.19650039316554077
0.7670646905899048	0.21798775270389847
0.7696225643157959	0.24215470883417112
0.7721980810165405	0.269196206474551
0.7747915983200073	0.2985274864893939
0.7774031162261963	0.3238841395192842
0.7800329327583313	0.34786838620175586
0.7826811671257019	0.3923746560239661
0.7853479981422424	0.4493427811913345
0.7880334854125977	0.499626191235648
0.7907378077507019	0.5443826897512896
0.7934610247612	0.5793676920341363
0.7962033748626709	0.6283679255770747
0.7989648580551147	0.7043954910973144
0.801745593547821	0.7788160545313156
0.8045456409454346	0.8467179119113273
0.8073651194572449	0.9190674045724504
0.8102040886878967	0.997246920259902
0.8130625486373901	1.082585910049114
0.8159406185150146	1.1773359890949082
0.8188382983207703	1.283333084168442
0.8217556476593018	1.4014436990504002
0.8246926665306091	1.5337404114437732
0.8276493549346924	1.6821165332864394
0.8306257724761963	1.847346338964703
0.8336219191551208	2.031472677328688
0.8366377949714661	2.2368779253167554
0.8396733403205872	2.4653435521229494
0.8427285552024841	2.718853657172081
0.8458034992218018	2.998594589262431
0.8488980531692505	3.2990110911047803
0.8520121574401855	3.6251841394762665
0.8551458716392517	4.005740698935713
0.8582990765571594	4.433079690852476
0.8614717125892639	4.886749185310367
0.8646637797355652	5.376788041936001
0.8678751587867737	5.909294407836396
0.8711057901382446	6.486408972697004
0.8743556141853333	7.110821281603842
0.87762451171875	7.786343645122865
0.8809124231338501	8.517403917922778
0.8842192888259888	9.308451011691226
0.8875449895858765	10.154211734723528
0.8908893465995789	10.96934948554349
0.894252359867096	11.791854941059116
0.8976338505744934	12.924596767349462
0.9010337591171265	14.26672260556551
0.9044519662857056	15.572400441216363
0.9078882932662964	16.91803622503735
0.9113426208496094	18.353604985280253
0.914814829826355	19.897256344068435
0.9183048605918884	21.558612666803935
0.9218124747276306	23.344434392082423
0.925337553024292	25.21148548713885
0.9288799166679382	27.083667498203685
0.9324395060539246	29.0569072404338
0.9360161423683167	31.43437712190099
0.9396095871925354	34.27802290639864
0.943219780921936	37.25582823939181
0.9468464851379395	40.28649886683624
0.9504896402359009	43.620324022711486
0.9541489481925964	47.30786131503981
0.9578243494033813	51.342081486158584
0.9615156054496765	55.832944727339225
0.9652225375175476	60.83708986921829
0.9689450263977051	66.31849956047895
0.9726828336715698	72.22539760482688
0.9764357805252075	78.64368432854589
0.9802037477493286	85.72313047594403
0.983986496925354	93.50594500345542
0.9877838492393494	101.97532255227259
0.9915955662727356	111.14964720068961
0.9954215884208679	121.07288746718956
0.9992615580558777	131.76018835646292
1.0031154155731201	143.20771938858846
1.0069829225540161	155.43021473037268
1.0108637809753418	168.46485716811748
1.0147579908370972	182.34622142913435
1.018665075302124	197.1046079259531
1.022585153579712	212.77767176927355
1.0265177488327026	229.4136228955862
1.0304628610610962	247.06250716624314
1.0344202518463135	265.777245071651
1.0383895635604858	285.6050145441859
1.0423706769943237	306.5979475986608
1.0463634729385376	328.8234740674311
1.0503677129745483	352.34788427969346
1.0543830394744873	377.2460784656228
1.058409333229065	403.60033348375043
1.0624464750289917	431.49547164066075
1.0664942264556885	461.03105956380125
1.0705522298812866	492.31106933886457
1.0746204853057861	525.4427340014701
1.0786986351013184	560.5455683955882
1.0827864408493042	597.737393426433
1.086883783340454	637.0972155353342
1.0909905433654785	678.6965142183317
1.0951062440872192	722.5520125316506
1.0992310047149658	768.2388578113691
1.10336434841156	814.7736001767203
1.1075061559677124	861.0571610591926
1.1116561889648438	906.8030659600585
1.115814208984375	954.0106726637121
1.1199802160263062	1006.5225414715212
1.124153733253479	1074.1423882508352
1.1283347606658936	1155.1220912408958
1.1325229406356812	1229.5076675078399
1.1367181539535522	1311.855492213431
1.1409201622009277	1411.2509367733114
1.145128846168518	1503.294063773563
1.1493438482284546	1591.3533092489822
1.1535650491714478	1686.6982931734044
1.1577922105789185	1793.2077735117762
1.1620250940322876	1917.023339866313
1.1662636995315552	2052.2384309890513
1.170507550239563	2191.678791632213
1.174756646156311	2337.551218616404
1.1790107488632202	2490.6109270952124
1.1832695007324219	2650.230163959973
1.1875330209732056	2817.7945991909082
1.191800832748413	2994.6028625214703
1.1960728168487549	3180.966052116869
1.2003488540649414	3377.3293564668074
1.2046287059783936	3584.143415209826
1.2089121341705322	3802.1463555079663
1.2131990194320679	4032.6351261339323
1.2174891233444214	4276.647898725941
1.2217823266983032	4534.274741690003
1.2260783910751343	4805.8756298413655
1.230377197265625	5092.373485706559
1.2346785068511963	5394.484362338644
1.238982081413269	5712.899206010402
1.2432878017425537	6048.146023242659
1.2475954294204712	6401.216118369072
1.2519049644470215	6773.274149515778
1.256216049194336	7164.967976555356
1.2605286836624146	7576.859120892615
1.2648425102233887	8009.556516928085
1.2691574096679688	8463.807192771577
1.2734732627868652	8940.668498772717
1.2777899503707886	9440.855804994535
1.2821072340011597	9964.8011710672
1.2864248752593994	10513.319364467172
1.2907428741455078	11086.280448001044
1.2950609922409058	11685.36052363703
1.2993791103363037	12314.687387856013
1.303696870803833	12976.570514633766
1.3080145120620728	13670.736215400655
1.3123314380645752	14391.922833551382
1.3166478872299194	15145.528959460837
1.3209635019302368	15932.267716317165
1.3252781629562378	16729.886392480155
1.3295916318893433	17481.75251657897
1.3339040279388428	18032.271756655064
1.3382149934768677	18108.005641392174
1.3425244092941284	17543.169456493863
1.3468321561813354	16510.253932431246
1.3511382341384888	15470.598141182014
1.3554422855377197	15037.750760397734
1.3597444295883179	15634.249154231004
1.3640443086624146	17289.964989542994
1.3683418035507202	19684.05160326907
1.3726370334625244	22323.959637013413
1.3769296407699585	24026.398740475383
1.381219506263733	23742.876464782934
1.3855066299438477	23381.711603944335
1.3897908926010132	24385.299850489326
1.3940720558166504	25576.527881735856
1.3983501195907593	27174.82684885207
1.4026249647140503	29296.064394321827
1.4068963527679443	30955.8325558213
1.4111642837524414	32293.34023740923
1.4154287576675415	33462.26865805666
1.419689416885376	34649.90842643131
1.4239463806152344	36866.5248884483
1.4281994104385376	39867.65928071857
1.4324485063552856	42899.7836943882
1.436693549156189	46151.30336725851
1.440934419631958	49535.04288435541
1.4451709985733032	52846.5758281518
1.449403166770935	56234.744305487904
1.453631043434143	59953.59785379398
1.4578542709350586	63704.87264187294
1.4620729684829712	66853.4447270063
1.4662868976593018	69431.87368614585
1.4704961776733398	71935.05866810832
1.4747005701065063	74884.30555655347
1.4788999557495117	78130.246825004
1.4830944538116455	81484.0558085061
1.4872838258743286	85008.23897929593
1.491468071937561	88653.23683081561
1.4956470727920532	92496.86334615613
1.4998208284378052	96476.64113022228
1.5039892196655273	100528.74010514106
1.5081522464752197	104633.86155703854
1.5123097896575928	108785.61664019145
1.5164618492126465	113002.68771483852
1.5206083059310913	117348.42467555741
1.5247491598129272	121762.8958003777
1.5288842916488647	126190.33660129692
1.5330137014389038	130708.7116285418
1.5371372699737549	135363.5201344732
1.541254997253418	140073.8272108162
1.545366883277893	144858.15922996888
1.5494728088378906	149769.86820583267
1.5535727739334106	154794.50696237414
1.5576666593551636	159945.02515471613
1.561754584312439	165229.80844159253
1.5658363103866577	170619.7004587138
1.5699119567871094	176101.7235062221
1.5739814043045044	181720.43829260705
1.5780447721481323	187482.59499527057
1.582101821899414	193352.40965251715
1.5861525535583496	199337.86511617768
1.5901970863342285	205457.3681295073
1.5942351818084717	211720.1550404486
1.5982669591903687	218137.12701510428
1.6022924184799194	224677.83530163905
1.606311559677124	231319.54119283915
1.6103241443634033	237978.60271133663
1.6143304109573364	243174.5615485363
1.6183301210403442	241077.8279777816
1.6223233938217163	227718.3645273755
1.6263102293014526	211743.73926852373
1.6302905082702637	203382.05878978566
1.634264349937439	209094.04821143966
1.638231635093689	231791.027800322
1.6421923637390137	255095.55821755264
1.646146535873413	262143.65435441583
1.6500942707061768	263904.55384053855
1.6540353298187256	271200.0964759073
1.6579699516296387	285342.02430643793
1.661897897720337	286812.9160708988
1.6658192873001099	249815.22144683625
1.6697341203689575	247934.58087041954
1.6736423969268799	303449.9475889816
1.677544116973877	332160.1823938315
1.6814392805099487	330161.06615810905
1.6853278875350952	328455.6007669466
1.6892099380493164	328005.49206128437
1.6930854320526123	326299.78661632
1.696954369544983	312439.8708805392
1.7008168697357178	279845.0926350432
1.7046726942062378	266783.0521017411
1.708522081375122	306158.47077130654
1.712364912033081	371308.19309156184
1.7162011861801147	417052.1187626269
1.7200311422348022	418803.63950056926
1.723854422569275	380400.67705238634
1.7276713848114014	344499.8623501158
1.731481909751892	350342.94133306254
1.7352858781814575	386744.66305612004
1.7390835285186768	426050.2091569473
1.7428747415542603	451533.7875209679
1.7466596364974976	465609.0842222117
1.7504380941390991	483649.2918931067
1.7542102336883545	503004.4700634352
1.7579760551452637	509473.16246510623
1.7617355585098267	501162.09980378195
1.7654887437820435	492531.86872893013
1.7692357301712036	487378.5667789765
1.7729763984680176	479020.19362786895
1.776710867881775	492046.1649048134
1.7804391384124756	517213.07336974406
1.7841613292694092	496837.7563699872
1.7878772020339966	449190.35088186886
1.7915871143341064	412170.47611860896
1.7952908277511597	417778.5180240464
1.7989884614944458	447428.11299777956
1.8026801347732544	441112.97540287965
1.806365728378296	431332.10484170733
1.8100452423095703	431749.50041314866
1.8137187957763672	427280.5568042148
1.817386507987976	424524.0271108491
1.8210482597351074	448743.8298689904
1.8247040510177612	502856.489421849
1.828354001045227	508716.7017080126
1.8319982290267944	487356.2035059945
1.8356364965438843	473455.3318618717
1.8392690420150757	468294.93717970705
1.8428958654403687	515043.00955655816
1.8465168476104736	553568.8987336337
1.8501322269439697	562202.3200185464
1.8537418842315674	555946.3535826572
1.8573459386825562	522322.16363592434
1.860944390296936	496597.2430685206
1.864537239074707	477809.7113770391
1.8681244850158691	445382.93269977043
1.871706247329712	455278.3318278969
1.8752825260162354	567960.2185290642
1.8788533210754395	718921.3222394626
1.8824186325073242	794436.4112260598
1.8859784603118896	803443.0842707285
1.8895330429077148	812872.1036958713
1.8930821418762207	848285.2344195535
1.8966259956359863	844831.1561355991
1.9001644849777222	763024.1090942508
1.9036977291107178	713005.3626158293
1.9072256088256836	744999.2749206458
1.9107483625411987	761666.1190475895
1.9142658710479736	744773.1662683865
1.9177782535552979	765413.3526737035
1.9212853908538818	775639.3661399714
1.9247875213623047	766852.2155046609
1.9282845258712769	758369.1706666908
1.9317764043807983	753782.9049970829
1.9352631568908691	741839.037827462
1.9387450218200684	698700.7204215904
1.942221760749817	741671.4295386121
1.9456936120986938	840164.1867681878
1.9491604566574097	901620.2272345889
1.952622413635254	909115.2876185607
1.956079363822937	892320.4334064702
1.959531545639038	945528.2993820172
1.962978720664978	1017462.4357613877
1.966421127319336	1085083.4083552903
1.9698586463928223	1127053.864078401
1.9732913970947266	1136682.6680047906
1.9767193794250488	1188258.3056292583
1.9801424741744995	1256397.2278124192
1.9835609197616577	1343424.1606784808
1.9869745969772339	1396892.823602318
1.990383505821228	1384822.9871452022
1.9937876462936401	1427942.6847894294
1.9971871376037598	1490241.1069011153
2.000581979751587	1526826.1811359152
2.003972291946411	1572705.951884257
2.007357597351074	1606929.2964961024
2.0107386112213135	1648506.9295003568
2.0141148567199707	1676723.73960374
2.017486572265625	1679416.7924003324
2.0208535194396973	1711049.6174353024
2.0242159366607666	1757682.8230877111
2.027573823928833	1774185.7930579027
2.0309269428253174	1790099.9039050287
2.034275770187378	1839589.6382924842
2.0376198291778564	1888083.4925437577
2.040959596633911	1915214.5725904144
2.044294595718384	1935708.3889201065
2.0476250648498535	1952716.537367122
2.0509510040283203	1964992.754806401
2.054272413253784	1992959.8383970275
2.057589530944824	2037421.8892268369
2.0609018802642822	2070671.471044634
2.0642096996307373	2094444.711528374
2.0675129890441895	2120934.604002406
2.0708119869232178	2149075.8275930835
2.074106216430664	2176617.3443643763
2.0773961544036865	2200827.533444649
2.080681324005127	2218322.0452428865
2.0839622020721436	2238305.727843288
2.087238311767578	2268256.238264759
2.090510129928589	2300384.7255463116
2.0937774181365967	2330483.3502432485
2.0970399379730225	2356824.5251634964
2.1002981662750244	2379322.7777976086
2.1035518646240234	2400420.903093787
2.1068007946014404	2425873.81191442
2.1100454330444336	2454299.409830821
2.1132853031158447	2481023.3604100044
2.116520881652832	2505250.350355648
2.1197516918182373	2529585.7744063116
2.1229779720306396	2557971.4681573035
2.12619948387146	2585967.8827156303
2.1294167041778564	2609949.3722491167
2.132629156112671	2633727.345504188
2.1358368396759033	2658899.9996947143
2.139039993286133	2665061.7288647443
2.1422386169433594	2635785.6954784594
2.145432472229004	2607104.2833800507
2.1486217975616455	2570465.374674809
2.151806354522705	2527425.8039718997
2.1549863815307617	2555777.053660157
2.1581614017486572	2615371.084968581
2.16133189201355	2633402.307889616
2.1644976139068604	2671587.5573478625
2.167658567428589	2729155.800789315
2.1708147525787354	2765407.1547784703
2.173966407775879	2798991.156960009
2.1771130561828613	2835766.4521408756
2.1802549362182617	2880264.3503760234
2.183391809463501	2918501.890595112
2.1865241527557373	2969996.2844507326
2.1896514892578125	3028583.447419964
2.1927738189697266	3032039.816981605
2.1958916187286377	2694504.496920773
2.1990041732788086	1900480.2768888741
2.2021119594573975	1422902.7769206613
2.2052149772644043	1820553.946230682
2.208312749862671	2558881.945702552
2.2114057540893555	2929667.57935964
2.214493751525879	2781421.5191483507
2.217576742172241	2327444.814813395
2.2206547260284424	1896314.7124376544
2.2237277030944824	1636236.5110917117
2.2267956733703613	1386704.2566566141
2.2298583984375	1181473.0456189422
2.2329163551330566	1167389.1659495458
2.235969066619873	1300856.856106193
2.2390167713165283	1360376.2273988188
2.2420592308044434	1235468.3517925662
2.2450966835021973	1069310.047508689
2.248128890991211	991606.9439643333
2.2511560916900635	997533.7824617143
2.254178285598755	1011021.8362769192
2.257194995880127	1106349.6865692085
2.260206699371338	1258167.5518459375
2.2632133960723877	1305860.7120822843
2.266214609146118	1310635.0603716408
2.2692108154296875	1386745.3911428666
2.2722020149230957	1566653.938361199
2.2751877307891846	1668448.4015291082
2.278168201446533	1761249.408577512
2.2811436653137207	1773394.3349053152
2.284113883972168	1465242.9378939446
2.287078857421875	1141395.1876716812
2.290038824081421	979004.8719179546
2.2929933071136475	880802.7042698837
2.295942783355713	818143.5594835846
2.298887014389038	859619.5015037663
2.301826238632202	1012831.6054469509
2.304760217666626	1332911.4865317377
2.3076889514923096	1927218.2902764971
2.310612440109253	2739770.130784427
2.3135311603546143	2987053.666081996
2.3164443969726562	1953931.320911087
2.319352865219116	968680.6530565711
2.322256088256836	1143089.5254027955
2.3251543045043945	1656910.3022134586
2.328047275543213	1879777.474204018
2.330935478210449	1702898.1836951838
2.3338186740875244	1252333.188089597
2.3366971015930176	877361.4777657514
2.3395702838897705	759792.6586413987
2.3424389362335205	779182.1096523524
2.3453025817871094	716564.3854392336
2.348161458969116	707529.631995363
2.351015567779541	859619.3390399759
2.353865146636963	1067456.498594863
2.3567099571228027	1470384.0387569831
2.3595502376556396	2041460.24135907
2.3623859882354736	2344806.6050944394
2.3652172088623047	2141570.474122155
2.368043899536133	1459634.2871480065
2.370866537094116	731239.5064862458
2.3736846446990967	559189.2981638674
2.3764986991882324	970726.3796505133
2.3793084621429443	1613922.235891014
2.3821144104003906	1932332.818982633
2.384916305541992	1873398.8664554101
2.387714147567749	1970879.39230027
2.3905084133148193	2148607.2406067923
2.393299102783203	1903343.6972593716
2.3960859775543213	1314642.923740179
2.398869514465332	932204.0071616565
2.4016497135162354	915776.4630223247
2.4044265747070312	1025682.0137681927
2.407200336456299	1143439.3710883763
2.409970998764038	1311686.3469248922
2.4127390384674072	1495011.8913450085
2.415503978729248	1401351.4614331617
2.418266534805298	1149869.5641869844
2.4210267066955566	1094327.824422137
2.4237842559814453	1012997.2049139622
2.426539897918701	927796.4361919315
2.429293394088745	1280857.832360466
2.4320452213287354	1715794.5774151105
2.4347951412200928	1543054.3124061846
2.4375438690185547	1405523.0419487928
2.440291166305542	1710037.783261404
2.443037271499634	1780899.5773702573
2.445782423019409	1621543.4049769905
2.4485268592834473	1635283.4400612544
2.451270818710327	1773267.060690066
2.454014539718628	1842395.565256208
2.4567582607269287	1811114.0873161126
2.4595019817352295	1885380.1693657227
2.4622461795806885	2181318.099593934
2.4649908542633057	2334980.3159771175
2.4677364826202393	2133534.559471773
