#wavelength	surface flux
0.6450077295303345	285.21967506766924
0.6472567915916443	434.94857569836216
0.6494921445846558	535.2062070348838
0.6517150402069092	574.2952618931549
0.6539263725280762	611.7340163794028
0.6561272740364075	651.2045526926072
0.6583186388015747	692.8530499797342
0.6605015397071838	736.696158827934
0.6626768708229065	782.6286136911048
0.6648455858230591	830.8872846600867
0.6670085787773132	881.5778826902073
0.6691668033599854	934.0422998648967
0.6713210344314575	989.231704427974
0.6734722256660461	1048.9637199023
0.6756211519241333	1111.8684548038912
0.6777685880661011	1176.9432067260075
0.6799154281616211	1245.140740822962
0.6820623278617859	1316.7830745857493
0.6842101216316223	1392.0206032436452
0.6863595843315125	1470.8827719133392
0.688511312007904	1553.3196417097677
0.6906660795211792	1639.0920254618259
0.6928245425224304	1729.1868934207641
0.6949873566627502	1825.556786054311
0.6971551775932312	1926.570648697372
0.6993286609649658	2032.1176932419066
0.7015084028244019	2145.422653355175
0.7036949396133423	2264.8207801398594
0.7058889269828796	2388.1797157675533
0.7080909013748169	2516.354446797065
0.710301399230957	2651.5343306729837
0.712520956993103	2793.9470230957504
0.7147500514984131	2938.4538299878427
0.7169892191886902	3088.003353250107
0.7192389369010925	3256.0276978785564
0.7214996814727783	3436.825886914206
0.723771870136261	3621.7166660645485
0.7260559797286987	3815.030427995956
0.7283523678779602	4014.7778158821393
0.7306615710258484	4223.268617846377
0.7329838871955872	4444.133338836844
0.7353196740150452	4673.465349149396
0.7376693487167358	4919.380011835567
0.7400332689285278	5182.6477359823675
0.7424117922782898	5455.353039594848
0.7448052167892456	5743.052414654542
0.7472138404846191	6048.595420691805
0.7496379613876343	6370.541231258944
0.7520779371261597	6706.228568855901
0.7545340061187744	7054.647566024275
0.7570064663887024	7412.191852775133
0.7594954967498779	7759.957681548201
0.7620013952255249	7957.968843986461
0.7645244002342224	7652.04537328788
0.7670646905899048	7163.937983099954
0.7696225643157959	7490.530352037398
0.7721980810165405	8797.800050716076
0.7747915983200073	10186.921137523692
0.7774031162261963	11025.801346126374
0.7800329327583313	11579.025834008144
0.7826811671257019	12242.906637901422
0.7853479981422424	12988.86915803108
0.7880334854125977	13690.407579384379
0.7907378077507019	14366.813627723534
0.7934610247612	14991.192076473244
0.7962033748626709	15731.073410429322
0.7989648580551147	16676.012054108203
0.801745593547821	17623.099259676303
0.8045456409454346	18539.51830479792
0.8073651194572449	19478.47727962306
0.8102040886878967	20424.01033989991
0.8130625486373901	21424.002042215983
0.8159406185150146	22527.523275223797
0.8188382983207703	23701.75123884585
0.8217556476593018	24904.893503402847
0.8246926665306091	26175.576543554278
0.8276493549346924	27557.135307664026
0.8306257724761963	29004.809883184666
0.8336219191551208	30508.61845170077
0.8366377949714661	32072.79645688999
0.8396733403205872	33696.85493217516
0.8427285552024841	35401.44969278211
0.8458034992218018	37173.35228549701
0.8488980531692505	39054.62909573872
0.8520121574401855	41053.32243903058
0.8551458716392517	43127.17330660149
0.8582990765571594	45273.8542738841
0.8614717125892639	47476.280458615875
0.8646637797355652	49789.57869756338
0.8678751587867737	52281.78366060411
0.8711057901382446	54900.73825176846
0.8743556141853333	57629.1389257614
0.87762451171875	60491.439659869255
0.8809124231338501	63459.41870221909
0.8842192888259888	66537.41464378352
0.8875449895858765	69675.7321488993
0.8908893465995789	72720.72929302668
0.894252359867096	75654.25900011239
0.8976338505744934	78712.3434137018
0.9010337591171265	82734.1285020964
0.9044519662857056	87576.76582850503
0.9078882932662964	92119.82669797353
0.9113426208496094	96380.55343784831
0.914814829826355	100607.14818423147
0.9183048605918884	105001.31161639682
0.9218124747276306	109574.98714491051
0.925337553024292	112482.33249158022
0.9288799166679382	112530.45039570221
0.9324395060539246	111264.95293682032
0.9360161423683167	114517.24489293533
0.9396095871925354	126850.9734575798
0.943219780921936	138726.27085132297
0.9468464851379395	142398.97947142832
0.9504896402359009	146240.57933726805
0.9541489481925964	154347.53006707435
0.9578243494033813	162125.8256299513
0.9615156054496765	169762.91475820582
0.9652225375175476	180449.6649892741
0.9689450263977051	191863.5042578231
0.9726828336715698	200842.72501412785
0.9764357805252075	209668.77757612872
0.9802037477493286	219970.70868711447
0.983986496925354	230441.77258868984
0.9877838492393494	240542.00670393236
0.9915955662727356	251387.34905152465
0.9954215884208679	263019.9752928854
0.9992615580558777	274563.4559092974
1.0031154155731201	286092.98914436577
1.0069829225540161	297926.3038145085
1.0108637809753418	310149.38395758794
1.0147579908370972	322768.833291291
1.018665075302124	335780.52186898614
1.022585153579712	349165.08432859846
1.0265177488327026	362958.1883063177
1.0304628610610962	377139.6971321614
1.0344202518463135	391760.46588692075
1.0383895635604858	406860.42647426436
1.0423706769943237	422392.56041967147
1.0463634729385376	438348.8792406791
1.0503677129745483	454780.3649653395
1.0543830394744873	471693.0551254708
1.058409333229065	489080.463431158
1.0624464750289917	507344.5367496366
1.0664942264556885	526282.6178845285
1.0705522298812866	545471.7992610992
1.0746204853057861	565101.347048132
1.0786986351013184	585236.4577072588
1.0827864408493042	605980.4907253919
1.086883783340454	626393.8395512765
1.0909905433654785	644752.0471353418
1.0951062440872192	658288.8233601208
1.0992310047149658	667208.1346694789
1.10336434841156	682886.6315509462
1.1075061559677124	709589.1046046644
1.1116561889648438	721275.9206136083
1.115814208984375	703125.6276334088
1.1199802160263062	690014.8414384198
1.124153733253479	712924.5961666778
1.1283347606658936	767682.8213547597
1.1325229406356812	811901.683043616
1.1367181539535522	840557.9329377185
1.1409201622009277	873571.7823300865
1.145128846168518	887777.1186209802
1.1493438482284546	906763.0420817271
1.1535650491714478	953088.0767943801
1.1577922105789185	991920.0346486459
1.1620250940322876	1017196.2806379672
1.1662636995315552	1051603.904850219
1.170507550239563	1090751.9777301527
1.174756646156311	1137581.3320730585
1.1790107488632202	1195223.8903754414
1.1832695007324219	1244345.515192704
1.1875330209732056	1292320.128483135
1.191800832748413	1344794.160363249
1.1960728168487549	1386156.7421777
1.2003488540649414	1424424.2743884563
1.2046287059783936	1471457.5748900576
1.2089121341705322	1516968.1683928932
1.2131990194320679	1556978.251324101
1.2174891233444214	1600738.9743889864
1.2217823266983032	1647908.4787112663
1.2260783910751343	1692998.569164833
1.230377197265625	1738286.450951882
1.2346785068511963	1786974.3478319773
1.238982081413269	1836831.0648435922
1.2432878017425537	1885384.2634754977
1.2475954294204712	1933329.6587199522
1.2519049644470215	1980452.1571018242
1.256216049194336	2029594.8236272729
1.2605286836624146	2082136.5248212607
1.2648425102233887	2133820.5509518078
1.2691574096679688	2182801.9575145813
1.2734732627868652	2232572.538196955
1.2777899503707886	2284247.900954119
1.2821072340011597	2334040.7896443424
1.2864248752593994	2383382.83026421
1.2907428741455078	2424459.3051529736
1.2950609922409058	2459152.8471647664
1.2993791103363037	2517258.150027221
1.303696870803833	2592661.739767116
1.3080145120620728	2656574.3160717166
1.3123314380645752	2705015.4999451754
1.3166478872299194	2743705.7736090655
1.3209635019302368	2771816.373725011
1.3252781629562378	2806676.3500968153
1.3295916318893433	2808752.694130631
1.3339040279388428	2651411.906555984
1.3382149934768677	2416085.2159516625
1.3425244092941284	2308458.0628793663
1.3468321561813354	2246601.9068443
1.3511382341384888	2087507.4570358428
1.3554422855377197	1977403.8705080615
1.3597444295883179	1979881.8888255032
1.3640443086624146	1993730.5081429337
1.3683418035507202	2082568.991689169
1.3726370334625244	2250459.6879244028
1.3769296407699585	2471761.6214037547
1.381219506263733	2657831.401040281
1.3855066299438477	2660312.936887298
1.3897908926010132	2587363.394485766
1.3940720558166504	2539992.3430115446
1.3983501195907593	2540058.768128387
1.4026249647140503	2548204.7410848527
1.4068963527679443	2596445.341044092
1.4111642837524414	2761427.335630948
1.4154287576675415	2747835.857995647
1.419689416885376	2517199.4049606533
1.4239463806152344	2411726.6791212787
1.4281994104385376	2562370.9665202815
1.4324485063552856	2882021.133231577
1.436693549156189	3050947.6521386974
1.440934419631958	3112989.270619996
1.4451709985733032	3308738.792375201
1.449403166770935	3521055.698230169
1.453631043434143	3733636.5369186047
1.4578542709350586	3998184.3230221123
1.4620729684829712	4041397.3743541515
1.4662868976593018	3947277.316176903
1.4704961776733398	4061538.683974023
1.4747005701065063	4256564.111574702
1.4788999557495117	4460223.048859431
1.4830944538116455	4625148.162731
1.4872838258743286	4683329.007841381
1.491468071937561	4755320.378548191
1.4956470727920532	4878267.177554228
1.4998208284378052	5001377.423341314
1.5039892196655273	5219927.579475235
1.5081522464752197	5473423.992139547
1.5123097896575928	5649330.967733914
1.5164618492126465	5820625.276695611
1.5206083059310913	5986245.8790662335
1.5247491598129272	6082012.568760322
1.5288842916488647	6115950.552486531
1.5330137014389038	6251008.286943852
1.5371372699737549	6488233.614871858
1.541254997253418	6667546.816230796
1.545366883277893	6782513.977977352
1.5494728088378906	6890720.216726324
1.5535727739334106	6995847.248744308
1.5576666593551636	7092961.498155505
1.561754584312439	7190433.692122539
1.5658363103866577	7300262.792087322
1.5699119567871094	7401666.670893764
1.5739814043045044	7500322.52064708
1.5780447721481323	7619811.741358522
1.582101821899414	7730953.340492218
1.5861525535583496	7826113.87439939
1.5901970863342285	7921849.3616068065
1.5942351818084717	8019478.709083779
1.5982669591903687	8114026.485690342
1.6022924184799194	8205890.860801155
1.606311559677124	8298639.253256296
1.6103241443634033	8389438.313536651
1.6143304109573364	8479765.277008144
1.6183301210403442	8538326.032613393
1.6223233938217163	8462587.16211183
1.6263102293014526	8298222.839747132
1.6302905082702637	8184128.975542247
1.634264349937439	8229193.63210167
1.638231635093689	8587876.160621377
1.6421923637390137	8949546.247100104
1.646146535873413	9036384.968663597
1.6500942707061768	9067414.441874586
1.6540353298187256	9071014.542032309
1.6579699516296387	9097551.495215403
1.661897897720337	9023511.85076496
1.6658192873001099	8556718.574389052
1.6697341203689575	8589749.107970826
1.6736423969268799	9229549.138944892
1.677544116973877	9426062.51538561
1.6814392805099487	9428505.661383592
1.6853278875350952	9606399.524255894
1.6892099380493164	9672465.864299715
1.6930854320526123	9594215.119917715
1.696954369544983	9474862.75251113
1.7008168697357178	9286785.713100666
1.7046726942062378	9268455.859217115
1.708522081375122	9677096.160636887
1.712364912033081	10210676.933953926
1.7162011861801147	10465439.866798833
1.7200311422348022	10450093.519611608
1.723854422569275	10155486.766596552
1.7276713848114014	9715932.895609464
1.731481909751892	9551678.281695418
1.7352858781814575	9725448.913145885
1.7390835285186768	9956326.939698288
1.7428747415542603	10095685.15029662
1.7466596364974976	10293686.777559852
1.7504380941390991	10409917.619891189
1.7542102336883545	10252617.771417815
1.7579760551452637	10111504.69289303
1.7617355585098267	10085786.724265693
1.7654887437820435	9958891.976569187
1.7692357301712036	9746876.297553444
1.7729763984680176	9674291.234721271
1.776710867881775	9677279.617311021
1.7804391384124756	9579873.029332584
1.7841613292694092	9461472.869020348
1.7878772020339966	9118940.681559939
1.7915871143341064	8553825.64047963
1.7952908277511597	8507080.389839655
1.7989884614944458	8700030.790913139
1.8026801347732544	8737533.238369167
1.806365728378296	8494105.441217441
1.8100452423095703	8162155.863227007
1.8137187957763672	8657067.366227191
1.817386507987976	9189644.432661803
1.8210482597351074	9299976.26441163
1.8247040510177612	9654104.61822084
1.828354001045227	9724524.174025076
1.8319982290267944	9696726.633083038
1.8356364965438843	9857011.007679781
1.8392690420150757	9539447.870866623
1.8428958654403687	9003751.278561715
1.8465168476104736	8452827.190430714
1.8501322269439697	8532885.28857544
1.8537418842315674	8900452.618438723
1.8573459386825562	8544341.233882276
1.860944390296936	8038736.909761441
1.864537239074707	7813400.44997936
1.8681244850158691	7927404.698729128
1.871706247329712	8205849.1752166785
1.8752825260162354	8737880.724615747
1.8788533210754395	9457375.392311463
1.8824186325073242	9908313.330675105
1.8859784603118896	10343040.588188589
1.8895330429077148	10887841.003115559
1.8930821418762207	11112008.8669006
1.8966259956359863	11139117.32607818
1.9001644849777222	11092530.829458108
1.9036977291107178	11274361.89839148
1.9072256088256836	11661469.526285073
1.9107483625411987	11466876.397839319
1.9142658710479736	11305500.830541125
1.9177782535552979	11536247.206193106
1.9212853908538818	11162700.49471697
1.9247875213623047	11019460.928091036
1.9282845258712769	11281834.887550492
1.9317764043807983	10860564.559664486
1.9352631568908691	10318553.422718111
1.9387450218200684	9679178.727603205
1.942221760749817	9278459.603659907
1.9456936120986938	9468756.48793964
1.9491604566574097	9855407.36971297
1.952622413635254	9880226.853939129
1.956079363822937	9038930.114301141
1.959531545639038	8870630.986365326
1.962978720664978	10374158.761182448
1.966421127319336	11866049.2554939
1.9698586463928223	12175303.297719734
1.9732913970947266	12098181.200873774
1.9767193794250488	12241644.373140123
1.9801424741744995	12722472.075354641
1.9835609197616577	13267149.972695505
1.9869745969772339	13158048.24264252
1.990383505821228	12710277.470605884
1.9937876462936401	13028314.958455747
1.9971871376037598	13346903.140538005
2.000581979751587	13024408.26144169
2.003972291946411	13209394.108001294
2.007357597351074	14131206.699664952
2.0107386112213135	15070376.894576877
2.0141148567199707	15255475.059152685
2.017486572265625	15095089.410198923
2.0208535194396973	15632533.69888631
2.0242159366607666	16087055.92834241
2.027573823928833	15614437.892448053
2.0309269428253174	15372167.894682754
2.034275770187378	15852575.452749241
2.0376198291778564	16170224.420550276
2.040959596633911	16262642.332080841
2.044294595718384	16745622.094834425
2.0476250648498535	17182640.8465581
2.0509510040283203	17329525.772072203
2.054272413253784	17613759.726685744
2.057589530944824	17879329.52461898
2.0609018802642822	17976584.741595507
2.0642096996307373	18021197.474911954
2.0675129890441895	18170865.17374384
2.0708119869232178	18389349.967752803
2.074106216430664	18613970.23678642
2.0773961544036865	18640238.99192536
2.080681324005127	18459843.869825386
2.0839622020721436	18481231.48486006
2.087238311767578	18683156.697944645
2.090510129928589	18944593.525357112
2.0937774181365967	19224079.916350674
2.0970399379730225	19337005.75435754
2.1002981662750244	19381518.423002426
2.1035518646240234	19488317.911520105
2.1068007946014404	19584029.361801155
2.1100454330444336	19559210.348784573
2.1132853031158447	19508637.44899763
2.116520881652832	19592239.768402215
2.1197516918182373	19786640.69414435
2.1229779720306396	19923295.914813526
2.12619948387146	19960096.404676802
2.1294167041778564	20045252.278388508
2.132629156112671	20179888.072033845
2.1358368396759033	20263413.383958988
2.139039993286133	20295067.445858058
2.1422386169433594	20327773.26679977
2.145432472229004	20324300.04238848
2.1486217975616455	20271674.88947672
2.151806354522705	20248979.197563503
2.1549863815307617	20232514.098495267
2.1581614017486572	20330611.425642777
2.16133189201355	20492323.99316127
2.1644976139068604	20613299.84366658
2.167658567428589	20727276.724698916
2.1708147525787354	20742978.270524386
2.173966407775879	20720630.180268515
2.1771130561828613	20821904.6751928
2.1802549362182617	20960874.18925721
2.183391809463501	20955992.726414636
2.1865241527557373	20951136.18010949
2.1896514892578125	21058362.646221936
2.1927738189697266	21118602.200390775
2.1958916187286377	20682227.456242897
2.1990041732788086	19512570.349494457
2.2021119594573975	18842895.93492071
2.2052149772644043	19616216.311991546
2.208312749862671	20815218.96001236
2.2114057540893555	21397204.018542107
2.214493751525879	21304416.12695365
2.217576742172241	20308359.467909183
2.2206547260284424	18593136.131949015
2.2237277030944824	17761086.038698394
2.2267956733703613	17820224.936007272
2.2298583984375	17869172.62582137
2.2329163551330566	18164056.807553023
2.235969066619873	18593908.72284485
2.2390167713165283	19085579.949543994
2.2420592308044434	18665772.940079078
2.2450966835021973	17272342.689496942
2.248128890991211	16939919.771170486
2.2511560916900635	17312009.273434673
2.254178285598755	17285423.55773653
2.257194995880127	17999742.393033605
2.260206699371338	19423782.662003264
2.2632133960723877	19956249.307995535
2.266214609146118	19231872.67831566
2.2692108154296875	18582241.107798073
2.2722020149230957	18944148.67530629
2.2751877307891846	19100045.64110827
2.278168201446533	18539405.85857565
2.2811436653137207	17977332.00145662
2.284113883972168	17329129.187101193
2.287078857421875	16637647.403509608
2.290038824081421	16054794.318456654
2.2929933071136475	15186581.10469009
2.295942783355713	14658169.228395354
2.298887014389038	15467641.458223755
2.301826238632202	16653843.332462871
2.304760217666626	17258373.504446093
2.3076889514923096	18147892.34871236
2.310612440109253	19652589.451393656
2.3135311603546143	19479372.512831148
2.3164443969726562	16024396.032324782
2.319352865219116	13656631.699786019
2.322256088256836	14904273.884683695
2.3251543045043945	16466132.149013793
2.328047275543213	17404980.3530112
2.330935478210449	17717307.46404107
2.3338186740875244	17115325.95456517
2.3366971015930176	15748334.166231295
2.3395702838897705	14434387.214043723
2.3424389362335205	14479580.258140117
2.3453025817871094	14674849.884654932
2.348161458969116	14380447.431592297
2.351015567779541	13943241.323004698
2.353865146636963	14619980.58950318
2.3567099571228027	16880204.584743675
2.3595502376556396	18393855.192847475
2.3623859882354736	18890872.357598465
2.3652172088623047	19075749.36759596
2.368043899536133	16887161.30296448
2.370866537094116	13020383.22780324
2.3736846446990967	11927755.729998788
2.3764986991882324	13386446.05013346
2.3793084621429443	15287967.95984072
2.3821144104003906	16699115.992311083
2.384916305541992	17061378.510206185
2.387714147567749	17853059.121808216
2.3905084133148193	18526316.259737138
2.393299102783203	17395704.558718268
2.3960859775543213	16250875.16322788
2.398869514465332	15913490.98743614
2.4016497135162354	14873350.587933466
2.4044265747070312	14139441.226075182
2.407200336456299	15101159.752267815
2.409970998764038	16196683.891724005
2.4127390384674072	16669274.788302748
2.415503978729248	16299243.655604564
2.418266534805298	14854848.77750261
2.4210267066955566	14161164.204779118
2.4237842559814453	14357164.21243141
2.426539897918701	14400049.755953839
2.429293394088745	15405595.333072336
2.4320452213287354	16174293.953842912
2.4347951412200928	14146993.40157157
2.4375438690185547	13368056.792543113
2.440291166305542	15226382.538151398
2.443037271499634	15322511.71299945
2.445782423019409	14853739.973262597
2.4485268592834473	15485323.736159008
2.451270818710327	14938002.06449202
2.454014539718628	14279949.492167233
2.4567582607269287	15227199.592247386
2.4595019817352295	15661172.061687144
2.4622461795806885	16015050.670016684
2.4649908542633057	16492693.018489048
2.4677364826202393	14924177.874059068
2.4704833030700684	13430124.263424426
2.473231554031372	12910062.289280105
2.4759814739227295	13217817.100556774
2.4787333011627197	14111431.082328508
2.481487512588501	13914556.854393128
