#wavelength	surface flux
0.6450077295303345	65.02639422594115
0.6472567915916443	99.44607451610939
0.6494921445846558	123.02891594707182
0.6517150402069092	132.9055171616803
0.6539263725280762	142.5269022675801
0.6561272740364075	152.71798683555284
0.6583186388015747	163.52929374095132
0.6605015397071838	174.99037229791938
0.6626768708229065	187.1029716274282
0.6648455858230591	199.91842234624872
0.6670085787773132	213.48255908174485
0.6691668033599854	227.77685422476222
0.6713210344314575	242.89407835938866
0.6734722256660461	258.9883990644492
0.6756211519241333	276.0146364401406
0.6777685880661011	293.95183480176564
0.6799154281616211	312.90162913187197
0.6820623278617859	332.9337278074567
0.6842101216316223	354.1154693970297
0.6863595843315125	376.4946024797562
0.688511312007904	400.0954658388066
0.6906660795211792	424.9038200201802
0.6928245425224304	451.11981263911053
0.6949873566627502	479.1576346679395
0.6971551775932312	508.83971742684554
0.6993286609649658	540.0244137606512
0.7015084028244019	573.1601230355205
0.7036949396133423	608.2842636680888
0.7058889269828796	645.2368377994335
0.7080909013748169	684.101406391717
0.710301399230957	725.2513219188121
0.712520956993103	768.8035244044196
0.7147500514984131	813.954308341446
0.7169892191886902	861.2278471924888
0.7192389369010925	913.1292795668622
0.7214996814727783	968.8969042242727
0.723771870136261	1026.9327373573767
0.7260559797286987	1088.0243616884763
0.7283523678779602	1152.1331281617354
0.7306615710258484	1219.8210491510815
0.7329838871955872	1291.952043989107
0.7353196740150452	1367.956780624278
0.7376693487167358	1448.9763526556164
0.7400332689285278	1535.2726068672869
0.7424117922782898	1625.890042030043
0.7448052167892456	1721.9224914400625
0.7472138404846191	1823.961033012448
0.7496379613876343	1931.9150841583603
0.7520779371261597	2045.517938291758
0.7545340061187744	2164.642140092421
0.7570064663887024	2288.4517960830085
0.7594954967498779	2412.3562559812194
0.7620013952255249	2508.2250800694114
0.7645244002342224	2516.4389899847047
0.7670646905899048	2500.7152977220917
0.7696225643157959	2637.901981041745
0.7721980810165405	2964.523093381449
0.7747915983200073	3323.0932906100393
0.7774031162261963	3585.6299021668524
0.7800329327583313	3795.004773170766
0.7826811671257019	4033.698156524874
0.7853479981422424	4296.566911116829
0.7880334854125977	4555.816225713452
0.7907378077507019	4816.5228911013855
0.7934610247612	5073.633743527605
0.7962033748626709	5363.67601645538
0.7989648580551147	5706.7096451815205
0.801745593547821	6059.6678179341825
0.8045456409454346	6415.780219915726
0.8073651194572449	6787.237655499569
0.8102040886878967	7170.01068615254
0.8130625486373901	7574.226538967933
0.8159406185150146	8015.9389864994455
0.8188382983207703	8489.549318247326
0.8217556476593018	8980.705968573711
0.8246926665306091	9502.459461222636
0.8276493549346924	10066.905845755495
0.8306257724761963	10660.15613323534
0.8336219191551208	11283.609275234534
0.8366377949714661	11941.461923599762
0.8396733403205872	12633.143975675925
0.8427285552024841	13364.31823785859
0.8458034992218018	14133.38331513166
0.8488980531692505	14949.310323704434
0.8520121574401855	15815.987689166088
0.8551458716392517	16726.633566360455
0.8582990765571594	17677.705259852424
0.8614717125892639	18662.6462810928
0.8646637797355652	19708.879728667333
0.8678751587867737	20840.19103732538
0.8711057901382446	22034.474543145505
0.8743556141853333	23289.015644771232
0.87762451171875	24613.587350215512
0.8809124231338501	26003.648270480135
0.8842192888259888	27462.7733030607
0.8875449895858765	28978.890156987
0.8908893465995789	30515.831993322194
0.894252359867096	32057.886705142373
0.8976338505744934	33675.33290637866
0.9010337591171265	35608.7461150792
0.9044519662857056	37810.888671901914
0.9078882932662964	39978.84743220351
0.9113426208496094	42128.09337262585
0.914814829826355	44342.86734522896
0.9183048605918884	46677.48229811536
0.9218124747276306	49115.335988938765
0.925337553024292	51067.59801891288
0.9288799166679382	51983.283961629895
0.9324395060539246	52356.49699821037
0.9360161423683167	54551.48991857438
0.9396095871925354	60053.75362913452
0.943219780921936	65356.14758830475
0.9468464851379395	67996.23994936826
0.9504896402359009	70726.44773405867
0.9541489481925964	74825.01546707939
0.9578243494033813	79025.14095106293
0.9615156054496765	83424.7241991108
0.9652225375175476	88868.28682752223
0.9689450263977051	94613.3261976614
0.9726828336715698	99710.97400719902
0.9764357805252075	104822.30542104071
0.9802037477493286	110528.81329277906
0.983986496925354	116542.45509740266
0.9877838492393494	122593.63842086926
0.9915955662727356	128932.77568207546
0.9954215884208679	135615.78784645235
0.9992615580558777	142350.07295958247
1.0031154155731201	149147.9767028298
1.0069829225540161	156209.16643501684
1.0108637809753418	163597.59961545293
1.0147579908370972	171286.69376075923
1.018665075302124	179274.83991914705
1.022585153579712	187563.69482150458
1.0265177488327026	196168.40674487074
1.0304628610610962	205096.60917168364
1.0344202518463135	214373.07207690907
1.0383895635604858	224013.2413637205
1.0423706769943237	234003.69329506057
1.0463634729385376	244351.8669540483
1.0503677129745483	255088.24764177392
1.0543830394744873	266222.59325407445
1.058409333229065	277858.226924483
1.0624464750289917	290288.94580093113
1.0664942264556885	303245.4283424851
1.0705522298812866	316312.2529132241
1.0746204853057861	329672.4132636371
1.0786986351013184	343484.7529986284
1.0827864408493042	357758.4505203772
1.086883783340454	372137.74077532045
1.0909905433654785	386004.30105811503
1.0951062440872192	398335.11490753933
1.0992310047149658	408749.3804649618
1.10336434841156	420548.1479771547
1.1075061559677124	435151.1364950992
1.1116561889648438	443465.6035383318
1.115814208984375	440143.917991605
1.1199802160263062	438007.50375591806
1.124153733253479	454298.07220115827
1.1283347606658936	490365.9304724037
1.1325229406356812	519585.03809833125
1.1367181539535522	542422.895332636
1.1409201622009277	571189.9771070228
1.145128846168518	586382.9539112154
1.1493438482284546	597863.9002867056
1.1535650491714478	624401.8403338904
1.1577922105789185	652504.7548171475
1.1620250940322876	676843.6400290108
1.1662636995315552	706550.2444509832
1.170507550239563	737464.9889678408
1.174756646156311	771969.1561838611
1.1790107488632202	813312.0449256641
1.1832695007324219	850912.9720276896
1.1875330209732056	885822.8857869004
1.191800832748413	922073.7346559992
1.1960728168487549	955309.1246414642
1.2003488540649414	988127.9349967988
1.2046287059783936	1024472.9323430032
1.2089121341705322	1060382.6237143583
1.2131990194320679	1094414.7664951736
1.2174891233444214	1130587.4791830892
1.2217823266983032	1168795.525211091
1.2260783910751343	1206623.8816418427
1.230377197265625	1245059.4260093262
1.2346785068511963	1285390.8928062797
1.238982081413269	1326804.6992758864
1.2432878017425537	1368364.5532462343
1.2475954294204712	1410081.5445375736
1.2519049644470215	1452025.778394062
1.256216049194336	1495456.6603319405
1.2605286836624146	1540680.0904925708
1.2648425102233887	1586086.5390543847
1.2691574096679688	1630985.0124150403
1.2734732627868652	1676549.452034682
1.2777899503707886	1723169.4436911026
1.2821072340011597	1769480.975235189
1.2864248752593994	1816389.7562222702
1.2907428741455078	1860087.0771885014
1.2950609922409058	1901255.6040447932
1.2993791103363037	1953206.4922959874
1.303696870803833	2013991.8922631994
1.3080145120620728	2071323.7257935444
1.3123314380645752	2120666.4601526484
1.3166478872299194	2163843.1047144462
1.3209635019302368	2201681.3743552375
1.3252781629562378	2240729.9759173254
1.3295916318893433	2247036.9039486805
1.3339040279388428	2126531.3499645265
1.3382149934768677	1919002.7826861737
1.3425244092941284	1785172.6602154705
1.3468321561813354	1695729.0181085493
1.3511382341384888	1555003.71777106
1.3554422855377197	1462880.0814518272
1.3597444295883179	1460729.6242985614
1.3640443086624146	1499872.4227787778
1.3683418035507202	1628566.0485931223
1.3726370334625244	1821065.6493127022
1.3769296407699585	2008296.0473984014
1.381219506263733	2102403.9688723176
1.3855066299438477	2083339.9790751936
1.3897908926010132	2040632.0101956455
1.3940720558166504	1999576.0286947314
1.3983501195907593	2021590.402650451
1.4026249647140503	2086739.413972062
1.4068963527679443	2151930.772675592
1.4111642837524414	2248134.685812632
1.4154287576675415	2229282.224537547
1.419689416885376	2090380.7651690345
1.4239463806152344	2057707.7605064907
1.4281994104385376	2213242.5905966777
1.4324485063552856	2469997.8625135142
1.436693549156189	2620504.883667422
1.440934419631958	2707557.1454059216
1.4451709985733032	2870568.0765059716
1.449403166770935	3058493.400074968
1.453631043434143	3309992.4388719276
1.4578542709350586	3606404.290300773
1.4620729684829712	3698135.1192707466
1.4662868976593018	3656333.360035333
1.4704961776733398	3753170.1819214984
1.4747005701065063	3927998.0847236514
1.4788999557495117	4115193.599137072
1.4830944538116455	4286420.595521843
1.4872838258743286	4394396.647593853
1.491468071937561	4478993.575271885
1.4956470727920532	4589370.284978222
1.4998208284378052	4719564.323625145
1.5039892196655273	4927240.070189652
1.5081522464752197	5176207.197400696
1.5123097896575928	5369365.35533811
1.5164618492126465	5540673.149735306
1.5206083059310913	5707715.438208275
1.5247491598129272	5832299.942812245
1.5288842916488647	5913701.942137165
1.5330137014389038	6051672.791931178
1.5371372699737549	6244555.06273895
1.541254997253418	6400962.480961645
1.545366883277893	6527939.309322466
1.5494728088378906	6653659.814228545
1.5535727739334106	6772978.339119749
1.5576666593551636	6890885.056043621
1.561754584312439	7012017.312971324
1.5658363103866577	7134217.637378202
1.5699119567871094	7248578.1051251255
1.5739814043045044	7363677.397169951
1.5780447721481323	7493101.606338417
1.582101821899414	7618490.108796669
1.5861525535583496	7732664.36058607
1.5901970863342285	7847796.430298032
1.5942351818084717	7965305.279135679
1.5982669591903687	8081352.638559864
1.6022924184799194	8196302.889871826
1.606311559677124	8310343.157355877
1.6103241443634033	8421698.123198327
1.6143304109573364	8532734.327274848
1.6183301210403442	8616901.376300832
1.6223233938217163	8585308.1492146
1.6263102293014526	8464869.869791875
1.6302905082702637	8383023.630746893
1.634264349937439	8453350.040545108
1.638231635093689	8810002.89062969
1.6421923637390137	9177350.450189484
1.646146535873413	9299380.472274937
1.6500942707061768	9364788.92476796
1.6540353298187256	9412279.572408315
1.6579699516296387	9480306.675096544
1.661897897720337	9418608.849065173
1.6658192873001099	8972283.95621528
1.6697341203689575	9042650.294033954
1.6736423969268799	9711921.711679395
1.677544116973877	9953109.09465364
1.6814392805099487	10000917.389337886
1.6853278875350952	10191280.78108987
1.6892099380493164	10271536.082813172
1.6930854320526123	10233243.059175473
1.696954369544983	10170598.659954278
1.7008168697357178	10059411.229714042
1.7046726942062378	10099184.90166902
1.708522081375122	10486846.050881125
1.712364912033081	10981462.169464072
1.7162011861801147	11245065.024738435
1.7200311422348022	11264619.563242111
1.723854422569275	11057154.267684205
1.7276713848114014	10746156.548338406
1.731481909751892	10664310.763635574
1.7352858781814575	10833471.024662668
1.7390835285186768	10998107.039862964
1.7428747415542603	11080002.652573219
1.7466596364974976	11196209.048431432
1.7504380941390991	11213413.760513306
1.7542102336883545	10994911.56313204
1.7579760551452637	10791802.951163763
1.7617355585098267	10742327.406449154
1.7654887437820435	10551535.95911106
1.7692357301712036	10242054.024157649
1.7729763984680176	10126288.225192547
1.776710867881775	10045680.948363837
1.7804391384124756	9847506.850066917
1.7841613292694092	9523951.324495204
1.7878772020339966	9104745.105900872
1.7915871143341064	8698454.349188063
1.7952908277511597	8642472.69377319
1.7989884614944458	8635169.442775674
1.8026801347732544	8388318.528886897
1.806365728378296	8115656.419054425
1.8100452423095703	7975621.635849098
1.8137187957763672	8476112.482225541
1.817386507987976	8854794.679322608
1.8210482597351074	8888121.422429891
1.8247040510177612	9383938.206702927
1.828354001045227	9441123.929303877
1.8319982290267944	9148872.608310869
1.8356364965438843	9019678.141633902
1.8392690420150757	8693982.595968008
1.8428958654403687	8515572.791770035
1.8465168476104736	8154983.327471374
1.8501322269439697	8139085.6975706015
1.8537418842315674	8375824.456067604
1.8573459386825562	7910899.71311002
1.860944390296936	7355269.473487488
1.864537239074707	7110243.044674133
1.8681244850158691	7175173.115205323
1.871706247329712	7546996.1437616935
1.8752825260162354	8460320.50470874
1.8788533210754395	9679228.407057453
1.8824186325073242	10397574.220871702
1.8859784603118896	10817494.956535798
1.8895330429077148	11382023.896494295
1.8930821418762207	11823372.523352943
1.8966259956359863	11863446.97182354
1.9001644849777222	11562156.843490003
1.9036977291107178	11595577.085400144
1.9072256088256836	12048799.930110622
1.9107483625411987	11902043.191863589
1.9142658710479736	11622339.945734471
1.9177782535552979	11916593.908135867
1.9212853908538818	11657978.264880477
1.9247875213623047	11375296.897096893
1.9282845258712769	11376250.469881438
1.9317764043807983	10852172.589933783
1.9352631568908691	10275944.049850304
1.9387450218200684	9468181.59639445
1.942221760749817	9245404.529005608
1.9456936120986938	9821826.470992833
1.9491604566574097	10338623.198069224
1.952622413635254	10413951.839432877
1.956079363822937	9588464.708880233
1.959531545639038	9412567.867723133
1.962978720664978	10872429.156872123
1.966421127319336	12415916.74322706
1.9698586463928223	12666296.404783277
1.9732913970947266	12468101.304673009
1.9767193794250488	12862406.917131662
1.9801424741744995	13569171.698291749
1.9835609197616577	14377981.373045897
1.9869745969772339	14525914.945600532
1.990383505821228	14011098.623644536
1.9937876462936401	14499360.215126969
1.9971871376037598	15067780.59953268
2.000581979751587	14907763.08662238
2.003972291946411	15453255.192262229
2.007357597351074	16435902.604573453
2.0107386112213135	17337717.11200372
2.0141148567199707	17765783.654092655
2.017486572265625	17771125.273090556
2.0208535194396973	18468721.443031244
2.0242159366607666	19127963.526006695
2.027573823928833	18715866.25417407
2.0309269428253174	18490558.927399766
2.034275770187378	19108307.189493537
2.0376198291778564	19534446.64336704
2.040959596633911	19592581.458728176
2.044294595718384	20113164.310840413
2.0476250648498535	20665671.889024347
2.0509510040283203	20810576.24998527
2.054272413253784	21094042.151532423
2.057589530944824	21473118.598054323
2.0609018802642822	21642827.154551666
2.0642096996307373	21712603.047589477
2.0675129890441895	21889313.772130057
2.0708119869232178	22124335.749551285
2.074106216430664	22371943.77155993
2.0773961544036865	22408616.90517031
2.080681324005127	22283690.38177773
2.0839622020721436	22395404.63220414
2.087238311767578	22674415.22533183
2.090510129928589	22981594.93307333
2.0937774181365967	23260052.681223087
2.0970399379730225	23378439.94961639
2.1002981662750244	23450032.07628328
2.1035518646240234	23583844.48834531
2.1068007946014404	23687621.002875265
2.1100454330444336	23656084.392260384
2.1132853031158447	23619591.368253518
2.116520881652832	23755117.046886053
2.1197516918182373	23992289.8787991
2.1229779720306396	24137373.35484003
2.12619948387146	24188089.525900487
2.1294167041778564	24305740.74912843
2.132629156112671	24465483.936970714
2.1358368396759033	24564560.604840875
2.139039993286133	24613033.114977457
2.1422386169433594	24659364.638177663
2.145432472229004	24667065.90421329
2.1486217975616455	24622769.03086625
2.151806354522705	24604635.77886586
2.1549863815307617	24605430.651016235
2.1581614017486572	24739234.440750908
2.16133189201355	24933517.615038488
2.1644976139068604	25068831.216547806
2.167658567428589	25193138.8405233
2.1708147525787354	25219974.136449616
2.173966407775879	25210941.406944495
2.1771130561828613	25330526.14453013
2.1802549362182617	25480161.441232294
2.183391809463501	25479462.69260626
2.1865241527557373	25490176.392017033
2.1896514892578125	25620439.156310897
2.1927738189697266	25690444.72433083
2.1958916187286377	25217621.333254322
2.1990041732788086	23917041.20739574
2.2021119594573975	23160539.441346064
2.2052149772644043	24041614.60980887
2.208312749862671	25383001.61429602
2.2114057540893555	26009316.154377554
2.214493751525879	25880572.06069979
2.217576742172241	24747139.513490476
2.2206547260284424	22902381.06423027
2.2237277030944824	22037356.960573915
2.2267956733703613	21971650.878916822
2.2298583984375	21790854.395137332
2.2329163551330566	22022580.552011397
2.235969066619873	22577788.88582228
2.2390167713165283	23147324.05051366
2.2420592308044434	22656849.096445654
2.2450966835021973	21172195.79364053
2.248128890991211	20881684.43779963
2.2511560916900635	21330081.258251537
2.254178285598755	21276206.254776306
2.257194995880127	21994817.247637764
2.260206699371338	23492519.27141259
2.2632133960723877	23928864.087479305
2.266214609146118	23078833.614189904
2.2692108154296875	22548186.020370144
2.2722020149230957	23190267.61300706
2.2751877307891846	23518094.199773587
2.278168201446533	22860844.296457056
2.2811436653137207	22112057.85040146
2.284113883972168	21369871.71843909
2.287078857421875	20671360.20717342
2.290038824081421	20039166.96511907
2.2929933071136475	19135709.826521683
2.295942783355713	18665091.828704655
2.298887014389038	19610579.38154465
2.301826238632202	21101195.51655042
2.304760217666626	22077594.549915485
2.3076889514923096	23093226.36607442
2.310612440109253	24541600.848467108
2.3135311603546143	24056912.85656578
2.3164443969726562	19803322.789555185
2.319352865219116	17140871.2353745
2.322256088256836	19065038.622143105
2.3251543045043945	21282415.300015572
2.328047275543213	22286740.557866078
2.330935478210449	22323455.428301588
2.3338186740875244	21340383.94173045
2.3366971015930176	19588296.545440074
2.3395702838897705	18077600.78481039
2.3424389362335205	17833822.310235128
2.3453025817871094	17595364.756335918
2.348161458969116	17308535.044465106
2.351015567779541	17265927.278627954
2.353865146636963	18315083.553759046
2.3567099571228027	20756323.27504065
2.3595502376556396	22597728.807829257
2.3623859882354736	23601837.790626664
2.3652172088623047	23878993.11324098
2.368043899536133	20989467.184743173
2.370866537094116	16085737.544372758
2.3736846446990967	14817952.658641852
2.3764986991882324	16723186.246684667
2.3793084621429443	19059669.420723345
2.3821144104003906	20653453.618916508
2.384916305541992	20863926.254680533
2.387714147567749	21694816.758715477
2.3905084133148193	22626208.137870777
2.393299102783203	21506339.94469316
2.3960859775543213	19858560.75230556
2.398869514465332	19366877.498359688
2.4016497135162354	18803400.817867976
2.4044265747070312	18083944.761186916
2.407200336456299	18639210.427880585
2.409970998764038	19696440.57090536
2.4127390384674072	20301356.371120147
2.415503978729248	19584971.187520254
2.418266534805298	17726774.329668798
2.4210267066955566	17482852.115952365
2.4237842559814453	18323501.856366586
2.426539897918701	18163512.13825735
2.429293394088745	18875994.12003086
2.4320452213287354	19744669.365090895
2.4347951412200928	17509362.397812095
2.4375438690185547	16701688.588775825
2.440291166305542	18898034.404391315
2.443037271499634	18514792.128340945
2.445782423019409	17179596.21230681
2.4485268592834473	17733023.176146228
2.451270818710327	16744309.357480083
2.454014539718628	15434774.7814211
2.4567582607269287	17124986.986589197
2.4595019817352295	17831494.384845387
2.4622461795806885	17805837.918393195
2.4649908542633057	18183893.041816864
2.4677364826202393	15672601.48726521
2.4704833030700684	13258806.21354335
2.473231554031372	12634141.964987997
2.4759814739227295	13148100.256544061
2.4787333011627197	14282892.384337401
