#wavelength	surface flux
0.6450077295303345	16889.665571189016
0.6472567915916443	25560.559500109608
0.6494921445846558	31014.17440556757
0.6517150402069092	32716.146567320706
0.6539263725280762	34183.61147872553
0.6561272740364075	35464.4558396777
0.6583186388015747	36978.557128042434
0.6605015397071838	39042.980121927474
0.6626768708229065	41088.15867010442
0.6648455858230591	42947.79012477051
0.6670085787773132	44766.93396049379
0.6691668033599854	46198.213776208424
0.6713210344314575	47730.83673482701
0.6734722256660461	50266.40237875041
0.6756211519241333	52913.54325267382
0.6777685880661011	55005.93354029073
0.6799154281616211	57052.26976887585
0.6820623278617859	58996.09425084628
0.6842101216316223	60758.75105743992
0.6863595843315125	62146.80201976407
0.688511312007904	63017.675681333836
0.6906660795211792	64730.51528290615
0.6928245425224304	68074.34846475888
0.6949873566627502	71885.87537002945
0.6971551775932312	75047.33725101373
0.6993286609649658	78138.79304725045
0.7015084028244019	82537.24467146213
0.7036949396133423	87596.67059267987
0.7058889269828796	92048.59190806276
0.7080909013748169	95911.64050557523
0.710301399230957	99638.74951323861
0.712520956993103	103502.20842575924
0.7147500514984131	107428.54457300414
0.7169892191886902	111461.74635874672
0.7192389369010925	115752.95499795438
0.7214996814727783	120241.05743597465
0.723771870136261	124870.61675247196
0.7260559797286987	129620.63139172876
0.7283523678779602	134460.95517081761
0.7306615710258484	139313.11896314615
0.7329838871955872	143554.95193482848
0.7353196740150452	147289.10249080707
0.7376693487167358	151453.50167034828
0.7400332689285278	155750.53081650485
0.7424117922782898	160145.51393906304
0.7448052167892456	165214.74865410905
0.7472138404846191	171433.904416716
0.7496379613876343	178459.35375621426
0.7520779371261597	184948.12666134792
0.7545340061187744	190338.3261451218
0.7570064663887024	193078.49136338834
0.7594954967498779	188269.4050856595
0.7620013952255249	163110.25871786475
0.7645244002342224	108069.11500195967
0.7670646905899048	55694.3974015487
0.7696225643157959	53921.496255403545
0.7721980810165405	113031.30273327649
0.7747915983200073	192464.7200476359
0.7774031162261963	238771.8048188449
0.7800329327583313	254534.70977429033
0.7826811671257019	276576.7974348124
0.7853479981422424	303555.83291799366
0.7880334854125977	320621.77210882877
0.7907378077507019	330801.61365252145
0.7934610247612	332755.11086417426
0.7962033748626709	341820.9407301791
0.7989648580551147	366102.6996696161
0.801745593547821	387729.05042452493
0.8045456409454346	403508.0802136441
0.8073651194572449	419672.83731962665
0.8102040886878967	436326.0327080408
0.8130625486373901	453322.07631451567
0.8159406185150146	470876.9904775324
0.8188382983207703	488902.0765995193
0.8217556476593018	507116.01121918025
0.8246926665306091	525922.3447664335
0.8276493549346924	545660.9220750307
0.8306257724761963	566059.1157288029
0.8336219191551208	587079.1902876796
0.8366377949714661	608722.5718908391
0.8396733403205872	630991.1766345971
0.8427285552024841	654032.4455797755
0.8458034992218018	677779.4577334257
0.8488980531692505	702167.5650036092
0.8520121574401855	726447.7924076065
0.8551458716392517	750799.1832967696
0.8582990765571594	775460.6292766477
0.8614717125892639	799574.2754751623
0.8646637797355652	825309.6722036115
0.8678751587867737	854976.5140631176
0.8711057901382446	887827.7157094899
0.8743556141853333	922589.3866979216
0.87762451171875	958294.3895682289
0.8809124231338501	994257.4282661381
0.8842192888259888	1030569.4108052413
0.8875449895858765	1067474.8782002332
0.8908893465995789	1104086.290172188
0.894252359867096	1140703.3668687355
0.8976338505744934	1178993.4845281772
0.9010337591171265	1221192.7670398578
0.9044519662857056	1266249.6647547225
0.9078882932662964	1310722.9745067756
0.9113426208496094	1355021.8179963196
0.914814829826355	1400023.705776255
0.9183048605918884	1446334.6792435115
0.9218124747276306	1493280.6335055265
0.925337553024292	1531691.4805537558
0.9288799166679382	1557850.0077664189
0.9324395060539246	1583019.0490577272
0.9360161423683167	1630430.4187559418
0.9396095871925354	1714254.8485873437
0.943219780921936	1796370.0703180784
0.9468464851379395	1847742.6502257714
0.9504896402359009	1898083.4375495254
0.9541489481925964	1961784.1822198345
0.9578243494033813	2025877.7885208344
0.9615156054496765	2092146.6068426676
0.9652225375175476	2170512.1025435994
0.9689450263977051	2251965.6058361116
0.9726828336715698	2325787.619883542
0.9764357805252075	2399322.9773685783
0.9802037477493286	2477514.4012319515
0.983986496925354	2557015.354373504
0.9877838492393494	2636200.7245677095
0.9915955662727356	2718998.018658955
0.9954215884208679	2804903.8161254344
0.9992615580558777	2889464.946393217
1.0031154155731201	2974527.474627604
1.0069829225540161	3063206.4479759727
1.0108637809753418	3154740.377221674
1.0147579908370972	3247947.1823557713
1.018665075302124	3342562.236674107
1.022585153579712	3439163.3936834396
1.0265177488327026	3538129.400560561
1.0304628610610962	3638644.3932081913
1.0344202518463135	3740892.2210449446
1.0383895635604858	3845487.300196936
1.0423706769943237	3952071.9341356265
1.0463634729385376	4060038.8217992005
1.0503677129745483	4169895.7347805887
1.0543830394744873	4282189.254399765
1.058409333229065	4397750.110860269
1.0624464750289917	4519312.938697755
1.0664942264556885	4644252.77035381
1.0705522298812866	4768433.7322349725
1.0746204853057861	4893537.40042476
1.0786986351013184	5020766.056505365
1.0827864408493042	5149511.8657761
1.086883783340454	5276988.671310213
1.0909905433654785	5398014.695394234
1.0951062440872192	5503739.532752723
1.0992310047149658	5596549.899445953
1.10336434841156	5708518.252890388
1.1075061559677124	5845858.142191987
1.1116561889648438	5935756.924787356
1.115814208984375	5948566.609864554
1.1199802160263062	5967538.278607087
1.124153733253479	6102046.032427483
1.1283347606658936	6365533.952658254
1.1325229406356812	6576060.215518053
1.1367181539535522	6731374.710036568
1.1409201622009277	6929941.953499488
1.145128846168518	7062535.150572023
1.1493438482284546	7183208.357634643
1.1535650491714478	7392022.643413761
1.1577922105789185	7580388.255062013
1.1620250940322876	7720291.488162468
1.1662636995315552	7900611.109933509
1.170507550239563	8094540.308592587
1.174756646156311	8298670.19936072
1.1790107488632202	8545669.217041751
1.1832695007324219	8774562.365126787
1.1875330209732056	8984159.289424838
1.191800832748413	9207327.695289956
1.1960728168487549	9414971.49923701
1.2003488540649414	9614139.662333967
1.2046287059783936	9826455.652532343
1.2089121341705322	10033137.785523407
1.2131990194320679	10230595.617649317
1.2174891233444214	10433522.943012698
1.2217823266983032	10642942.477034269
1.2260783910751343	10851661.445576504
1.230377197265625	11060099.38128836
1.2346785068511963	11273439.48794118
1.238982081413269	11489606.13586515
1.2432878017425537	11704001.523230014
1.2475954294204712	11916933.862725971
1.2519049644470215	12128229.05495319
1.256216049194336	12344022.346059328
1.2605286836624146	12565822.558145966
1.2648425102233887	12785798.010412194
1.2691574096679688	13002530.351022858
1.2734732627868652	13221079.26710938
1.2777899503707886	13441990.826316923
1.2821072340011597	13659289.329888243
1.2864248752593994	13877120.175028412
1.2907428741455078	14081880.564743824
1.2950609922409058	14274640.464195529
1.2993791103363037	14506851.000254568
1.303696870803833	14771645.059347318
1.3080145120620728	15016873.104265105
1.3123314380645752	15230711.952677904
1.3166478872299194	15428462.821345855
1.3209635019302368	15603009.748095369
1.3252781629562378	15764901.98815767
1.3295916318893433	15759503.723809049
1.3339040279388428	15167301.330010526
1.3382149934768677	14260674.382415123
1.3425244092941284	13692595.60337916
1.3468321561813354	13319076.29904317
1.3511382341384888	12807875.346805792
1.3554422855377197	12488568.666138321
1.3597444295883179	12634274.72837353
1.3640443086624146	13017000.571860785
1.3683418035507202	13715054.910328722
1.3726370334625244	14632711.207446827
1.3769296407699585	15481275.14787684
1.381219506263733	15922909.44222508
1.3855066299438477	15746343.742726598
1.3897908926010132	15329380.244282883
1.3940720558166504	15091479.1830767
1.3983501195907593	15326706.6228799
1.4026249647140503	15632850.778614469
1.4068963527679443	15897755.672629109
1.4111642837524414	16291052.458719121
1.4154287576675415	15965522.11252812
1.419689416885376	15178044.149048112
1.4239463806152344	15031990.270466112
1.4281994104385376	15697431.747154957
1.4324485063552856	16975376.06934159
1.436693549156189	17769574.321758118
1.440934419631958	18006458.44160447
1.4451709985733032	18554161.778888553
1.449403166770935	19095082.00104479
1.453631043434143	19678745.48794508
1.4578542709350586	20542213.716637928
1.4620729684829712	20951255.606104232
1.4662868976593018	20987966.79779171
1.4704961776733398	21428984.22229647
1.4747005701065063	22009378.79427952
1.4788999557495117	22539574.508665975
1.4830944538116455	22983666.085461088
1.4872838258743286	23216800.917397395
1.491468071937561	23462224.911568202
1.4956470727920532	23823301.51521534
1.4998208284378052	24203586.90188379
1.5039892196655273	24790999.49818706
1.5081522464752197	25450916.468449887
1.5123097896575928	25944920.89335644
1.5164618492126465	26419079.699363336
1.5206083059310913	26877442.68695075
1.5247491598129272	27165591.54547696
1.5288842916488647	27302322.18233618
1.5330137014389038	27637214.76446184
1.5371372699737549	28181584.471364
1.541254997253418	28619843.240888584
1.545366883277893	28937081.982818477
1.5494728088378906	29253960.357405774
1.5535727739334106	29560217.763524517
1.5576666593551636	29833896.073168937
1.561754584312439	30110558.228766948
1.5658363103866577	30414277.289500523
1.5699119567871094	30697014.848540507
1.5739814043045044	30976606.967401944
1.5780447721481323	31295774.081164207
1.582101821899414	31600153.87224784
1.5861525535583496	31875595.918841116
1.5901970863342285	32147456.572004817
1.5942351818084717	32418627.644825023
1.5982669591903687	32684018.62177149
1.6022924184799194	32942374.044581156
1.606311559677124	33190701.073174905
1.6103241443634033	33433613.44457132
1.6143304109573364	33685487.53880444
1.6183301210403442	33920150.93678881
1.6223233938217163	34026721.98095825
1.6263102293014526	34007165.0152777
1.6302905082702637	33982843.80658828
1.634264349937439	34058925.01185993
1.638231635093689	34565029.94026537
1.6421923637390137	35206374.41931943
1.646146535873413	35533180.0500157
1.6500942707061768	35762488.85972323
1.6540353298187256	35929584.39899383
1.6579699516296387	36092182.212675996
1.661897897720337	36064853.07305187
1.6658192873001099	35615673.28607425
1.6697341203689575	35837797.212630026
1.6736423969268799	36723536.919354856
1.677544116973877	37098335.12096703
1.6814392805099487	37290543.89688845
1.6853278875350952	37630168.530604325
1.6892099380493164	37831312.38608428
1.6930854320526123	37901755.32526665
1.696954369544983	37984460.60366374
1.7008168697357178	38082204.48385138
1.7046726942062378	38276682.58589034
1.708522081375122	38685015.97513238
1.712364912033081	39137666.49529166
1.7162011861801147	39364514.346798696
1.7200311422348022	39418957.43701773
1.723854422569275	39274899.12831297
1.7276713848114014	38881851.59651117
1.731481909751892	38594660.84822881
1.7352858781814575	38541825.21432279
1.7390835285186768	38598440.5933079
1.7428747415542603	38805817.11911155
1.7466596364974976	39256306.7397725
1.7504380941390991	39336811.39032655
1.7542102336883545	38723321.54875235
1.7579760551452637	38366830.0229734
1.7617355585098267	38371677.884578854
1.7654887437820435	37746154.1533198
1.7692357301712036	36948255.808496304
1.7729763984680176	36857549.40052284
1.776710867881775	36853889.778428525
1.7804391384124756	36516165.30330308
1.7841613292694092	36026709.20906479
1.7878772020339966	34956140.80659027
1.7915871143341064	33706549.924555965
1.7952908277511597	33333661.707635093
1.7989884614944458	32782928.542356297
1.8026801347732544	32261699.429435156
1.806365728378296	31808714.26395367
1.8100452423095703	31514968.96703747
1.8137187957763672	33156766.237121124
1.817386507987976	34521516.32847404
1.8210482597351074	34821186.03443185
1.8247040510177612	35556766.74668809
1.828354001045227	35498858.57485926
1.8319982290267944	35740634.012749985
1.8356364965438843	36445877.54984414
1.8392690420150757	35538612.337888986
1.8428958654403687	34045953.01248066
1.8465168476104736	32581126.869132377
1.8501322269439697	32458164.53967641
1.8537418842315674	32614581.4464561
1.8573459386825562	31120521.87315727
1.860944390296936	30042790.10460778
1.864537239074707	30186448.62664745
1.8681244850158691	30873244.289350078
1.871706247329712	31552658.45102898
1.8752825260162354	33152447.66825046
1.8788533210754395	35736742.58112386
1.8824186325073242	37181112.515910715
1.8859784603118896	37940620.24211589
1.8895330429077148	39243812.738645814
1.8930821418762207	40082729.76768238
1.8966259956359863	40110742.471537545
1.9001644849777222	39579564.69891857
1.9036977291107178	39732147.961189665
1.9072256088256836	40632052.083492495
1.9107483625411987	40294098.74746468
1.9142658710479736	40004543.84081563
1.9177782535552979	39930052.988134004
1.9212853908538818	38199928.02866564
1.9247875213623047	38040305.129437685
1.9282845258712769	39572326.44856945
1.9317764043807983	39077948.974836886
1.9352631568908691	37423359.200694725
1.9387450218200684	35431669.01329691
1.942221760749817	34242675.39145251
1.9456936120986938	34648545.848368496
1.9491604566574097	35706110.6810835
1.952622413635254	35829485.44658012
1.956079363822937	33968398.34863301
1.959531545639038	33767382.143091574
1.962978720664978	37255923.56285408
1.966421127319336	40542361.384731114
1.9698586463928223	40790725.336811125
1.9732913970947266	39991075.0377135
1.9767193794250488	40442258.74548592
1.9801424741744995	41924783.8432942
1.9835609197616577	43275838.162627004
1.9869745969772339	42845970.97887773
1.990383505821228	41386924.649615236
1.9937876462936401	42443301.749828085
1.9971871376037598	43750195.57422858
2.000581979751587	43347891.308662914
2.003972291946411	44089612.48393985
2.007357597351074	45563796.957067214
2.0107386112213135	46862708.415591255
2.0141148567199707	47531402.64131255
2.017486572265625	47493778.34207678
2.0208535194396973	48449171.594967954
2.0242159366607666	49454501.65018843
2.027573823928833	48679990.42867801
2.0309269428253174	48381967.174667016
2.034275770187378	49667743.77307893
2.0376198291778564	50480730.92356762
2.040959596633911	50570035.87409123
2.044294595718384	51206736.13226474
2.0476250648498535	52027306.06011206
2.0509510040283203	52476102.39181574
2.054272413253784	52973166.2506933
2.057589530944824	53560651.69118154
2.0609018802642822	53787411.265840866
2.0642096996307373	53751871.85994404
2.0675129890441895	54135147.76868893
2.0708119869232178	54658031.57578209
2.074106216430664	54934520.518996954
2.0773961544036865	54934567.11325459
2.080681324005127	54752567.05663409
2.0839622020721436	54842586.48541295
2.087238311767578	55254698.86505302
2.090510129928589	55729183.75600135
2.0937774181365967	56088996.66773573
2.0970399379730225	56235570.05182347
2.1002981662750244	56326182.44868098
2.1035518646240234	56490731.97807747
2.1068007946014404	56660738.60556985
2.1100454330444336	56684817.92270448
2.1132853031158447	56683796.06303799
2.116520881652832	56827618.506707735
2.1197516918182373	57078258.88959584
2.1229779720306396	57240920.48684747
2.12619948387146	57294500.76277547
2.1294167041778564	57428490.73108536
2.132629156112671	57606633.72054302
2.1358368396759033	57716032.66745248
2.139039993286133	57759464.31020039
2.1422386169433594	57813166.31455987
2.145432472229004	57834206.818405874
2.1486217975616455	57820944.16407325
2.151806354522705	57892104.81053599
2.1549863815307617	57947252.84580076
2.1581614017486572	58081319.72111267
2.16133189201355	58293424.71271501
2.1644976139068604	58393663.24339961
2.167658567428589	58460573.02031829
2.1708147525787354	58480879.79801578
2.173966407775879	58458394.426959746
2.1771130561828613	58547217.51382824
2.1802549362182617	58695937.50842545
2.183391809463501	58697326.90302739
2.1865241527557373	58692643.200957745
2.1896514892578125	58841182.08293563
2.1927738189697266	58908267.381191485
2.1958916187286377	58659990.433713995
2.1990041732788086	58119529.72548771
2.2021119594573975	57875499.11031693
2.2052149772644043	58348955.72625908
2.208312749862671	58999754.74200104
2.2114057540893555	59298737.77245041
2.214493751525879	59208358.410783395
2.217576742172241	58408685.1245901
2.2206547260284424	57120141.275255986
2.2237277030944824	56685267.2501811
2.2267956733703613	56840774.286121555
2.2298583984375	56833299.579536445
2.2329163551330566	56932103.21121584
2.235969066619873	56996008.23880803
2.2390167713165283	57382380.25163094
2.2420592308044434	57386797.21781661
2.2450966835021973	56607976.947102085
2.248128890991211	56552563.22875031
2.2511560916900635	56664436.97696249
2.254178285598755	56045208.57304492
2.257194995880127	56404616.21059616
2.260206699371338	57826086.804988004
2.2632133960723877	58250939.02467344
2.266214609146118	57611542.57806739
2.2692108154296875	57219907.76924669
2.2722020149230957	57760581.6273189
2.2751877307891846	58323752.40700101
2.278168201446533	57910186.48078874
2.2811436653137207	57142384.59842749
2.284113883972168	56490546.47257084
2.287078857421875	55905876.338664025
2.290038824081421	55343294.799433984
2.2929933071136475	53527393.93304725
2.295942783355713	51867181.972369604
2.298887014389038	52592592.71307032
2.301826238632202	53100924.61500412
2.304760217666626	52179927.70110795
2.3076889514923096	52842791.21931916
2.310612440109253	55130329.59650056
2.3135311603546143	55290107.62503567
2.3164443969726562	52575576.749097876
2.319352865219116	50495956.12731244
2.322256088256836	50252183.858747296
2.3251543045043945	50823302.69548116
2.328047275543213	52436358.41568862
2.330935478210449	53765107.07986241
2.3338186740875244	53401483.76314031
2.3366971015930176	51751096.1867467
2.3395702838897705	51037398.008521706
2.3424389362335205	51469477.97604486
2.3453025817871094	50464153.80305627
2.348161458969116	49191440.34935791
2.351015567779541	48135909.24710393
2.353865146636963	48426512.54119493
2.3567099571228027	51163282.392570406
2.3595502376556396	52695773.822772466
2.3623859882354736	53103922.727125555
2.3652172088623047	53429142.10911912
2.368043899536133	50959174.161119066
2.370866537094116	47321541.0642022
2.3736846446990967	47340781.79462447
2.3764986991882324	48939350.878802255
2.3793084621429443	49506557.40090996
2.3821144104003906	50479318.836879715
2.384916305541992	51354950.423694864
2.387714147567749	52265008.69839827
2.3905084133148193	52618232.566886686
2.393299102783203	50838953.388250574
2.3960859775543213	50081390.806836054
2.398869514465332	51000764.96307525
2.4016497135162354	50350925.23634947
2.4044265747070312	49583022.55580897
2.407200336456299	50254352.433719784
2.409970998764038	50860624.376919135
2.4127390384674072	51080580.65002743
2.415503978729248	50187622.89351892
2.418266534805298	48302137.61600141
2.4210267066955566	48165210.60662758
2.4237842559814453	49294936.02033313
2.426539897918701	49517971.89098695
2.429293394088745	49674358.62949259
2.4320452213287354	48522901.82976809
2.4347951412200928	44126814.07506867
2.4375438690185547	42928970.185436524
2.440291166305542	45780131.78878904
2.443037271499634	45348960.453221604
2.445782423019409	44191968.13434169
2.4485268592834473	45707342.562911324
2.451270818710327	44381488.499139495
2.454014539718628	41349519.11498
2.4567582607269287	43247987.1814142
2.4595019817352295	44271129.99565398
2.4622461795806885	44193547.55750715
2.4649908542633057	44644615.229115196
2.4677364826202393	40576466.40864793
2.4704833030700684	37353925.512329675
2.473231554031372	35572758.199917555
2.4759814739227295	35599627.832189046
2.4787333011627197	38177245.91252846
2.481487512588501	38125643.078231156
