#wavelength	surface flux
0.6450077295303345	2630.116777302647
0.6472567915916443	3991.595685244654
0.6494921445846558	4868.2359615929845
0.6517150402069092	5166.371386301731
0.6539263725280762	5442.985116815361
0.6561272740364075	5734.153938632148
0.6583186388015747	6039.092511835961
0.6605015397071838	6358.041784244953
0.6626768708229065	6689.179731620257
0.6648455858230591	7031.573199792846
0.6670085787773132	7377.381499046132
0.6691668033599854	7680.487602224544
0.6713210344314575	8002.982847576833
0.6734722256660461	8461.288236055307
0.6756211519241333	8949.567289078786
0.6777685880661011	9389.705360473645
0.6799154281616211	9836.314536167265
0.6820623278617859	10294.697114568547
0.6842101216316223	10762.292368580334
0.6863595843315125	11228.733469749704
0.688511312007904	11688.559404802787
0.6906660795211792	12188.527528838564
0.6928245425224304	12763.657897241594
0.6949873566627502	13375.480172339036
0.6971551775932312	13976.776578969571
0.6993286609649658	14620.068983787136
0.7015084028244019	15378.811107012698
0.7036949396133423	16169.9958234781
0.7058889269828796	16929.40278887476
0.7080909013748169	17695.28257776024
0.710301399230957	18487.6917573005
0.712520956993103	19312.339269927823
0.7147500514984131	20162.24994271827
0.7169892191886902	21047.12160129625
0.7192389369010925	21987.551932866925
0.7214996814727783	22970.892300767395
0.723771870136261	23987.87208589693
0.7260559797286987	25046.361455393017
0.7283523678779602	26144.174179915255
0.7306615710258484	27278.997125946666
0.7329838871955872	28422.02884783054
0.7353196740150452	29577.24276937354
0.7376693487167358	30805.553146187052
0.7400332689285278	32095.737249913735
0.7424117922782898	33436.832206778345
0.7448052167892456	34870.0216187363
0.7472138404846191	36436.5715570251
0.7496379613876343	38118.67375057221
0.7520779371261597	39850.36941450301
0.7545340061187744	41637.54126120224
0.7570064663887024	43475.51025200488
0.7594954967498779	45306.33243224462
0.7620013952255249	46450.46104667071
0.7645244002342224	44431.73178658509
0.7670646905899048	40963.803830624754
0.7696225643157959	42520.910856625684
0.7721980810165405	49781.328571520266
0.7747915983200073	56929.96592062205
0.7774031162261963	60780.51554376181
0.7800329327583313	63201.41533421371
0.7826811671257019	66103.612278216
0.7853479981422424	69337.66543188892
0.7880334854125977	72408.17643187488
0.7907378077507019	75327.96184916429
0.7934610247612	77931.08602094068
0.7962033748626709	81057.54865972491
0.7989648580551147	85121.27005026971
0.801745593547821	89150.5391092119
0.8045456409454346	93010.78260541282
0.8073651194572449	97017.25756262752
0.8102040886878967	101161.6922536589
0.8130625486373901	105475.78610619983
0.8159406185150146	109991.15691726965
0.8188382983207703	114685.15799850681
0.8217556476593018	119535.19138321052
0.8246926665306091	124582.00800440108
0.8276493549346924	129873.69354301042
0.8306257724761963	135388.28690639345
0.8336219191551208	141112.93809914228
0.8366377949714661	147047.1556962963
0.8396733403205872	153203.44988483732
0.8427285552024841	159606.78416097083
0.8458034992218018	166248.8212073644
0.8488980531692505	173162.91609813564
0.8520121574401855	180314.34629327687
0.8551458716392517	187692.84883274764
0.8582990765571594	195350.9869489935
0.8614717125892639	203267.51532903177
0.8646637797355652	211494.15609718105
0.8678751587867737	220159.33687557376
0.8711057901382446	229300.73812684734
0.8743556141853333	238832.69052737282
0.87762451171875	248697.57334695445
0.8809124231338501	258864.02123021294
0.8842192888259888	269347.7374222462
0.8875449895858765	280153.8807211665
0.8908893465995789	291150.8102784541
0.894252359867096	302393.4105564633
0.8976338505744934	314113.624736065
0.9010337591171265	326792.1085703677
0.9044519662857056	340290.34279632836
0.9078882932662964	353925.62077224883
0.9113426208496094	367754.0951154937
0.914814829826355	381911.58789699175
0.9183048605918884	396527.5396440416
0.9218124747276306	411543.37183724996
0.925337553024292	425323.3177464183
0.9288799166679382	437059.6426936103
0.9324395060539246	448124.7392344126
0.9360161423683167	463254.71381935186
0.9396095871925354	487014.7896372206
0.943219780921936	511319.1759720124
0.9468464851379395	528868.92235179
0.9504896402359009	546521.6560330623
0.9541489481925964	567488.4765505729
0.9578243494033813	588604.1713765187
0.9615156054496765	610571.3591015106
0.9652225375175476	635848.4007695895
0.9689450263977051	662075.8638194939
0.9726828336715698	686564.5839351469
0.9764357805252075	711396.7067940723
0.9802037477493286	737647.6441415756
0.983986496925354	764274.4643252357
0.9877838492393494	791179.4457072206
0.9915955662727356	819398.8678889757
0.9954215884208679	848757.7225742926
0.9992615580558777	878325.4067970485
1.0031154155731201	908279.5806261284
1.0069829225540161	939203.7573044418
1.0108637809753418	971157.1821719332
1.0147579908370972	1003985.8219931765
1.018665075302124	1037677.1861552909
1.022585153579712	1072260.7889395193
1.0265177488327026	1107698.6547511877
1.0304628610610962	1143904.6461218863
1.0344202518463135	1181052.0273608968
1.0383895635604858	1219216.2482795806
1.0423706769943237	1258297.3553005212
1.0463634729385376	1298299.8558014894
1.0503677129745483	1339217.2015260388
1.0543830394744873	1381107.8628389854
1.058409333229065	1424371.8332176157
1.0624464750289917	1469715.6945726417
1.0664942264556885	1516375.3839499862
1.0705522298812866	1563202.994029224
1.0746204853057861	1610573.8755446998
1.0786986351013184	1658989.1812707614
1.0827864408493042	1708473.3830994265
1.086883783340454	1758309.8092548538
1.0909905433654785	1807491.2144179444
1.0951062440872192	1853734.8006753558
1.0992310047149658	1897510.609464005
1.10336434841156	1948828.7748346895
1.1075061559677124	2008898.6612617434
1.1116561889648438	2052916.5158976312
1.115814208984375	2071967.012087443
1.1199802160263062	2093350.7190781883
1.124153733253479	2147757.5958489
1.1283347606658936	2239739.6705838456
1.1325229406356812	2321390.566624713
1.1367181539535522	2385237.4351802496
1.1409201622009277	2457134.4676863384
1.145128846168518	2513808.9583496638
1.1493438482284546	2572481.9401017246
1.1535650491714478	2659247.9232298066
1.1577922105789185	2735708.5049609267
1.1620250940322876	2791903.7850599964
1.1662636995315552	2863076.3953800844
1.170507550239563	2943042.6692913617
1.174756646156311	3025302.4492039266
1.1790107488632202	3119213.21822002
1.1832695007324219	3207077.988723442
1.1875330209732056	3291210.1923004687
1.191800832748413	3381292.5338966525
1.1960728168487549	3465717.9866127465
1.2003488540649414	3547753.8414267898
1.2046287059783936	3635164.400899234
1.2089121341705322	3721972.7210238623
1.2131990194320679	3806911.161615475
1.2174891233444214	3894528.2100074594
1.2217823266983032	3984639.2786353435
1.2260783910751343	4075132.460936997
1.230377197265625	4166655.9572341694
1.2346785068511963	4260411.685538826
1.238982081413269	4355141.754278679
1.2432878017425537	4449862.987454811
1.2475954294204712	4545368.589729669
1.2519049644470215	4641217.02885264
1.256216049194336	4738785.216470445
1.2605286836624146	4838486.179749822
1.2648425102233887	4938353.338978476
1.2691574096679688	5038081.094659924
1.2734732627868652	5139127.427841613
1.2777899503707886	5241813.715081341
1.2821072340011597	5344146.112446924
1.2864248752593994	5446613.999584881
1.2907428741455078	5545586.503731612
1.2950609922409058	5641658.484432201
1.2993791103363037	5750732.696441938
1.303696870803833	5870698.931480645
1.3080145120620728	5984846.924620042
1.3123314380645752	6091233.417353033
1.3166478872299194	6192823.87503329
1.3209635019302368	6285282.530508036
1.3252781629562378	6381889.566559158
1.3295916318893433	6451722.877688684
1.3339040279388428	6378877.030009966
1.3382149934768677	6221089.396273307
1.3425244092941284	6107920.343877402
1.3468321561813354	6038806.857872657
1.3511382341384888	5920286.833626162
1.3554422855377197	5846823.518179973
1.3597444295883179	5990708.716677419
1.3640443086624146	6184751.319382297
1.3683418035507202	6379147.404111356
1.3726370334625244	6658381.533458466
1.3769296407699585	6998489.534353973
1.381219506263733	7232860.766669276
1.3855066299438477	7183960.286594368
1.3897908926010132	7046326.088974654
1.3940720558166504	7055404.229805013
1.3983501195907593	7230035.348160227
1.4026249647140503	7362272.050789697
1.4068963527679443	7484023.0370945735
1.4111642837524414	7674201.035823137
1.4154287576675415	7545380.554612176
1.419689416885376	7265576.87406966
1.4239463806152344	7278185.784536681
1.4281994104385376	7583289.061051464
1.4324485063552856	8145278.5036052205
1.436693549156189	8517278.513098119
1.440934419631958	8609914.488341425
1.4451709985733032	8844636.264426678
1.449403166770935	9079993.254775252
1.453631043434143	9241217.745276667
1.4578542709350586	9512095.69857539
1.4620729684829712	9697073.696881348
1.4662868976593018	9749901.290735183
1.4704961776733398	9934425.838828038
1.4747005701065063	10183398.390568832
1.4788999557495117	10422038.420032144
1.4830944538116455	10605715.88971829
1.4872838258743286	10687637.640250921
1.491468071937561	10792637.595234208
1.4956470727920532	10960732.33287742
1.4998208284378052	11148505.63708277
1.5039892196655273	11420853.215862483
1.5081522464752197	11691603.372908145
1.5123097896575928	11884913.960008916
1.5164618492126465	12084069.967292937
1.5206083059310913	12279340.92321166
1.5247491598129272	12414913.280110907
1.5288842916488647	12500796.625592556
1.5330137014389038	12662136.09021892
1.5371372699737549	12904939.926790535
1.541254997253418	13115689.881983424
1.545366883277893	13278522.772188483
1.5494728088378906	13434594.650891557
1.5535727739334106	13585152.112815896
1.5576666593551636	13714757.98623783
1.561754584312439	13848244.864304997
1.5658363103866577	14016431.66957469
1.5699119567871094	14180948.743964102
1.5739814043045044	14330513.913843762
1.5780447721481323	14491649.804859662
1.582101821899414	14654754.040155055
1.5861525535583496	14815174.329051394
1.5901970863342285	14970331.865136366
1.5942351818084717	15121601.418883469
1.5982669591903687	15269584.2400974
1.6022924184799194	15412917.299228115
1.606311559677124	15554689.08718698
1.6103241443634033	15699311.966099508
1.6143304109573364	15851312.525130644
1.6183301210403442	16004696.217401097
1.6223233938217163	16150822.144980619
1.6263102293014526	16290775.089812923
1.6302905082702637	16427056.422502497
1.634264349937439	16565909.740009677
1.638231635093689	16715626.860554548
1.6421923637390137	16860788.83124318
1.646146535873413	17008906.740867395
1.6500942707061768	17171450.31964571
1.6540353298187256	17323978.96188364
1.6579699516296387	17461254.933878023
1.661897897720337	17595247.195376378
1.6658192873001099	17736232.829738177
1.6697341203689575	17882035.022384834
1.6736423969268799	18018597.46819349
1.677544116973877	18143257.17138235
1.6814392805099487	18282506.52720887
1.6853278875350952	18448787.389834538
1.6892099380493164	18612490.821883358
1.6930854320526123	18746260.51288218
1.696954369544983	18870915.65438196
1.7008168697357178	19013045.4991858
1.7046726942062378	19148879.573771317
1.708522081375122	19288161.748203635
1.712364912033081	19435463.739138626
1.7162011861801147	19553565.782182362
1.7200311422348022	19644190.613256548
1.723854422569275	19684905.810803533
1.7276713848114014	19631799.282825142
1.731481909751892	19566329.722483717
1.7352858781814575	19594305.757643525
1.7390835285186768	19724329.998769216
1.7428747415542603	19933982.527706977
1.7466596364974976	20264352.69872025
1.7504380941390991	20446208.34457092
1.7542102336883545	20330869.307235032
1.7579760551452637	20374274.913667396
1.7617355585098267	20481726.738235734
1.7654887437820435	20213672.613629434
1.7692357301712036	19952462.141003896
1.7729763984680176	20065925.970834523
1.776710867881775	20261758.33050503
1.7804391384124756	20374734.99773056
1.7841613292694092	20447370.265016235
1.7878772020339966	20023113.523114197
1.7915871143341064	19344176.507859793
1.7952908277511597	19200466.08520984
1.7989884614944458	19026181.032793205
1.8026801347732544	18928410.704357985
1.806365728378296	18831113.125558726
1.8100452423095703	18774929.64168842
1.8137187957763672	19536464.249976806
1.817386507987976	20221044.709744185
1.8210482597351074	20679068.42313774
1.8247040510177612	21023748.284378797
1.828354001045227	20840214.361881386
1.8319982290267944	21185478.439018667
1.8356364965438843	22000044.1268023
1.8392690420150757	21823105.86243689
1.8428958654403687	20914625.305723056
1.8465168476104736	20265616.171088558
1.8501322269439697	20588437.82466872
1.8537418842315674	20835316.861689575
1.8573459386825562	20138753.285654776
1.860944390296936	19665461.295324806
1.864537239074707	19831953.493104678
1.8681244850158691	20085133.841591597
1.871706247329712	20150197.72559482
1.8752825260162354	20657947.1267755
1.8788533210754395	21743753.815057565
1.8824186325073242	22267261.727564514
1.8859784603118896	22491586.044966355
1.8895330429077148	23266479.19515111
1.8930821418762207	23780101.319796983
1.8966259956359863	23750313.789992772
1.9001644849777222	23408196.276931368
1.9036977291107178	23531482.142521575
1.9072256088256836	24069305.507484064
1.9107483625411987	23983557.19543665
1.9142658710479736	24157156.33718364
1.9177782535552979	24143772.141237702
1.9212853908538818	23148062.367363494
1.9247875213623047	23211236.42264624
1.9282845258712769	24313326.977456946
1.9317764043807983	24577408.02554221
1.9352631568908691	24193511.79469152
1.9387450218200684	23389166.905262187
1.942221760749817	22286985.07620845
1.9456936120986938	21682257.55378267
1.9491604566574097	22173163.869952757
1.952622413635254	22894136.38905822
1.956079363822937	22375174.45879315
1.959531545639038	22174881.287029516
1.962978720664978	23997021.536831114
1.966421127319336	25852943.86192311
1.9698586463928223	26205501.292535298
1.9732913970947266	25936601.979519635
1.9767193794250488	25889694.322531145
1.9801424741744995	26534930.160671655
1.9835609197616577	27095558.175759915
1.9869745969772339	26667212.755663183
1.990383505821228	26111573.043042157
1.9937876462936401	26689353.57070441
1.9971871376037598	27154184.55524342
2.000581979751587	26606862.90927821
2.003972291946411	26728302.003274985
2.007357597351074	27801794.438875638
2.0107386112213135	28763248.22031235
2.0141148567199707	28936296.57292968
2.017486572265625	28907976.554135192
2.0208535194396973	29424107.842607025
2.0242159366607666	29598239.335595466
2.027573823928833	28982195.010983158
2.0309269428253174	28806406.051998854
2.034275770187378	29447080.516389497
2.0376198291778564	29890548.210583102
2.040959596633911	29979717.51504123
2.044294595718384	30385152.205985766
2.0476250648498535	30873324.291202694
2.0509510040283203	31142823.53184006
2.054272413253784	31441315.821072858
2.057589530944824	31728517.171684757
2.0609018802642822	31882188.721500736
2.0642096996307373	32013018.546855133
2.0675129890441895	32286925.654976003
2.0708119869232178	32586503.17142476
2.074106216430664	32814838.975706127
2.0773961544036865	32863503.84441196
2.080681324005127	32765094.10622888
2.0839622020721436	32874909.12773674
2.087238311767578	33176552.43904397
2.090510129928589	33484614.43846889
2.0937774181365967	33755082.58350258
2.0970399379730225	33919113.37609093
2.1002981662750244	34054145.60048728
2.1035518646240234	34223788.49760294
2.1068007946014404	34376008.13122405
2.1100454330444336	34448189.48837598
2.1132853031158447	34523995.109535724
2.116520881652832	34694825.91186445
2.1197516918182373	34910440.13207177
2.1229779720306396	35072515.222789854
2.12619948387146	35189600.759350635
2.1294167041778564	35349733.445161015
2.132629156112671	35537447.68514727
2.1358368396759033	35683792.68546905
2.139039993286133	35789934.186611764
2.1422386169433594	35902839.71802696
2.145432472229004	35997454.84327353
2.1486217975616455	36083695.65440518
2.151806354522705	36233819.8053423
2.1549863815307617	36382984.9478038
2.1581614017486572	36548393.34456396
2.16133189201355	36741937.617357366
2.1644976139068604	36865118.05023388
2.167658567428589	36968534.53587815
2.1708147525787354	37073707.8172068
2.173966407775879	37168903.757051155
2.1771130561828613	37310647.88477164
2.1802549362182617	37471369.28302181
2.183391809463501	37560941.151142314
2.1865241527557373	37652698.163170606
2.1896514892578125	37830989.74696379
2.1927738189697266	37978050.691811636
2.1958916187286377	38069610.1025942
2.1990041732788086	38162021.598669305
2.2021119594573975	38287521.051565595
2.2052149772644043	38474739.84347217
2.208312749862671	38651195.737199925
2.2114057540893555	38781847.518152215
2.214493751525879	38857545.410476655
2.217576742172241	38744272.315311715
2.2206547260284424	38570020.869613476
2.2237277030944824	38713499.60219922
2.2267956733703613	39021731.54068387
2.2298583984375	39251843.53684224
2.2329163551330566	39401876.30543565
2.235969066619873	39473044.44186338
2.2390167713165283	39662674.77832973
2.2420592308044434	39889350.43055366
2.2450966835021973	40032671.06427392
2.248128890991211	40283064.16439986
2.2511560916900635	40447292.59486235
2.254178285598755	40332647.43344569
2.257194995880127	40290843.97658451
2.260206699371338	40412644.80050701
2.2632133960723877	40468714.99414452
2.266214609146118	40546368.16180394
2.2692108154296875	40586190.07815691
2.2722020149230957	40786029.05736219
2.2751877307891846	41174477.386464626
2.278168201446533	41159578.30172018
2.2811436653137207	41162244.358005404
2.284113883972168	41482535.131940395
2.287078857421875	41671474.576905504
2.290038824081421	41427621.96691257
2.2929933071136475	39717630.61267579
2.295942783355713	38246613.30807111
2.298887014389038	39031649.49244485
2.301826238632202	39331912.938831106
2.304760217666626	38357802.39966706
2.3076889514923096	39150923.1126828
2.310612440109253	41222999.44905343
2.3135311603546143	41593174.700220466
2.3164443969726562	41214397.020130366
2.319352865219116	40801665.151483595
2.322256088256836	38918441.64265269
2.3251543045043945	37487501.25956613
2.328047275543213	38317334.040451124
2.330935478210449	39625721.857226394
2.3338186740875244	40252454.61720787
2.3366971015930176	40345023.62332244
2.3395702838897705	40740018.68467527
2.3424389362335205	41389381.01830191
2.3453025817871094	41125113.86337517
2.348161458969116	40854679.3774524
2.351015567779541	40144410.870804004
2.353865146636963	39387319.05370252
2.3567099571228027	40019105.791945994
2.3595502376556396	40212600.39546826
2.3623859882354736	39842820.70785133
2.3652172088623047	39755277.21947569
2.368043899536133	39787463.445810966
2.370866537094116	40446974.14414721
2.3736846446990967	40932243.720385924
2.3764986991882324	40044673.52535442
2.3793084621429443	38981525.39739838
2.3821144104003906	39325084.330127224
2.384916305541992	40089915.99240225
2.387714147567749	40652353.88411419
2.3905084133148193	40384124.61940258
2.393299102783203	38895644.95258318
2.3960859775543213	39532851.90154832
2.398869514465332	41192703.78712313
2.4016497135162354	40700104.87844701
2.4044265747070312	40839419.57427358
2.407200336456299	41992383.255497895
2.409970998764038	41982393.895227954
2.4127390384674072	41423326.276686035
2.415503978729248	41510468.788834125
2.418266534805298	41831084.30154998
2.4210267066955566	41489145.85320668
2.4237842559814453	41321255.17048287
2.426539897918701	41604239.24611335
2.429293394088745	41056452.88787751
2.4320452213287354	39192964.80729306
2.4347951412200928	36875052.76987375
2.4375438690185547	37236316.47506275
2.440291166305542	39338454.163983576
2.443037271499634	38917337.56019439
2.445782423019409	38670154.19458555
2.4485268592834473	40419047.791772224
2.451270818710327	40172299.28487948
2.454014539718628	38340781.009749934
2.4567582607269287	38524279.61866012
2.4595019817352295	38798016.26138896
2.4622461795806885	38922364.22613184
2.4649908542633057	38862036.93840521
2.4677364826202393	36768128.92450066
2.4704833030700684	35541568.43017033
2.473231554031372	34064394.370746315
2.4759814739227295	34133262.10904533
2.4787333011627197	36579169.952001505
