#wavelength	surface flux
0.6450077295303345	11187.507995603091
0.6472567915916443	16898.605651716585
0.6494921445846558	20447.244500696568
0.6517150402069092	21531.240425793767
0.6539263725280762	22471.593063659882
0.6561272740364075	23254.90076409007
0.6583186388015747	24203.336095233633
0.6605015397071838	25565.832859991046
0.6626768708229065	26902.3004476409
0.6648455858230591	28084.353476535813
0.6670085787773132	29232.318997696748
0.6691668033599854	30109.585777875276
0.6713210344314575	31048.16566062273
0.6734722256660461	32668.242238959825
0.6756211519241333	34353.78427661048
0.6777685880661011	35631.208144331205
0.6799154281616211	36856.77862002045
0.6820623278617859	37982.243509820095
0.6842101216316223	38943.82932604144
0.6863595843315125	39601.081470916884
0.688511312007904	39863.93743648354
0.6906660795211792	40820.772490812524
0.6928245425224304	43056.07735485513
0.6949873566627502	45636.852562284614
0.6971551775932312	47752.616051311794
0.6993286609649658	49774.16073917648
0.7015084028244019	52661.02986184304
0.7036949396133423	56082.48972727901
0.7058889269828796	59103.35451745849
0.7080909013748169	61622.2659586653
0.710301399230957	63995.1070328717
0.712520956993103	66446.91959212892
0.7147500514984131	68950.74350945934
0.7169892191886902	71537.16774158376
0.7192389369010925	74282.00694662592
0.7214996814727783	77140.89753821047
0.723771870136261	80086.43137135674
0.7260559797286987	83121.43347480071
0.7283523678779602	86229.1590392904
0.7306615710258484	89301.83183814863
0.7329838871955872	91728.31061958738
0.7353196740150452	93610.43848760043
0.7376693487167358	95881.49659375046
0.7400332689285278	98300.19532530158
0.7424117922782898	100822.27800945521
0.7448052167892456	104001.73992859288
0.7472138404846191	108299.99467612714
0.7496379613876343	113485.44945929678
0.7520779371261597	118535.95122816347
0.7545340061187744	123311.10641211276
0.7570064663887024	127238.61112040312
0.7594954967498779	128174.8683513487
0.7620013952255249	118849.40835590806
0.7645244002342224	88849.15382264809
0.7670646905899048	55585.192784627725
0.7696225643157959	55053.37697204348
0.7721980810165405	94092.05227468815
0.7747915983200073	140729.67097819858
0.7774031162261963	164435.43176522953
0.7800329327583313	171876.23953222076
0.7826811671257019	183008.70811876716
0.7853479981422424	196851.0360042129
0.7880334854125977	206280.19147214002
0.7907378077507019	212545.59999391006
0.7934610247612	214841.7924876605
0.7962033748626709	220821.36025332505
0.7989648580551147	234324.5281938283
0.801745593547821	246686.21570647627
0.8045456409454346	256588.87923227772
0.8073651194572449	266994.28890676796
0.8102040886878967	277831.1219427325
0.8130625486373901	288853.30855620233
0.8159406185150146	300097.1148426067
0.8188382983207703	311569.6720573277
0.8217556476593018	323194.439289106
0.8246926665306091	335188.7239680208
0.8276493549346924	347720.78634517157
0.8306257724761963	360684.8732117039
0.8336219191551208	374062.6413325897
0.8366377949714661	387856.92605592153
0.8396733403205872	402073.58532371203
0.8427285552024841	416774.46363566
0.8458034992218018	431934.5291935256
0.8488980531692505	447456.97838493355
0.8520121574401855	462693.44574763475
0.8551458716392517	477889.04220599466
0.8582990765571594	493550.8179837998
0.8614717125892639	509366.5375973086
0.8646637797355652	526081.8921613193
0.8678751587867737	544763.5432950028
0.8711057901382446	565812.204124631
0.8743556141853333	588408.7053008777
0.87762451171875	611498.0576666971
0.8809124231338501	634781.6838235534
0.8842192888259888	658304.9355110299
0.8875449895858765	682210.1683483378
0.8908893465995789	706022.8009519347
0.894252359867096	729914.3735973468
0.8976338505744934	754766.393566915
0.9010337591171265	781752.6557957816
0.9044519662857056	810415.9372918233
0.9078882932662964	839048.6659229366
0.9113426208496094	867814.6937879706
0.914814829826355	897078.0879959392
0.9183048605918884	927155.9975276607
0.9218124747276306	957749.3041969591
0.925337553024292	984445.6409368471
0.9288799166679382	1005441.2091634776
0.9324395060539246	1025515.4743852093
0.9360161423683167	1056344.3217609432
0.9396095871925354	1106867.52635957
0.943219780921936	1157525.9052793377
0.9468464851379395	1192071.5387682675
0.9504896402359009	1226266.7664455383
0.9541489481925964	1267672.2777129642
0.9578243494033813	1309163.1955230222
0.9615156054496765	1352105.4411739686
0.9652225375175476	1401980.2412184654
0.9689450263977051	1453842.2033639872
0.9726828336715698	1501774.8191953846
0.9764357805252075	1549814.2836743542
0.9802037477493286	1600535.8779732222
0.983986496925354	1651694.1387761838
0.9877838492393494	1702821.7079879611
0.9915955662727356	1756563.4372601693
0.9954215884208679	1812339.5063444367
0.9992615580558777	1867744.4643717117
1.0031154155731201	1923773.082160635
1.0069829225540161	1982015.9547084281
1.0108637809753418	2041955.235507134
1.0147579908370972	2103054.7666755025
1.018665075302124	2165644.5944495345
1.022585153579712	2229762.4392542355
1.0265177488327026	2295065.1669025286
1.0304628610610962	2361368.855617979
1.0344202518463135	2429139.7480131565
1.0383895635604858	2498500.9105902542
1.0423706769943237	2569181.2130412185
1.0463634729385376	2640843.8191074408
1.0503677129745483	2713547.2916432163
1.0543830394744873	2788181.458295793
1.058409333229065	2865680.849885792
1.0624464750289917	2946960.742660223
1.0664942264556885	3030160.4875302734
1.0705522298812866	3113145.8592832764
1.0746204853057861	3196824.249646478
1.0786986351013184	3281975.601780311
1.0827864408493042	3368454.9693923276
1.086883783340454	3454673.1992635727
1.0909905433654785	3538450.084735347
1.0951062440872192	3615334.10502474
1.0992310047149658	3686161.6523040915
1.10336434841156	3769259.3213610537
1.1075061559677124	3867408.7952988925
1.1116561889648438	3936677.367300138
1.115814208984375	3960881.4621266136
1.1199802160263062	3988845.4480580483
1.124153733253479	4080627.690209884
1.1283347606658936	4245158.600800423
1.1325229406356812	4384846.094441593
1.1367181539535522	4491297.439946913
1.1409201622009277	4617430.37111504
1.145128846168518	4711199.942525088
1.1493438482284546	4802842.14985664
1.1535650491714478	4944448.07500295
1.1577922105789185	5070446.87895311
1.1620250940322876	5164250.953799161
1.1662636995315552	5283554.842795671
1.170507550239563	5414536.319378506
1.174756646156311	5549988.993382357
1.1790107488632202	5708133.733638905
1.1832695007324219	5855574.512749057
1.1875330209732056	5993509.249633998
1.191800832748413	6140649.601013885
1.1960728168487549	6279199.739041033
1.2003488540649414	6413258.698458211
1.2046287059783936	6555051.579939891
1.2089121341705322	6694389.281190354
1.2131990194320679	6829361.032602774
1.2174891233444214	6968046.0276656365
1.2217823266983032	7110503.9416822065
1.2260783910751343	7252414.4279934615
1.230377197265625	7394846.550053544
1.2346785068511963	7541301.009160234
1.238982081413269	7689635.6349490145
1.2432878017425537	7836965.629291015
1.2475954294204712	7984135.3591217855
1.2519049644470215	8131671.657497458
1.256216049194336	8282012.768345477
1.2605286836624146	8435397.833010891
1.2648425102233887	8588949.631115025
1.2691574096679688	8741609.810642159
1.2734732627868652	8895142.913196422
1.2777899503707886	9049649.411689702
1.2821072340011597	9202104.05736195
1.2864248752593994	9355142.982707504
1.2907428741455078	9501719.613231657
1.2950609922409058	9643505.501438849
1.2993791103363037	9809141.620345958
1.303696870803833	9992034.863586498
1.3080145120620728	10162394.216914529
1.3123314380645752	10317492.895068513
1.3166478872299194	10464606.273308633
1.3209635019302368	10597433.622525387
1.3252781629562378	10730732.667338794
1.3295916318893433	10795862.346203823
1.3339040279388428	10572974.289125968
1.3382149934768677	10178706.399017384
1.3425244092941284	9897605.741047436
1.3468321561813354	9705027.498832999
1.3511382341384888	9452909.181014108
1.3554422855377197	9298016.388328394
1.3597444295883179	9455449.718367012
1.3640443086624146	9743400.58585978
1.3683418035507202	10151772.949886156
1.3726370334625244	10693272.315113047
1.3769296407699585	11233614.600673094
1.381219506263733	11549090.252811966
1.3855066299438477	11446794.845952233
1.3897908926010132	11189865.497982295
1.3940720558166504	11117297.44764128
1.3983501195907593	11356224.630892599
1.4026249647140503	11580976.844165768
1.4068963527679443	11770465.533813134
1.4111642837524414	12044036.496901043
1.4154287576675415	11820383.85551243
1.419689416885376	11346586.449468816
1.4239463806152344	11331500.700616991
1.4281994104385376	11792419.383750608
1.4324485063552856	12651955.90781954
1.436693549156189	13214627.089984333
1.440934419631958	13362446.010037221
1.4451709985733032	13711055.071745122
1.449403166770935	14054553.497475924
1.453631043434143	14353780.214161718
1.4578542709350586	14831575.123952579
1.4620729684829712	15118476.30765088
1.4662868976593018	15194082.010613535
1.4704961776733398	15479504.502151795
1.4747005701065063	15844995.140458206
1.4788999557495117	16183066.257091722
1.4830944538116455	16458053.12951701
1.4872838258743286	16599258.582229411
1.491468071937561	16756698.492691247
1.4956470727920532	16994709.14556894
1.4998208284378052	17257969.798699673
1.5039892196655273	17644887.48158601
1.5081522464752197	18049475.733272858
1.5123097896575928	18344020.05725973
1.5164618492126465	18635158.04327891
1.5206083059310913	18920541.183520626
1.5247491598129272	19116566.767593794
1.5288842916488647	19234298.01230926
1.5330137014389038	19459570.028270103
1.5371372699737549	19799427.755184714
1.541254997253418	20087491.34796592
1.545366883277893	20309763.586757705
1.5494728088378906	20525577.960178196
1.5535727739334106	20736884.19989321
1.5576666593551636	20932130.20083071
1.561754584312439	21128302.21905463
1.5658363103866577	21342494.16289477
1.5699119567871094	21545956.611224644
1.5739814043045044	21746760.779159825
1.5780447721481323	21970758.312602054
1.582101821899414	22185911.087135617
1.5861525535583496	22383549.497432422
1.5901970863342285	22580568.037077505
1.5942351818084717	22778779.109813023
1.5982669591903687	22972215.33289564
1.6022924184799194	23162371.100878976
1.606311559677124	23352446.84117211
1.6103241443634033	23539100.46465222
1.6143304109573364	23727643.956542373
1.6183301210403442	23910964.037237734
1.6223233938217163	24029413.08774146
1.6263102293014526	24078999.269938037
1.6302905082702637	24119480.557147652
1.634264349937439	24204287.14924274
1.638231635093689	24525142.87822474
1.6421923637390137	24928290.832738064
1.646146535873413	25161599.333471976
1.6500942707061768	25341298.419680145
1.6540353298187256	25488003.57074468
1.6579699516296387	25629910.47761219
1.661897897720337	25670008.253806688
1.6658192873001099	25495002.868317876
1.6697341203689575	25679037.86718674
1.6736423969268799	26200425.313124638
1.677544116973877	26447217.926307954
1.6814392805099487	26607208.05905046
1.6853278875350952	26849139.946700107
1.6892099380493164	27020974.967085887
1.6930854320526123	27121795.951215047
1.696954369544983	27227431.579021603
1.7008168697357178	27340090.90532803
1.7046726942062378	27497265.754775222
1.708522081375122	27767095.04074599
1.712364912033081	28061758.348982457
1.7162011861801147	28244546.69050969
1.7200311422348022	28337975.54817126
1.723854422569275	28317002.977550257
1.7276713848114014	28155623.907911655
1.731481909751892	28046558.08752307
1.7352858781814575	28086773.43107539
1.7390835285186768	28216571.492660813
1.7428747415542603	28429303.985790603
1.7466596364974976	28786911.07474949
1.7504380941390991	28936564.588049132
1.7542102336883545	28684895.522049867
1.7579760551452637	28608418.064014237
1.7617355585098267	28683358.983485166
1.7654887437820435	28306250.39362743
1.7692357301712036	27869040.61208733
1.7729763984680176	27914453.73426611
1.776710867881775	28070182.59204986
1.7804391384124756	28079639.33328048
1.7841613292694092	27972986.108572416
1.7878772020339966	27259812.453706026
1.7915871143341064	26322097.445835054
1.7952908277511597	26102228.980988216
1.7989884614944458	25775999.445738517
1.8026801347732544	25530998.232633356
1.806365728378296	25349067.055246685
1.8100452423095703	25216698.49779476
1.8137187957763672	26304375.520021282
1.817386507987976	27299335.224644013
1.8210482597351074	27761686.780458644
1.8247040510177612	28208015.467714995
1.828354001045227	28036018.606143337
1.8319982290267944	28397942.7053083
1.8356364965438843	29212323.352492277
1.8392690420150757	28748925.026343565
1.8428958654403687	27610375.59387887
1.8465168476104736	26692126.215613965
1.8501322269439697	26841271.22157896
1.8537418842315674	26972107.07995516
1.8573459386825562	25958494.391417377
1.860944390296936	25254563.46400632
1.864537239074707	25370111.314243775
1.8681244850158691	25804459.27100016
1.871706247329712	26155358.27190351
1.8752825260162354	27143326.784681994
1.8788533210754395	28851622.729701508
1.8824186325073242	29694762.26374864
1.8859784603118896	30078509.148978896
1.8895330429077148	31052880.492135487
1.8930821418762207	31665021.38576665
1.8966259956359863	31635175.925856177
1.9001644849777222	31199758.626666907
1.9036977291107178	31243893.411296826
1.9072256088256836	31841222.484554227
1.9107483625411987	31666095.54118202
1.9142658710479736	31696925.846449275
1.9177782535552979	31605321.522084787
1.9212853908538818	30221444.223553758
1.9247875213623047	30226715.654858213
1.9282845258712769	31643574.86444107
1.9317764043807983	31673475.75193669
1.9352631568908691	30720150.15299394
1.9387450218200684	29493416.045205582
1.942221760749817	28454799.037834562
1.9456936120986938	28258259.303424526
1.9491604566574097	28973563.606937584
1.952622413635254	29419199.96025
1.956079363822937	28354060.216385357
1.959531545639038	28234347.61235757
1.962978720664978	30760201.294199027
1.966421127319336	33113630.579738263
1.9698586463928223	33365738.777151976
1.9732913970947266	32859985.9252801
1.9767193794250488	33017489.08178221
1.9801424741744995	34010566.86100124
1.9835609197616577	34885422.91320826
1.9869745969772339	34449785.27501399
1.990383505821228	33512150.41158341
1.9937876462936401	34265786.77089315
1.9971871376037598	35093992.328116775
2.000581979751587	34652467.88390227
2.003972291946411	34995917.69872874
2.007357597351074	36125657.106964044
2.0107386112213135	37129989.96569005
2.0141148567199707	37498143.38131964
2.017486572265625	37462897.53601726
2.0208535194396973	38063262.5678256
2.0242159366607666	38535080.48237398
2.027573823928833	37924878.49637682
2.0309269428253174	37667163.60165581
2.034275770187378	38442467.72430311
2.0376198291778564	38991926.07839918
2.040959596633911	39085683.01259152
2.044294595718384	39545498.01964224
2.0476250648498535	40120886.95472147
2.0509510040283203	40418257.13778774
2.054272413253784	40731947.02528625
2.057589530944824	41055433.21340618
2.0609018802642822	41199046.84154393
2.0642096996307373	41275407.61598491
2.0675129890441895	41545932.914260805
2.0708119869232178	41860672.164151065
2.074106216430664	42077869.67296624
2.0773961544036865	42109279.8494262
2.080681324005127	41995803.015976
2.0839622020721436	42087229.78743278
2.087238311767578	42379938.36982042
2.090510129928589	42681384.75849239
2.0937774181365967	42925038.215025984
2.0970399379730225	43052490.59397517
2.1002981662750244	43151095.93473887
2.1035518646240234	43295147.392249614
2.1068007946014404	43430581.514239505
2.1100454330444336	43475616.59369575
2.1132853031158447	43513469.1304129
2.116520881652832	43646075.908440664
2.1197516918182373	43835018.326279566
2.1229779720306396	43967883.83029479
2.12619948387146	44043281.93081837
2.1294167041778564	44163722.631670766
2.132629156112671	44311910.45655197
2.1358368396759033	44420574.49394089
2.139039993286133	44488440.92340132
2.1422386169433594	44563494.92983747
2.145432472229004	44623990.209630966
2.1486217975616455	44665370.90259035
2.151806354522705	44749603.46571912
2.1549863815307617	44824160.78891031
2.1581614017486572	44940911.70253551
2.16133189201355	45100403.59342055
2.1644976139068604	45197897.51191059
2.167658567428589	45276712.68106837
2.1708147525787354	45332385.7845333
2.173966407775879	45372670.60305787
2.1771130561828613	45481978.95287758
2.1802549362182617	45612067.154190995
2.183391809463501	45649919.939818025
2.1865241527557373	45687975.66125183
2.1896514892578125	45812812.57122912
2.1927738189697266	45900429.87639355
2.1958916187286377	45818193.09770236
2.1990041732788086	45563150.92947491
2.2021119594573975	45467580.19457252
2.2052149772644043	45772170.13310226
2.208312749862671	46171740.672427274
2.2114057540893555	46376591.08034066
2.214493751525879	46363366.86781488
2.217576742172241	45947410.07754265
2.2206547260284424	45260925.837726146
2.2237277030944824	45072391.98587374
2.2267956733703613	45229132.835581504
2.2298583984375	45291089.83367133
2.2329163551330566	45379740.59208901
2.235969066619873	45418791.352931924
2.2390167713165283	45694662.406864814
2.2420592308044434	45779588.1792907
2.2450966835021973	45371408.27357454
2.248128890991211	45373642.92560558
2.2511560916900635	45456293.67370988
2.254178285598755	45046833.30172775
2.257194995880127	45251063.621959135
2.260206699371338	46200748.21934211
2.2632133960723877	46580818.570203215
2.266214609146118	46266922.45041257
2.2692108154296875	46042877.82696876
2.2722020149230957	46382036.473012954
2.2751877307891846	46727536.38063777
2.278168201446533	46456445.42259094
2.2811436653137207	46044281.83482542
2.284113883972168	45710587.63246524
2.287078857421875	45351794.581664704
2.290038824081421	45062051.204406485
2.2929933071136475	43956052.95901192
2.295942783355713	42952908.81235482
2.298887014389038	43549399.267688744
2.301826238632202	43824785.364997946
2.304760217666626	43063703.65132895
2.3076889514923096	43707182.96484824
2.310612440109253	45557989.17975262
2.3135311603546143	45623198.259384036
2.3164443969726562	43821152.22768374
2.319352865219116	42506164.65441758
2.322256088256836	42103572.100172095
2.3251543045043945	42223277.72248266
2.328047275543213	43293452.70491941
2.330935478210449	44330839.314126514
2.3338186740875244	44285083.88231317
2.3366971015930176	43328043.62427279
2.3395702838897705	42982576.58194528
2.3424389362335205	43452344.173469536
2.3453025817871094	42752160.51219409
2.348161458969116	41722059.04694993
2.351015567779541	40908580.3946518
2.353865146636963	41104526.51913494
2.3567099571228027	43052317.27338558
2.3595502376556396	44154833.28035886
2.3623859882354736	44495063.5787523
2.3652172088623047	44766893.88362993
2.368043899536133	43071933.52953792
2.370866537094116	40712987.88916528
2.3736846446990967	40872198.631284155
2.3764986991882324	41861795.57573463
2.3793084621429443	41934548.06553997
2.3821144104003906	42596731.25930665
2.384916305541992	43563428.88568298
2.387714147567749	44323316.92648804
2.3905084133148193	44344412.2164819
2.393299102783203	42997793.29109276
2.3960859775543213	42909810.63756517
2.398869514465332	43958181.1937196
2.4016497135162354	43380474.07059248
2.4044265747070312	42780144.07414939
2.407200336456299	43406067.46744385
2.409970998764038	43870563.51855069
2.4127390384674072	43904513.083819024
2.415503978729248	43360690.98718465
2.418266534805298	42479726.68046579
2.4210267066955566	42607147.264195174
2.4237842559814453	43362413.5805423
2.426539897918701	43507429.88876536
2.429293394088745	43468029.142746955
2.4320452213287354	42504189.05597867
2.4347951412200928	39314598.04097439
2.4375438690185547	38493842.17427214
2.440291166305542	40745730.34111301
2.443037271499634	40624762.697998926
2.445782423019409	39968497.663482346
2.4485268592834473	41226594.06320842
2.451270818710327	40481958.572259456
2.454014539718628	38339696.69872037
2.4567582607269287	39291376.77009361
2.4595019817352295	39949239.68836151
2.4622461795806885	40066390.73565844
2.4649908542633057	40276114.26971934
2.4677364826202393	37458105.73134544
2.4704833030700684	35512653.74967189
2.473231554031372	34109387.441233784
2.4759814739227295	34051838.01558456
2.4787333011627197	36376747.71579734
2.481487512588501	36335820.775097474
