#wavelength	surface flux
0.6450077295303345	49850.36160954307
0.6472567915916443	74649.06417569927
0.6494921445846558	89142.18027417058
0.6517150402069092	92883.11188483553
0.6539263725280762	96458.21907761431
0.6561272740364075	100040.69000894422
0.6583186388015747	103716.42161654557
0.6605015397071838	107642.59690581314
0.6626768708229065	111540.00938101392
0.6648455858230591	115178.92390072877
0.6670085787773132	118438.15178603899
0.6691668033599854	119913.0637540529
0.6713210344314575	121579.15423811544
0.6734722256660461	127300.83261369044
0.6756211519241333	133511.63039993244
0.6777685880661011	137400.69534040955
0.6799154281616211	140906.39939132845
0.6820623278617859	143753.2537616999
0.6842101216316223	145597.11478767658
0.6863595843315125	145436.42950100836
0.688511312007904	142851.73355912507
0.6906660795211792	143982.01120556323
0.6928245425224304	151542.71997346656
0.6949873566627502	160118.07701260765
0.6971551775932312	166359.12089017575
0.6993286609649658	172540.48584276042
0.7015084028244019	182940.79278800832
0.7036949396133423	195209.66630498742
0.7058889269828796	204330.27997706406
0.7080909013748169	210823.87327093683
0.710301399230957	217023.2655728112
0.712520956993103	223395.21095901463
0.7147500514984131	229783.55006898698
0.7169892191886902	236844.49900412382
0.7192389369010925	244640.8922914865
0.7214996814727783	252647.0918311362
0.723771870136261	260900.71846501215
0.7260559797286987	269266.5061156819
0.7283523678779602	277532.05827698205
0.7306615710258484	284427.3862636945
0.7329838871955872	282814.4157368555
0.7353196740150452	273424.0440837436
0.7376693487167358	267435.78338013095
0.7400332689285278	263279.59495846846
0.7424117922782898	259999.7097986643
0.7448052167892456	262656.40890450124
0.7472138404846191	274681.0628763396
0.7496379613876343	294812.1888556865
0.7520779371261597	315694.32755202876
0.7545340061187744	338199.7261123611
0.7570064663887024	361191.22373262374
0.7594954967498779	380758.283669234
0.7620013952255249	390186.4041770388
0.7645244002342224	360419.17958804447
0.7670646905899048	311177.3431748307
0.7696225643157959	317971.8960592444
0.7721980810165405	389156.9691823872
0.7747915983200073	458157.4839506697
0.7774031162261963	488014.5905209232
0.7800329327583313	500251.8640603511
0.7826811671257019	516836.7702436747
0.7853479981422424	534923.8208835073
0.7880334854125977	549017.7601819616
0.7907378077507019	557886.3752948333
0.7934610247612	559305.737835993
0.7962033748626709	566631.885721335
0.7989648580551147	584338.3467475544
0.801745593547821	603222.2829073082
0.8045456409454346	624466.414056408
0.8073651194572449	650455.2295932656
0.8102040886878967	679415.0263521535
0.8130625486373901	707535.5159201974
0.8159406185150146	733601.3304613737
0.8188382983207703	758216.1450668022
0.8217556476593018	781611.3085835262
0.8246926665306091	804985.9624972632
0.8276493549346924	828964.7772758803
0.8306257724761963	853461.1787777775
0.8336219191551208	878540.5985112967
0.8366377949714661	904113.445884531
0.8396733403205872	930126.918890155
0.8427285552024841	956589.2118761655
0.8458034992218018	983403.1674529032
0.8488980531692505	1009300.019738865
0.8520121574401855	1028110.0163332978
0.8551458716392517	1042386.1036049589
0.8582990765571594	1058399.338777375
0.8614717125892639	1075870.3289828708
0.8646637797355652	1095836.1097562094
0.8678751587867737	1121870.942681895
0.8711057901382446	1162604.399262346
0.8743556141853333	1213564.4580010595
0.87762451171875	1264806.3923367155
0.8809124231338501	1314869.3238473241
0.8842192888259888	1362612.8506237308
0.8875449895858765	1408444.1308061706
0.8908893465995789	1450890.1303457022
0.894252359867096	1490837.3359661011
0.8976338505744934	1532016.4165506554
0.9010337591171265	1576686.6736569782
0.9044519662857056	1623651.1993499524
0.9078882932662964	1670075.5577653928
0.9113426208496094	1716380.2500266007
0.914814829826355	1762740.3907829556
0.9183048605918884	1809324.6264403984
0.9218124747276306	1855576.1282883543
0.925337553024292	1893286.0243850963
0.9288799166679382	1921497.9994438286
0.9324395060539246	1950939.3319222324
0.9360161423683167	1998192.6988433583
0.9396095871925354	2077862.814729782
0.943219780921936	2157576.5256962916
0.9468464851379395	2208114.410000179
0.9504896402359009	2257586.053990036
0.9541489481925964	2319022.019437941
0.9578243494033813	2378767.013408133
0.9615156054496765	2439868.028596781
0.9652225375175476	2514405.00316723
0.9689450263977051	2592830.643653642
0.9726828336715698	2662603.4512889944
0.9764357805252075	2731614.359868936
0.9802037477493286	2804090.7012781254
0.983986496925354	2875313.0049172444
0.9877838492393494	2943798.629029087
0.9915955662727356	3015544.777223242
0.9954215884208679	3094169.0151485936
0.9992615580558777	3173810.2983124885
1.0031154155731201	3251954.7903939444
1.0069829225540161	3331729.9524864224
1.0108637809753418	3413977.050857231
1.0147579908370972	3497923.9005898153
1.018665075302124	3583577.8785725525
1.022585153579712	3670103.2097929525
1.0265177488327026	3756728.5252820924
1.0304628610610962	3845569.90283586
1.0344202518463135	3937079.4467271226
1.0383895635604858	4030271.6364464485
1.0423706769943237	4123795.841011414
1.0463634729385376	4215728.959716151
1.0503677129745483	4307610.165485073
1.0543830394744873	4402641.818531483
1.058409333229065	4501999.784389389
1.0624464750289917	4607139.687971302
1.0664942264556885	4715122.801096765
1.0705522298812866	4822141.411051811
1.0746204853057861	4929971.92137683
1.0786986351013184	5039722.134860256
1.0827864408493042	5150122.428173935
1.086883783340454	5257756.768270376
1.0909905433654785	5359122.445772216
1.0951062440872192	5447900.391527241
1.0992310047149658	5529033.7595425155
1.10336434841156	5634511.399736635
1.1075061559677124	5765484.043418956
1.1116561889648438	5852420.810425067
1.115814208984375	5875142.143794755
1.1199802160263062	5907924.5807407675
1.124153733253479	6022710.998066853
1.1283347606658936	6222974.007096441
1.1325229406356812	6390893.845475119
1.1367181539535522	6512367.80520849
1.1409201622009277	6654827.285506671
1.145128846168518	6766500.410286915
1.1493438482284546	6887440.606726979
1.1535650491714478	7068843.076015095
1.1577922105789185	7218332.038726411
1.1620250940322876	7316830.181284241
1.1662636995315552	7447398.4006227655
1.170507550239563	7594936.219564044
1.174756646156311	7735600.117326528
1.1790107488632202	7907594.082989657
1.1832695007324219	8085888.245196428
1.1875330209732056	8255161.542342667
1.191800832748413	8432101.330477871
1.1960728168487549	8591815.489389436
1.2003488540649414	8740563.493819017
1.2046287059783936	8900543.666728523
1.2089121341705322	9057520.139227126
1.2131990194320679	9209283.636807866
1.2174891233444214	9364876.697901106
1.2217823266983032	9524492.07327994
1.2260783910751343	9683708.055527158
1.230377197265625	9842236.048130848
1.2346785068511963	10004408.922332913
1.238982081413269	10167502.561760413
1.2432878017425537	10327969.495566644
1.2475954294204712	10488373.732748413
1.2519049644470215	10647710.93079913
1.256216049194336	10810061.248838214
1.2605286836624146	10977114.547198618
1.2648425102233887	11143224.843302911
1.2691574096679688	11307521.574406613
1.2734732627868652	11471667.425030049
1.2777899503707886	11636126.520385658
1.2821072340011597	11798255.3396467
1.2864248752593994	11959234.710480506
1.2907428741455078	12112038.968035856
1.2950609922409058	12259685.290999925
1.2993791103363037	12434268.73431209
1.303696870803833	12628445.411520464
1.3080145120620728	12806444.279006597
1.3123314380645752	12967347.246413719
1.3166478872299194	13120028.490152722
1.3209635019302368	13255624.216969278
1.3252781629562378	13389169.09127522
1.3295916318893433	13448425.593613913
1.3339040279388428	13218854.162085107
1.3382149934768677	12867990.320048794
1.3425244092941284	12638442.054835925
1.3468321561813354	12472127.781497497
1.3511382341384888	12230097.131088786
1.3554422855377197	12108568.358512763
1.3597444295883179	12389636.572964018
1.3640443086624146	12720910.935878074
1.3683418035507202	13017100.889929425
1.3726370334625244	13489937.257541504
1.3769296407699585	14077911.667436369
1.381219506263733	14457036.314162657
1.3855066299438477	14314680.659834333
1.3897908926010132	13994517.968106627
1.3940720558166504	13965268.506512357
1.3983501195907593	14262358.596513625
1.4026249647140503	14458679.203293476
1.4068963527679443	14625200.420720588
1.4111642837524414	14942136.189255798
1.4154287576675415	14713120.68025163
1.419689416885376	14204241.95864285
1.4239463806152344	14190412.30503606
1.4281994104385376	14674669.460568203
1.4324485063552856	15584260.719663138
1.436693549156189	16156270.263329461
1.440934419631958	16252459.231900128
1.4451709985733032	16603694.559108939
1.449403166770935	16960892.374348693
1.453631043434143	17168222.05525283
1.4578542709350586	17552407.67684636
1.4620729684829712	17836753.891396753
1.4662868976593018	17912068.501154944
1.4704961776733398	18176582.345699765
1.4747005701065063	18536400.046740763
1.4788999557495117	18862858.0275473
1.4830944538116455	19093410.21842127
1.4872838258743286	19180504.05993579
1.491468071937561	19331579.00529088
1.4956470727920532	19574223.022238642
1.4998208284378052	19819857.570770457
1.5039892196655273	20179059.486732014
1.5081522464752197	20537616.103111364
1.5123097896575928	20794668.16402021
1.5164618492126465	21065354.484449867
1.5206083059310913	21327437.931175735
1.5247491598129272	21488939.654238738
1.5288842916488647	21567114.569080822
1.5330137014389038	21760382.916781437
1.5371372699737549	22081985.476440467
1.541254997253418	22358056.89154458
1.545366883277893	22560841.330755033
1.5494728088378906	22753558.59072672
1.5535727739334106	22940728.648080062
1.5576666593551636	23097906.138530385
1.561754584312439	23258597.20420314
1.5658363103866577	23461971.302751657
1.5699119567871094	23655166.26138225
1.5739814043045044	23831389.72649036
1.5780447721481323	24028910.080987
1.582101821899414	24225200.85679522
1.5861525535583496	24412631.98353409
1.5901970863342285	24593761.893018387
1.5942351818084717	24768392.448960748
1.5982669591903687	24936846.316376008
1.6022924184799194	25099152.605090108
1.606311559677124	25259027.43346817
1.6103241443634033	25420888.816287212
1.6143304109573364	25589338.277368404
1.6183301210403442	25760073.303193495
1.6223233938217163	25925178.179695424
1.6263102293014526	26084186.62558907
1.6302905082702637	26236302.228118055
1.634264349937439	26387896.2393085
1.638231635093689	26546174.38170819
1.6421923637390137	26697051.15271588
1.646146535873413	26861031.84765216
1.6500942707061768	27044358.89313157
1.6540353298187256	27210344.39078639
1.6579699516296387	27355070.3339424
1.661897897720337	27498404.743154008
1.6658192873001099	27656750.843080904
1.6697341203689575	27812555.48270796
1.6736423969268799	27949971.114961382
1.677544116973877	28076916.760929454
1.6814392805099487	28220525.87659193
1.6853278875350952	28393363.537565637
1.6892099380493164	28562210.478112347
1.6930854320526123	28697368.436786048
1.696954369544983	28817276.978930023
1.7008168697357178	28953248.788794775
1.7046726942062378	29085967.65964846
1.708522081375122	29221648.643856283
1.712364912033081	29360675.438404657
1.7162011861801147	29460477.305822115
1.7200311422348022	29532360.978774466
1.723854422569275	29553285.300146207
1.7276713848114014	29459168.610012695
1.731481909751892	29356551.664167155
1.7352858781814575	29355474.625532404
1.7390835285186768	29462787.269314397
1.7428747415542603	29677681.08197892
1.7466596364974976	30052852.7417986
1.7504380941390991	30246886.696293037
1.7542102336883545	30074606.271330316
1.7579760551452637	30107020.971175365
1.7617355585098267	30204410.696125023
1.7654887437820435	29811016.439887576
1.7692357301712036	29428262.02960389
1.7729763984680176	29507307.12815906
1.776710867881775	29720465.468024116
1.7804391384124756	29910513.698363204
1.7841613292694092	30019277.418901507
1.7878772020339966	29397022.478305243
1.7915871143341064	28472604.129716467
1.7952908277511597	28279529.62023567
1.7989884614944458	27991807.3915286
1.8026801347732544	27769725.461336274
1.806365728378296	27610944.251300957
1.8100452423095703	27524318.622831043
1.8137187957763672	28379533.060851783
1.817386507987976	29125363.400813233
1.8210482597351074	29701866.08214422
1.8247040510177612	30110716.868296254
1.828354001045227	29836535.725659285
1.8319982290267944	30327992.605860684
1.8356364965438843	31383902.178143978
1.8392690420150757	31150453.814929314
1.8428958654403687	30018562.941422947
1.8465168476104736	29254841.04664324
1.8501322269439697	29591381.192554586
1.8537418842315674	29717135.485904604
1.8573459386825562	28751531.862667546
1.860944390296936	28233780.432526298
1.864537239074707	28622102.57310341
1.8681244850158691	28897013.201016463
1.871706247329712	28762019.10372135
1.8752825260162354	29321356.489914805
1.8788533210754395	30705926.388024002
1.8824186325073242	31275080.756307986
1.8859784603118896	31393501.692833096
1.8895330429077148	32316955.612728756
1.8930821418762207	32946197.467128515
1.8966259956359863	32771985.305580534
1.9001644849777222	32205427.335679017
1.9036977291107178	32311497.496812437
1.9072256088256836	32912198.611558944
1.9107483625411987	32741046.098808628
1.9142658710479736	32931288.08979664
1.9177782535552979	32797906.455681644
1.9212853908538818	31522194.71787583
1.9247875213623047	31633021.363038838
1.9282845258712769	32957714.181418803
1.9317764043807983	33392696.290055115
1.9352631568908691	33067256.81458556
1.9387450218200684	32142359.243413523
1.942221760749817	30756972.558889296
1.9456936120986938	29860795.024649367
1.9491604566574097	30343388.351586837
1.952622413635254	31222366.830555927
1.956079363822937	30707942.61503672
1.959531545639038	30473345.67946217
1.962978720664978	32421383.97096514
1.966421127319336	34385388.212112665
1.9698586463928223	34659548.36896472
1.9732913970947266	34216297.64451394
1.9767193794250488	34103783.02641124
1.9801424741744995	34838177.6582534
1.9835609197616577	35425939.229126304
1.9869745969772339	34885678.95106306
1.990383505821228	34232377.0688277
1.9937876462936401	34840744.6287552
1.9971871376037598	35316100.69363237
2.000581979751587	34706511.25355093
2.003972291946411	34809699.69191618
2.007357597351074	35823578.475688934
2.0107386112213135	36682243.99227773
2.0141148567199707	36830618.6103254
2.017486572265625	36801335.95656892
2.0208535194396973	37218803.57734663
2.0242159366607666	37261636.16008423
2.027573823928833	36589303.679969944
2.0309269428253174	36373244.31721244
2.034275770187378	36983623.02055373
2.0376198291778564	37403480.87381472
2.040959596633911	37417751.192942604
2.044294595718384	37715016.216585
2.0476250648498535	38136141.85130241
2.0509510040283203	38345015.71093828
2.054272413253784	38544684.09830668
2.057589530944824	38729292.04872894
2.0609018802642822	38801352.63815651
2.0642096996307373	38879936.331609406
2.0675129890441895	39077252.71378435
2.0708119869232178	39271751.45656919
2.074106216430664	39402269.18117369
2.0773961544036865	39403951.57106699
2.080681324005127	39296901.865716144
2.0839622020721436	39345594.95570302
2.087238311767578	39547762.41828369
2.090510129928589	39739861.39169425
2.0937774181365967	39887602.35651005
2.0970399379730225	39968801.47007715
2.1002981662750244	40035727.55729432
2.1035518646240234	40121160.1373584
2.1068007946014404	40194051.192971475
2.1100454330444336	40216534.630330734
2.1132853031158447	40242639.05794401
2.116520881652832	40327239.76416685
2.1197516918182373	40436740.086044386
2.1229779720306396	40517360.275582016
2.12619948387146	40575128.9957262
2.1294167041778564	40651727.76300319
2.132629156112671	40736993.62140699
2.1358368396759033	40797483.58439961
2.139039993286133	40834579.40522874
2.1422386169433594	40878126.65826077
2.145432472229004	40914334.90335955
2.1486217975616455	40950133.98455819
2.151806354522705	41019986.7738765
2.1549863815307617	41078318.56108546
2.1581614017486572	41143855.58329084
2.16133189201355	41230166.72899367
2.1644976139068604	41278230.94927697
2.167658567428589	41316059.737682045
2.1708147525787354	41353653.31541797
2.173966407775879	41380878.55068758
2.1771130561828613	41430041.75693795
2.1802549362182617	41486457.75704591
2.183391809463501	41512180.65291122
2.1865241527557373	41548487.71021269
2.1896514892578125	41625790.25917208
2.1927738189697266	41679720.088391945
2.1958916187286377	41705639.395338364
2.1990041732788086	41736596.76429256
2.2021119594573975	41783526.12360493
2.2052149772644043	41857435.82233424
2.208312749862671	41920748.442757875
2.2114057540893555	41956399.60172345
2.214493751525879	41965352.98720307
2.217576742172241	41876389.872079976
2.2206547260284424	41761446.9049038
2.2237277030944824	41822044.51970382
2.2267956733703613	41961262.553373426
2.2298583984375	42047293.10538608
2.2329163551330566	42095497.624405526
2.235969066619873	42111738.31381831
2.2390167713165283	42179788.805423714
2.2420592308044434	42263878.89365868
2.2450966835021973	42311297.842472546
2.248128890991211	42402882.67815135
2.2511560916900635	42453639.142115384
2.254178285598755	42372670.66033033
2.257194995880127	42320422.75260685
2.260206699371338	42344986.78597901
2.2632133960723877	42341589.8026307
2.266214609146118	42353178.597760215
2.2692108154296875	42336135.722375825
2.2722020149230957	42400595.978875615
2.2751877307891846	42569652.43834624
2.278168201446533	42540194.94771143
2.2811436653137207	42519830.14063792
2.284113883972168	42648239.01205936
2.287078857421875	42698969.56895947
2.290038824081421	42484968.06339721
2.2929933071136475	41355939.019229494
2.295942783355713	40327411.41881836
2.298887014389038	40595523.84039875
2.301826238632202	40429636.30886351
2.304760217666626	39444210.40437959
2.3076889514923096	40073564.89240802
2.310612440109253	41794729.522053756
2.3135311603546143	41948483.680871144
2.3164443969726562	41518063.21203326
2.319352865219116	41212108.52759625
2.322256088256836	39828521.375630744
2.3251543045043945	38702191.21237423
2.328047275543213	39277490.646009624
2.330935478210449	40362733.50836904
2.3338186740875244	40922770.159755334
2.3366971015930176	40910623.749013826
2.3395702838897705	41169235.9889932
2.3424389362335205	41661039.81714896
2.3453025817871094	41300051.643832006
2.348161458969116	41067813.425208256
2.351015567779541	40691609.9841271
2.353865146636963	40109370.20192386
2.3567099571228027	40395543.92831845
2.3595502376556396	40525962.14334513
2.3623859882354736	40516363.83781657
2.3652172088623047	40528229.096930005
2.368043899536133	40246520.18266597
2.370866537094116	40574056.5965993
2.3736846446990967	41110583.61324918
2.3764986991882324	40612781.498684786
2.3793084621429443	39558966.371975765
2.3821144104003906	39597960.83657025
2.384916305541992	40450202.021588616
2.387714147567749	40912420.37642133
2.3905084133148193	40384727.35073702
2.393299102783203	39229487.26771962
2.3960859775543213	39748976.7297435
2.398869514465332	40858258.21422472
2.4016497135162354	40427847.21785944
2.4044265747070312	40394038.96391357
2.407200336456299	41073952.30191738
2.409970998764038	41238661.07388937
2.4127390384674072	40939937.40503546
2.415503978729248	40915318.596526854
2.418266534805298	41379972.25019773
2.4210267066955566	41351398.057552256
2.4237842559814453	41093247.27175557
2.426539897918701	41014185.90070059
2.429293394088745	40429284.06802424
2.4320452213287354	39239536.59050204
2.4347951412200928	37726500.24486818
2.4375438690185547	37785819.69493222
2.440291166305542	39155233.693076536
2.443037271499634	38852852.15492151
2.445782423019409	38530074.19116535
2.4485268592834473	39723173.55355121
2.451270818710327	39695252.18465361
2.454014539718628	38401359.36617327
2.4567582607269287	38342084.5311905
2.4595019817352295	38405276.54451932
2.4622461795806885	38360618.06952209
2.4649908542633057	37920164.7258036
2.4677364826202393	36032472.74269161
2.4704833030700684	35359416.37668384
2.473231554031372	34517738.2183902
2.4759814739227295	34483747.971568726
2.4787333011627197	36562891.75678921
