#wavelength	surface flux
0.6450077295303345	2703.7266804657997
0.6472567915916443	4116.4747476713665
0.6494921445846558	5049.1432952250025
0.6517150402069092	5394.424119294732
0.6539263725280762	5718.86449397619
0.6561272740364075	6057.010132621335
0.6583186388015747	6412.855523661121
0.6605015397071838	6789.49029489694
0.6626768708229065	7181.953158329787
0.6648455858230591	7589.413116602954
0.6670085787773132	8011.370465971889
0.6691668033599854	8433.434605399869
0.6713210344314575	8878.535462186497
0.6734722256660461	9384.34303835948
0.6756211519241333	9913.290546854225
0.6777685880661011	10440.263508846574
0.6799154281616211	10989.967409180445
0.6820623278617859	11567.56382192853
0.6842101216316223	12171.367501867684
0.6863595843315125	12797.85113097382
0.688511312007904	13442.875257078094
0.6906660795211792	14112.324942648436
0.6928245425224304	14820.585879951988
0.6949873566627502	15575.03562600364
0.6971551775932312	16341.18190410374
0.6993286609649658	17141.138496944273
0.7015084028244019	18039.819273293233
0.7036949396133423	18983.73777779041
0.7058889269828796	19929.241462191017
0.7080909013748169	20899.947043969012
0.710301399230957	21914.97112313361
0.712520956993103	22982.446059588492
0.7147500514984131	24069.671054239676
0.7169892191886902	25187.65235706506
0.7192389369010925	26405.98214177137
0.7214996814727783	27711.14818581856
0.723771870136261	29060.94975267745
0.7260559797286987	30453.479929748584
0.7283523678779602	31884.109765964116
0.7306615710258484	33368.374602118856
0.7329838871955872	34910.00421939422
0.7353196740150452	36502.88181479532
0.7376693487167358	38174.28134551055
0.7400332689285278	39908.41950093847
0.7424117922782898	41692.99739351146
0.7448052167892456	43540.462785421805
0.7472138404846191	45440.49766097729
0.7496379613876343	47345.232748787435
0.7520779371261597	49132.351892886494
0.7545340061187744	50618.838425507776
0.7570064663887024	51353.25035162832
0.7594954967498779	50029.90768387938
0.7620013952255249	43459.41149458447
0.7645244002342224	30091.33641536323
0.7670646905899048	18158.07742428424
0.7696225643157959	18212.43384422962
0.7721980810165405	32854.210256898106
0.7747915983200073	53659.68578391088
0.7774031162261963	67096.13618019604
0.7800329327583313	72671.00983068332
0.7826811671257019	80065.28212500086
0.7853479981422424	88909.78429018735
0.7880334854125977	94967.39289067032
0.7907378077507019	99098.62180891764
0.7934610247612	100842.09225548078
0.7962033748626709	104782.97272977405
0.7989648580551147	113445.80147836547
0.801745593547821	121317.08760972547
0.8045456409454346	127308.26910217125
0.8073651194572449	133319.55905821503
0.8102040886878967	139382.14746395056
0.8130625486373901	145673.5576566285
0.8159406185150146	152530.61384361528
0.8188382983207703	159827.54627251707
0.8217556476593018	167190.0590264094
0.8246926665306091	174908.51543581096
0.8276493549346924	183225.79599924866
0.8306257724761963	191828.81371783302
0.8336219191551208	200751.8619219353
0.8366377949714661	210053.90579653595
0.8396733403205872	219702.47558668785
0.8427285552024841	229798.18622930383
0.8458034992218018	240281.75297479928
0.8488980531692505	251232.0101236996
0.8520121574401855	262683.839538763
0.8551458716392517	274532.35231248755
0.8582990765571594	286458.6713066014
0.8614717125892639	297991.790422763
0.8646637797355652	310428.54985044815
0.8678751587867737	324772.7194542204
0.8711057901382446	339845.62115143164
0.8743556141853333	355335.79542781174
0.87762451171875	371491.22205168183
0.8809124231338501	388129.3982977391
0.8842192888259888	405356.80181081896
0.8875449895858765	422953.61656838865
0.8908893465995789	440317.16795903613
0.894252359867096	457494.01566480414
0.8976338505744934	475596.82831862365
0.9010337591171265	497080.80815519247
0.9044519662857056	521073.9876831472
0.9078882932662964	544142.709265907
0.9113426208496094	566601.3798457938
0.914814829826355	589517.7890034457
0.9183048605918884	613421.2485010498
0.9218124747276306	637639.2739787361
0.925337553024292	653911.2423521945
0.9288799166679382	656937.815419041
0.9324395060539246	658092.4239319549
0.9360161423683167	682643.6843299298
0.9396095871925354	739260.453980037
0.943219780921936	790633.7361630981
0.9468464851379395	814714.9122109255
0.9504896402359009	839048.4378533235
0.9541489481925964	875863.2223310922
0.9578243494033813	913106.2831395747
0.9615156054496765	952009.3410922927
0.9652225375175476	1000539.2442910213
0.9689450263977051	1051328.861367961
0.9726828336715698	1095687.461150845
0.9764357805252075	1139254.6379208763
0.9802037477493286	1187504.851121436
0.983986496925354	1238011.7852022415
0.9877838492393494	1287902.8429733992
0.9915955662727356	1339406.2925502202
0.9954215884208679	1392861.012250358
0.9992615580558777	1445688.115449903
1.0031154155731201	1498641.0638714426
1.0069829225540161	1553187.1588997992
1.0108637809753418	1609285.2130693817
1.0147579908370972	1666691.9349768448
1.018665075302124	1725472.7851064873
1.022585153579712	1785781.6224973989
1.0265177488327026	1847668.0795912785
1.0304628610610962	1910958.160888551
1.0344202518463135	1975886.795330282
1.0383895635604858	2042617.0822582394
1.0423706769943237	2110758.517095794
1.0463634729385376	2180217.0976762907
1.0503677129745483	2251600.0995420446
1.0543830394744873	2324998.74365115
1.058409333229065	2400357.161703167
1.0624464750289917	2479379.3397753676
1.0664942264556885	2560750.8265540684
1.0705522298812866	2642191.9680324728
1.0746204853057861	2724771.197586251
1.0786986351013184	2809273.8756856066
1.0827864408493042	2895520.94488709
1.086883783340454	2979979.238073448
1.0909905433654785	3056880.1979514435
1.0951062440872192	3118381.4294476733
1.0992310047149658	3161432.286511457
1.10336434841156	3205520.8154677004
1.1075061559677124	3260735.9804330915
1.1116561889648438	3282481.1710428004
1.115814208984375	3247940.1761682904
1.1199802160263062	3224853.068499493
1.124153733253479	3320871.2929111626
1.1283347606658936	3536843.768792649
1.1325229406356812	3682370.2248176984
1.1367181539535522	3801280.258403406
1.1409201622009277	3985585.672856207
1.145128846168518	4071510.8125403174
1.1493438482284546	4109418.5500674834
1.1535650491714478	4224841.10088466
1.1577922105789185	4362418.749040346
1.1620250940322876	4497242.14094099
1.1662636995315552	4657249.967679468
1.170507550239563	4812201.197113277
1.174756646156311	4988220.9719192255
1.1790107488632202	5209426.789739751
1.1832695007324219	5408194.123241444
1.1875330209732056	5579196.512074854
1.191800832748413	5754405.205820136
1.1960728168487549	5919254.043684262
1.2003488540649414	6079847.952214677
1.2046287059783936	6249420.350126676
1.2089121341705322	6411034.763382814
1.2131990194320679	6562790.96189431
1.2174891233444214	6721791.206706001
1.2217823266983032	6887117.773282565
1.2260783910751343	7049782.933128506
1.230377197265625	7214249.238299296
1.2346785068511963	7385095.079082277
1.238982081413269	7557498.996861059
1.2432878017425537	7727453.464157998
1.2475954294204712	7896139.651744562
1.2519049644470215	8064149.463765581
1.256216049194336	8236858.143124294
1.2605286836624146	8414700.654784895
1.2648425102233887	8590584.375173397
1.2691574096679688	8761361.44780067
1.2734732627868652	8931046.072823064
1.2777899503707886	9100834.940795809
1.2821072340011597	9266555.717146106
1.2864248752593994	9434878.94431302
1.2907428741455078	9588504.645536961
1.2950609922409058	9729570.666829547
1.2993791103363037	9913188.073876254
1.303696870803833	10132651.705194848
1.3080145120620728	10337091.443159448
1.3123314380645752	10498834.429567892
1.3166478872299194	10634768.038011946
1.3209635019302368	10751309.18859135
1.3252781629562378	10826016.857858613
1.3295916318893433	10634762.06049422
1.3339040279388428	9720223.040172124
1.3382149934768677	8357556.475410875
1.3425244092941284	7436647.7565955175
1.3468321561813354	6831703.419277915
1.3511382341384888	6094787.354660146
1.3554422855377197	5646843.913944627
1.3597444295883179	5657882.543142275
1.3640443086624146	5951376.648957508
1.3683418035507202	6600687.729764363
1.3726370334625244	7455210.222614726
1.3769296407699585	8218402.173965355
1.381219506263733	8421885.15702004
1.3855066299438477	8154443.425793383
1.3897908926010132	7880489.565396846
1.3940720558166504	7599654.883464814
1.3983501195907593	7620579.040548149
1.4026249647140503	7912496.925865555
1.4068963527679443	8118630.348614142
1.4111642837524414	8332103.479728222
1.4154287576675415	8222761.255552243
1.419689416885376	7721746.276383002
1.4239463806152344	7595970.611353584
1.4281994104385376	8167237.35412919
1.4324485063552856	9006502.264998017
1.436693549156189	9477071.945928784
1.440934419631958	9809420.295547973
1.4451709985733032	10379848.302836966
1.449403166770935	11084535.493053237
1.453631043434143	12089272.824610885
1.4578542709350586	13221279.836935926
1.4620729684829712	13587536.40429348
1.4662868976593018	13438189.198537383
1.4704961776733398	13739945.048534693
1.4747005701065063	14340601.80533291
1.4788999557495117	14956900.202558566
1.4830944538116455	15508242.91535198
1.4872838258743286	15882223.359158011
1.491468071937561	16176734.983185839
1.4956470727920532	16558722.84968892
1.4998208284378052	16995233.629358694
1.5039892196655273	17633126.36592109
1.5081522464752197	18402289.023947444
1.5123097896575928	19036074.155675627
1.5164618492126465	19601021.48067991
1.5206083059310913	20147407.887847193
1.5247491598129272	20542232.299277958
1.5288842916488647	20763255.1497712
1.5330137014389038	21147054.07586032
1.5371372699737549	21711525.695315484
1.541254997253418	22153545.42740289
1.545366883277893	22501609.651863903
1.5494728088378906	22858017.192028444
1.5535727739334106	23185354.975809462
1.5576666593551636	23492538.416657962
1.561754584312439	23799093.811971262
1.5658363103866577	24105537.57620013
1.5699119567871094	24389533.719585393
1.5739814043045044	24672879.496075902
1.5780447721481323	24993880.61747582
1.582101821899414	25301933.001691546
1.5861525535583496	25572414.143173248
1.5901970863342285	25831709.41877258
1.5942351818084717	26091317.493196454
1.5982669591903687	26351123.805322967
1.6022924184799194	26603760.090990353
1.606311559677124	26845471.792317905
1.6103241443634033	27082391.79605838
1.6143304109573364	27319845.76190715
1.6183301210403442	27478922.93356979
1.6223233938217163	27321843.44092216
1.6263102293014526	26899447.537636545
1.6302905082702637	26573174.431315657
1.634264349937439	26678172.161564786
1.638231635093689	27565971.523225896
1.6421923637390137	28497603.155562714
1.646146535873413	28784371.75149325
1.6500942707061768	28914868.417315844
1.6540353298187256	28994687.316857208
1.6579699516296387	29115024.397690017
1.661897897720337	28844724.736331202
1.6658192873001099	27549970.014083263
1.6697341203689575	27656030.66658894
1.6736423969268799	29370186.576239545
1.677544116973877	29986078.595039815
1.6814392805099487	30076074.98574123
1.6853278875350952	30467257.942613732
1.6892099380493164	30573755.16049061
1.6930854320526123	30416674.28332146
1.696954369544983	30216718.974705286
1.7008168697357178	29946767.42424805
1.7046726942062378	30048171.902939063
1.708522081375122	30857428.250264622
1.712364912033081	31825464.90085934
1.7162011861801147	32264410.22889151
1.7200311422348022	32209754.59050724
1.723854422569275	31688133.7891079
1.7276713848114014	30913128.07615038
1.731481909751892	30548873.6702506
1.7352858781814575	30586403.271327183
1.7390835285186768	30557657.949556105
1.7428747415542603	30427523.042281695
1.7466596364974976	30441306.377351794
1.7504380941390991	30109860.369571246
1.7542102336883545	29100992.079838116
1.7579760551452637	28293915.24451437
1.7617355585098267	28044366.64208396
1.7654887437820435	27221832.583985843
1.7692357301712036	25968650.26686276
1.7729763984680176	25379693.13409953
1.776710867881775	24928341.169081192
1.7804391384124756	24149199.88939321
1.7841613292694092	22866018.07436539
1.7878772020339966	21616474.33525812
1.7915871143341064	20704334.241517425
1.7952908277511597	20319859.011737306
1.7989884614944458	19902515.388211764
1.8026801347732544	18915847.65545028
1.806365728378296	18412060.69199315
1.8100452423095703	18573595.990179993
1.8137187957763672	19640486.733230226
1.817386507987976	19936183.049934752
1.8210482597351074	19883816.661805853
1.8247040510177612	21359694.063598644
1.828354001045227	21218623.408776272
1.8319982290267944	20071650.43299481
1.8356364965438843	19632655.106823724
1.8392690420150757	18846740.546497833
1.8428958654403687	18543493.030649602
1.8465168476104736	17793461.009865504
1.8501322269439697	17515848.93492564
1.8537418842315674	17557184.247295175
1.8573459386825562	16060639.507169148
1.860944390296936	14809199.265096823
1.864537239074707	14565627.603139047
1.8681244850158691	14855740.54194803
1.871706247329712	15832381.059599817
1.8752825260162354	18115376.332106046
1.8788533210754395	21118657.839614462
1.8824186325073242	23025696.388586383
1.8859784603118896	23876775.18134776
1.8895330429077148	24837203.08195473
1.8930821418762207	26133027.923282843
1.8966259956359863	26619522.11338229
1.9001644849777222	25853975.581109587
1.9036977291107178	25788138.554935683
1.9072256088256836	26790034.674103912
1.9107483625411987	26549233.510054063
1.9142658710479736	25953529.49771342
1.9177782535552979	26508742.94717912
1.9212853908538818	25703280.364587385
1.9247875213623047	24657188.732932556
1.9282845258712769	24247443.285651382
1.9317764043807983	22788996.147507727
1.9352631568908691	21192469.780000687
1.9387450218200684	19192095.035993673
1.942221760749817	18880274.938812837
1.9456936120986938	20475453.375194177
1.9491604566574097	21609634.318517454
1.952622413635254	21690285.521657273
1.956079363822937	20108402.318089
1.959531545639038	19595848.041039944
1.962978720664978	21989437.941261858
1.966421127319336	24952517.165556338
1.9698586463928223	25495539.539190415
1.9732913970947266	24934132.975742854
1.9767193794250488	26006538.314939223
1.9801424741744995	27625257.85202837
1.9835609197616577	29361003.304802507
1.9869745969772339	29730365.06289472
1.990383505821228	28264893.799665466
1.9937876462936401	29328010.610513967
1.9971871376037598	30813169.831257205
2.000581979751587	31025330.940040383
2.003972291946411	32680587.50709861
2.007357597351074	34107345.01355311
2.0107386112213135	35537311.349336125
2.0141148567199707	37013102.34139286
2.017486572265625	37024563.71104818
2.0208535194396973	38395798.160571374
2.0242159366607666	40597434.45343368
2.027573823928833	40208895.449093595
2.0309269428253174	39980099.84373051
2.034275770187378	41581397.99109094
2.0376198291778564	42363724.009909526
2.040959596633911	42406152.66922466
2.044294595718384	43556851.69238961
2.0476250648498535	44633216.61068824
2.0509510040283203	44774140.37367048
2.054272413253784	45350060.82571457
2.057589530944824	46534947.04733785
2.0609018802642822	46979447.36726136
2.0642096996307373	46760464.38313313
2.0675129890441895	47173054.498543106
2.0708119869232178	47868737.53241523
2.074106216430664	48243666.97536363
2.0773961544036865	48129711.82089482
2.080681324005127	47895837.21838868
2.0839622020721436	48235108.1249166
2.087238311767578	48875093.68555575
2.090510129928589	49487414.106179744
2.0937774181365967	49948897.20335812
2.0970399379730225	50126713.58353227
2.1002981662750244	50184724.607444756
2.1035518646240234	50354066.10848784
2.1068007946014404	50646215.27152112
2.1100454330444336	50739305.03656078
2.1132853031158447	50718351.2158372
2.116520881652832	50849820.17386603
2.1197516918182373	51180612.07738495
2.1229779720306396	51414533.87641922
2.12619948387146	51442566.0352476
2.1294167041778564	51630196.393673256
2.132629156112671	51911882.08609954
2.1358368396759033	52043391.086235985
2.139039993286133	52046293.32045964
2.1422386169433594	52063060.8468109
2.145432472229004	52007627.593825124
2.1486217975616455	51854290.14857069
2.151806354522705	51816006.482384965
2.1549863815307617	51818757.56994279
2.1581614017486572	52048611.537847795
2.16133189201355	52399063.58156667
2.1644976139068604	52565619.3173651
2.167658567428589	52675818.16739685
2.1708147525787354	52640549.4508824
2.173966407775879	52546517.514125645
2.1771130561828613	52718081.91324788
2.1802549362182617	52994264.1891106
2.183391809463501	52942907.80903458
2.1865241527557373	52835030.07374201
2.1896514892578125	53019998.74335123
2.1927738189697266	53068923.47481164
2.1958916187286377	52078815.09521981
2.1990041732788086	49783427.481484406
2.2021119594573975	48525084.61069187
2.2052149772644043	50077446.018841304
2.208312749862671	52394949.103639565
2.2114057540893555	53426171.71094989
2.214493751525879	53133566.213578716
2.217576742172241	51093230.82354146
2.2206547260284424	47881312.35177317
2.2237277030944824	46373535.19052942
2.2267956733703613	46043383.536641836
2.2298583984375	45385738.638950914
2.2329163551330566	45601014.48400565
2.235969066619873	46510772.96489654
2.2390167713165283	47359320.685147874
2.2420592308044434	46432308.44267479
2.2450966835021973	44041814.70198812
2.248128890991211	43774256.833028436
2.2511560916900635	44625525.05593102
2.254178285598755	44481708.80681496
2.257194995880127	45619103.98228455
2.260206699371338	47913963.37147692
2.2632133960723877	48135541.94297076
2.266214609146118	46562219.18123168
2.2692108154296875	46100631.949851125
2.2722020149230957	47497902.88705909
2.2751877307891846	48149643.20752037
2.278168201446533	46888663.01279341
2.2811436653137207	45413387.09859088
2.284113883972168	44268611.1496102
2.287078857421875	43193586.361833036
2.290038824081421	41868258.770977505
2.2929933071136475	39728321.267746806
2.295942783355713	38560357.25769445
2.298887014389038	40281708.12060067
2.301826238632202	42550182.455098726
2.304760217666626	43114531.50105205
2.3076889514923096	43782429.89924373
2.310612440109253	45711630.16797598
2.3135311603546143	44932022.90172745
2.3164443969726562	38385474.80186238
2.319352865219116	34195024.13896526
2.322256088256836	36951778.81178155
2.3251543045043945	40573274.693743035
2.328047275543213	42759537.20774828
2.330935478210449	43158885.75512013
2.3338186740875244	41263002.15176984
2.3366971015930176	38409129.46970361
2.3395702838897705	36847149.16118403
2.3424389362335205	36499511.06966771
2.3453025817871094	35158506.085181214
2.348161458969116	34428945.87946026
2.351015567779541	34345469.67850262
2.353865146636963	35738387.57362734
2.3567099571228027	39804834.635266334
2.3595502376556396	42848815.36010516
2.3623859882354736	44238809.06996577
2.3652172088623047	44531832.05895348
2.368043899536133	39635752.521541096
2.370866537094116	31613869.57740489
2.3736846446990967	29967095.281551342
2.3764986991882324	33185966.40045306
2.3793084621429443	36547582.521993384
2.3821144104003906	38808892.79706392
2.384916305541992	38944022.069476284
2.387714147567749	40031673.50040753
2.3905084133148193	41554370.1210658
2.393299102783203	39807309.83152229
2.3960859775543213	36869686.195647515
2.398869514465332	36012939.07477586
2.4016497135162354	35376762.66645536
2.4044265747070312	34194838.20248852
2.407200336456299	34557032.73224895
2.409970998764038	36030600.88103171
2.4127390384674072	37274594.54820438
2.415503978729248	35982356.91125439
2.418266534805298	32569131.430099975
2.4210267066955566	32066919.867554534
2.4237842559814453	33616799.48203249
2.426539897918701	33576397.371379055
2.429293394088745	34252229.23016426
2.4320452213287354	34471266.31311772
2.4347951412200928	29948492.012328964
2.4375438690185547	28577111.613131348
2.440291166305542	31849414.597108696
2.443037271499634	30160663.11017302
2.445782423019409	27233990.149991475
2.4485268592834473	28607263.51137766
2.451270818710327	27448420.062364783
2.454014539718628	24958064.58059422
2.4567582607269287	28170497.5889477
2.4595019817352295	29160287.32513833
2.4622461795806885	28630997.74071905
2.4649908542633057	29097367.315972377
2.4677364826202393	23927470.53024333
2.4704833030700684	19204428.897215683
2.473231554031372	17897872.30314175
2.4759814739227295	18685980.675694413
2.4787333011627197	20780990.08150798
2.481487512588501	21300563.99283805
