#wavelength	surface flux
0.6450077295303345	1.025327545993415
0.6472567915916443	1.5777186614669225
0.6494921445846558	1.974221172343193
0.6517150402069092	2.1626696040854396
0.6539263725280762	2.3520940885235078
0.6561272740364075	2.555767533360208
0.6583186388015747	2.7749716603670405
0.6605015397071838	3.010522839611733
0.6626768708229065	3.2629275599940226
0.6648455858230591	3.5339785722139765
0.6670085787773132	3.8254104261050927
0.6691668033599854	4.138063303415542
0.6713210344314575	4.472948428890545
0.6734722256660461	4.831724141544312
0.6756211519241333	5.216555264302851
0.6777685880661011	5.629280900755206
0.6799154281616211	6.071447951670667
0.6820623278617859	6.545216687609314
0.6842101216316223	7.052956958880548
0.6863595843315125	7.596940918712717
0.688511312007904	8.179030339710142
0.6906660795211792	8.79862288751197
0.6928245425224304	9.461015000665594
0.6949873566627502	10.179715892995432
0.6971551775932312	10.952472468966969
0.6993286609649658	11.77330715856325
0.7015084028244019	12.65392815584156
0.7036949396133423	13.601378781993242
0.7058889269828796	14.612600215165262
0.7080909013748169	15.68892448718456
0.710301399230957	16.84568040100358
0.712520956993103	18.088291475335865
0.7147500514984131	19.391775817959356
0.7169892191886902	20.77439156070091
0.7192389369010925	22.31716024792139
0.7214996814727783	23.99520335826934
0.723771870136261	25.763556060158276
0.7260559797286987	27.653133891043673
0.7283523678779602	29.65704787608703
0.7306615710258484	31.80015002387239
0.7329838871955872	34.12334978131318
0.7353196740150452	36.605733561614315
0.7376693487167358	39.29300606116749
0.7400332689285278	42.202809562307145
0.7424117922782898	45.29812882208176
0.7448052167892456	48.61853180651717
0.7472138404846191	52.18471965535323
0.7496379613876343	56.005135006516554
0.7520779371261597	60.10017133081386
0.7545340061187744	64.49035569619369
0.7570064663887024	69.19677308670205
0.7594954967498779	74.24118992396562
0.7620013952255249	79.64759104917218
0.7645244002342224	85.42454811496609
0.7670646905899048	91.612774419924
0.7696225643157959	98.29322116206369
0.7721980810165405	105.5024853324179
0.7747915983200073	113.23164442637984
0.7774031162261963	121.49730697010199
0.7800329327583313	130.35349933976156
0.7826811671257019	139.85547794176136
0.7853479981422424	150.02826392875997
0.7880334854125977	160.89762600704344
0.7907378077507019	172.59911179874592
0.7934610247612	185.22705698729476
0.7962033748626709	198.73535936160872
0.7989648580551147	213.1697098478099
0.801745593547821	228.67416238241123
0.8045456409454346	245.34304625756113
0.8073651194572449	263.00948706502805
0.8102040886878967	281.4477511695599
0.8130625486373901	301.21873642998116
0.8159406185150146	322.97690858588487
0.8188382983207703	346.5747030956135
0.8217556476593018	371.77659907696733
0.8246926665306091	398.9304504826036
0.8276493549346924	428.4683217155979
0.8306257724761963	459.96316301625944
0.8336219191551208	493.52301173877635
0.8366377949714661	529.4093269144544
0.8396733403205872	567.6590506171431
0.8427285552024841	608.6333612280497
0.8458034992218018	652.289038805961
0.8488980531692505	699.2914202262531
0.8520121574401855	749.9581388400775
0.8551458716392517	803.9617153267128
0.8582990765571594	861.5437850349672
0.8614717125892639	922.9241544219766
0.8646637797355652	988.5125142735784
0.8678751587867737	1058.8160578478767
0.8711057901382446	1133.929940308303
0.8743556141853333	1214.1364957546325
0.87762451171875	1299.8976576569676
0.8809124231338501	1391.3642951704774
0.8842192888259888	1488.774672969363
0.8875449895858765	1591.1337006427252
0.8908893465995789	1696.0070996893585
0.894252359867096	1800.709980229684
0.8976338505744934	1908.9559900455608
0.9010337591171265	2045.7078611214724
0.9044519662857056	2210.3402559829483
0.9078882932662964	2372.9750998198288
0.9113426208496094	2533.2303959195706
0.914814829826355	2698.5375529739335
0.9183048605918884	2874.4411167345006
0.9218124747276306	3064.0601135633724
0.925337553024292	3226.4393168470256
0.9288799166679382	3310.300034414019
0.9324395060539246	3323.6718044297336
0.9360161423683167	3468.972925555767
0.9396095871925354	3921.6251011886966
0.943219780921936	4369.764924848266
0.9468464851379395	4563.841498190584
0.9504896402359009	4784.092911067684
0.9541489481925964	5158.56467812848
0.9578243494033813	5533.019206537827
0.9615156054496765	5916.605465713545
0.9652225375175476	6412.101651496244
0.9689450263977051	6940.79228095522
0.9726828336715698	7397.803817975139
0.9764357805252075	7867.969429498726
0.9802037477493286	8411.462843190868
0.983986496925354	8985.207516725663
0.9877838492393494	9565.230082785161
0.9915955662727356	10180.026112040216
0.9954215884208679	10835.648891518267
0.9992615580558777	11504.053005367385
1.0031154155731201	12185.41160686127
1.0069829225540161	12900.486464231853
1.0108637809753418	13657.960804395798
1.0147579908370972	14456.00840463896
1.018665075302124	15294.735590547909
1.022585153579712	16174.85848350442
1.0265177488327026	17098.830583339975
1.0304628610610962	18068.05000817511
1.0344202518463135	19085.776697685324
1.0383895635604858	20154.532038749086
1.0423706769943237	21274.47272932865
1.0463634729385376	22447.437211546337
1.0503677129745483	23676.99410686681
1.0543830394744873	24964.56530285279
1.058409333229065	26322.92510748116
1.0624464750289917	27787.721605255687
1.0664942264556885	29329.32174879917
1.0705522298812866	30903.367705814548
1.0746204853057861	32528.833950127977
1.0786986351013184	34222.49854746153
1.0827864408493042	35998.13054761291
1.086883783340454	37817.688948185576
1.0909905433654785	39615.899796085345
1.0951062440872192	41272.74305550401
1.0992310047149658	42743.47892585205
1.10336434841156	44566.73352187977
1.1075061559677124	46981.004748219384
1.1116561889648438	48397.80142423933
1.115814208984375	47812.427634222135
1.1199802160263062	47507.3689097726
1.124153733253479	49650.55749460306
1.1283347606658936	54315.437995987515
1.1325229406356812	58702.48881750325
1.1367181539535522	61946.481087126595
1.1409201622009277	65251.519227861645
1.145128846168518	67100.03904184214
1.1493438482284546	69220.37786213354
1.1535650491714478	73660.39689205925
1.1577922105789185	77780.87984431694
1.1620250940322876	80875.56520129106
1.1662636995315552	84934.54175687277
1.170507550239563	89500.46880192476
1.174756646156311	94523.88087805518
1.1790107488632202	100349.00086103404
1.1832695007324219	105788.18087590241
1.1875330209732056	111329.8873318417
1.191800832748413	117050.37420986332
1.1960728168487549	121913.12229505832
1.2003488540649414	126764.70445136953
1.2046287059783936	132505.59580859172
1.2089121341705322	138267.5653747907
1.2131990194320679	143663.72013610348
1.2174891233444214	149559.59686011527
1.2217823266983032	155901.25238787392
1.2260783910751343	162137.79264979874
1.230377197265625	168514.4614619708
1.2346785068511963	175291.4753461422
1.238982081413269	182287.44023789553
1.2432878017425537	189340.20422015604
1.2475954294204712	196498.47331453822
1.2519049644470215	203754.58306249406
1.256216049194336	211299.96040955884
1.2605286836624146	219223.60048156133
1.2648425102233887	227255.90133586145
1.2691574096679688	235267.54210048946
1.2734732627868652	243528.15036318105
1.2777899503707886	252122.2769641193
1.2821072340011597	260709.47850780297
1.2864248752593994	269388.2331743072
1.2907428741455078	277458.9610552452
1.2950609922409058	285110.3827246206
1.2993791103363037	294958.2149140314
1.303696870803833	306456.0441630683
1.3080145120620728	317226.8018458995
1.3123314380645752	326842.40592507605
1.3166478872299194	335116.11745857715
1.3209635019302368	342014.39826115954
1.3252781629562378	351180.50973400933
1.3295916318893433	359222.91738042654
1.3339040279388428	352395.7468030518
1.3382149934768677	334776.46172350977
1.3425244092941284	325068.3890926004
1.3468321561813354	320408.75237072655
1.3511382341384888	304303.7474460981
1.3554422855377197	292047.07387786097
1.3597444295883179	295234.2246865635
1.3640443086624146	300733.08983807726
1.3683418035507202	316037.3354209866
1.3726370334625244	341499.9568039638
1.3769296407699585	375038.28221172065
1.381219506263733	404854.5430440195
1.3855066299438477	408392.01999131264
1.3897908926010132	403056.24216118595
1.3940720558166504	402834.485758587
1.3983501195907593	408974.06198900944
1.4026249647140503	417388.44002718217
1.4068963527679443	431897.1621084579
1.4111642837524414	458561.57154158363
1.4154287576675415	456034.8269111852
1.419689416885376	427162.8376235118
1.4239463806152344	420035.8005845421
1.4281994104385376	447830.4320599596
1.4324485063552856	503432.4552342024
1.436693549156189	540256.5270106695
1.440934419631958	557306.2175958751
1.4451709985733032	592688.9745464183
1.449403166770935	631396.5498417544
1.453631043434143	668399.7373521508
1.4578542709350586	713810.21486579
1.4620729684829712	726892.2981120936
1.4662868976593018	717672.0176868346
1.4704961776733398	741243.322236493
1.4747005701065063	779288.9884162705
1.4788999557495117	819881.070908417
1.4830944538116455	854612.8584023318
1.4872838258743286	871054.5210750727
1.491468071937561	884521.6799358036
1.4956470727920532	907009.400334302
1.4998208284378052	936412.2846249385
1.5039892196655273	984536.2295496571
1.5081522464752197	1037602.2730957845
1.5123097896575928	1074042.4734511399
1.5164618492126465	1107585.1018839907
1.5206083059310913	1140946.4352493319
1.5247491598129272	1167893.6929827954
1.5288842916488647	1189361.12752854
1.5330137014389038	1223169.8138131076
1.5371372699737549	1267730.6150164343
1.541254997253418	1304150.0032219284
1.545366883277893	1333118.3389641044
1.5494728088378906	1361211.2270828083
1.5535727739334106	1389192.0393814398
1.5576666593551636	1417243.7939954114
1.561754584312439	1446110.1641705167
1.5658363103866577	1476311.1528218414
1.5699119567871094	1505697.107260961
1.5739814043045044	1534872.1539880668
1.5780447721481323	1566125.8068105343
1.582101821899414	1596799.6167033971
1.5861525535583496	1626261.9130016733
1.5901970863342285	1656119.210827036
1.5942351818084717	1686383.6190731146
1.5982669591903687	1716487.0202820608
1.6022924184799194	1746624.1545842139
1.606311559677124	1777395.3189755667
1.6103241443634033	1808335.6678458147
1.6143304109573364	1838760.2891757702
1.6183301210403442	1859894.5231491071
1.6223233938217163	1848299.1421606329
1.6263102293014526	1817059.167767968
1.6302905082702637	1798604.873429261
1.634264349937439	1819865.0071193574
1.638231635093689	1919136.256813743
1.6421923637390137	2018267.919790349
1.646146535873413	2044594.087077273
1.6500942707061768	2055429.9708162895
1.6540353298187256	2065279.3909871778
1.6579699516296387	2084243.9963831345
1.661897897720337	2080071.5582734398
1.6658192873001099	1975022.9997170407
1.6697341203689575	1992201.0402992596
1.6736423969268799	2164374.389272036
1.677544116973877	2222769.853201868
1.6814392805099487	2228232.368798703
1.6853278875350952	2280754.5975703127
1.6892099380493164	2306276.585162917
1.6930854320526123	2295355.171673153
1.696954369544983	2267944.502970293
1.7008168697357178	2209049.254392642
1.7046726942062378	2201545.1381569183
1.708522081375122	2333947.937615001
1.712364912033081	2510609.788250478
1.7162011861801147	2606085.82143267
1.7200311422348022	2619470.5783040496
1.723854422569275	2546363.470610617
1.7276713848114014	2441991.153873997
1.731481909751892	2435411.8169006873
1.7352858781814575	2534207.613234796
1.7390835285186768	2636299.274597025
1.7428747415542603	2687644.9988139104
1.7466596364974976	2734347.254933764
1.7504380941390991	2774121.3797568795
1.7542102336883545	2772695.207357426
1.7579760551452637	2766932.75459523
1.7617355585098267	2775937.419741788
1.7654887437820435	2758867.4775255346
1.7692357301712036	2722308.971469362
1.7729763984680176	2724159.1998989163
1.776710867881775	2759770.3252005624
1.7804391384124756	2785441.595691252
1.7841613292694092	2771532.415974005
1.7878772020339966	2655568.291235762
1.7915871143341064	2494211.4995224793
1.7952908277511597	2513428.877534829
1.7989884614944458	2609768.221193741
1.8026801347732544	2655470.3272545678
1.806365728378296	2625295.724212112
1.8100452423095703	2558844.543143139
1.8137187957763672	2688540.990331843
1.817386507987976	2856021.911710301
1.8210482597351074	2945541.4072141694
1.8247040510177612	3062852.5384087814
1.828354001045227	3066845.6475297958
1.8319982290267944	3058121.2996972976
1.8356364965438843	3143049.767689465
1.8392690420150757	3099077.5508044325
1.8428958654403687	2969769.7486644248
1.8465168476104736	2839136.7488525026
1.8501322269439697	2893416.61186581
1.8537418842315674	3020525.9207755523
1.8573459386825562	2938344.199909345
1.860944390296936	2775814.5678521018
1.864537239074707	2663951.6317873313
1.8681244850158691	2685413.603834096
1.871706247329712	2772007.2943112333
1.8752825260162354	2936243.6630180245
1.8788533210754395	3170713.5460459082
1.8824186325073242	3309683.894429822
1.8859784603118896	3436942.7660029107
1.8895330429077148	3617215.7137458976
1.8930821418762207	3707488.48677444
1.8966259956359863	3753806.741829735
1.9001644849777222	3760028.551813709
1.9036977291107178	3806866.198168955
1.9072256088256836	3911252.2178890794
1.9107483625411987	3835000.7934700567
1.9142658710479736	3795387.654620922
1.9177782535552979	3867533.350994672
1.9212853908538818	3724774.8351692054
1.9247875213623047	3689101.031246029
1.9282845258712769	3839728.759007296
1.9317764043807983	3787894.7200925197
1.9352631568908691	3661232.642422297
1.9387450218200684	3477124.244373082
1.942221760749817	3332305.419698207
1.9456936120986938	3354519.3525901344
1.9491604566574097	3488177.7358915634
1.952622413635254	3563778.482011053
1.956079363822937	3323132.383663071
1.959531545639038	3264574.204206721
1.962978720664978	3809802.1252926216
1.966421127319336	4361973.024728904
1.9698586463928223	4514465.437610441
1.9732913970947266	4513342.81931184
1.9767193794250488	4566061.349722539
1.9801424741744995	4779939.248070914
1.9835609197616577	4987902.590169574
1.9869745969772339	4921679.315253956
1.990383505821228	4765607.482762498
1.9937876462936401	4888184.921245059
1.9971871376037598	4998552.704594155
2.000581979751587	4849698.2870243015
2.003972291946411	4867604.252986234
2.007357597351074	5202289.499641946
2.0107386112213135	5564529.035782764
2.0141148567199707	5656577.988310458
2.017486572265625	5617715.602559705
2.0208535194396973	5772071.608724807
2.0242159366607666	5904849.350431989
2.027573823928833	5770259.879536029
2.0309269428253174	5688828.538461819
2.034275770187378	5851097.250930326
2.0376198291778564	5969291.370942138
2.040959596633911	5990252.611797305
2.044294595718384	6152639.250791856
2.0476250648498535	6295808.894513865
2.0509510040283203	6343687.217506255
2.054272413253784	6450025.7618036885
2.057589530944824	6538911.612069551
2.0609018802642822	6590322.021220229
2.0642096996307373	6636684.341636379
2.0675129890441895	6683060.935836718
2.0708119869232178	6748470.153810887
2.074106216430664	6837707.622868172
2.0773961544036865	6873775.814059262
2.080681324005127	6844363.311385407
2.0839622020721436	6871208.275451413
2.087238311767578	6941007.75783564
2.090510129928589	7026452.330590602
2.0937774181365967	7131182.203222873
2.0970399379730225	7188648.795931924
2.1002981662750244	7221046.466026617
2.1035518646240234	7272621.78702387
2.1068007946014404	7321263.369285793
2.1100454330444336	7333267.741977054
2.1132853031158447	7336767.66487781
2.116520881652832	7384042.996647437
2.1197516918182373	7464477.969962488
2.1229779720306396	7527387.798282572
2.12619948387146	7561958.562589647
2.1294167041778564	7611457.940105005
2.132629156112671	7676146.795010669
2.1358368396759033	7723765.854055307
2.139039993286133	7757569.5285909595
2.1422386169433594	7790712.085149069
2.145432472229004	7807512.6159703005
2.1486217975616455	7798131.753067048
2.151806354522705	7787344.514274276
2.1549863815307617	7784839.023679818
2.1581614017486572	7837705.604559874
2.16133189201355	7912550.826231717
2.1644976139068604	7986143.439920138
2.167658567428589	8065671.1429864345
2.1708147525787354	8096449.394630588
2.173966407775879	8109932.804792326
2.1771130561828613	8167712.809383384
2.1802549362182617	8232720.50567644
2.183391809463501	8245942.3081729505
2.1865241527557373	8271956.746298362
2.1896514892578125	8333151.751504166
2.1927738189697266	8370533.878999727
2.1958916187286377	8175757.434145169
2.1990041732788086	7604255.32203373
2.2021119594573975	7267765.292317491
2.2052149772644043	7654767.018710752
2.208312749862671	8266371.990300185
2.2114057540893555	8575846.200679744
2.214493751525879	8562207.51880263
2.217576742172241	8152246.017460248
2.2206547260284424	7397195.297774459
2.2237277030944824	6994480.43957727
2.2267956733703613	7014939.935179914
2.2298583984375	7064582.664587622
2.2329163551330566	7218003.89800577
2.235969066619873	7446888.194924131
2.2390167713165283	7694754.013748694
2.2420592308044434	7473919.1516680205
2.2450966835021973	6791537.307423019
2.248128890991211	6614950.709793467
2.2511560916900635	6812668.128076612
2.254178285598755	6870051.742930802
2.257194995880127	7234472.725079578
2.260206699371338	7906893.345716769
2.2632133960723877	8220299.718206349
2.266214609146118	7932626.886446176
2.2692108154296875	7618926.560887537
2.2722020149230957	7730858.217122392
2.2751877307891846	7702160.641495287
2.278168201446533	7444918.524688749
2.2811436653137207	7256281.371590786
2.284113883972168	6949951.006752733
2.287078857421875	6593822.815878039
2.290038824081421	6344622.356703481
2.2929933071136475	6110548.413982
2.295942783355713	6011379.353389611
2.298887014389038	6337412.83973171
2.301826238632202	6901734.833187355
2.304760217666626	7392346.647943292
2.3076889514923096	7891136.462455128
2.310612440109253	8511544.553078745
2.3135311603546143	8399286.475551616
2.3164443969726562	6733866.497767262
2.319352865219116	5645863.600303839
2.322256088256836	6441425.008111014
2.3251543045043945	7275456.8181938855
2.328047275543213	7589447.487591165
2.330935478210449	7606450.168128892
2.3338186740875244	7320836.570871837
2.3366971015930176	6657967.886483598
2.3395702838897705	5904792.269414181
2.3424389362335205	5908326.658835285
2.3453025817871094	6122910.835496066
2.348161458969116	6058476.49174853
2.351015567779541	5973462.508588094
2.353865146636963	6430383.449188244
2.3567099571228027	7516115.847391041
2.3595502376556396	8310693.375515159
2.3623859882354736	8653074.413729202
2.3652172088623047	8725937.399499383
2.368043899536133	7602418.0079830885
2.370866537094116	5604158.155377834
2.3736846446990967	4957068.878107044
2.3764986991882324	5720765.1112652505
2.3793084621429443	6789136.575677192
2.3821144104003906	7513525.109466
2.384916305541992	7684990.31292212
2.387714147567749	8153087.0893969545
2.3905084133148193	8602106.797993477
2.393299102783203	8118948.603886678
2.3960859775543213	7500093.692284368
2.398869514465332	7223404.571526935
2.4016497135162354	6665428.631321993
2.4044265747070312	6316285.657496135
2.407200336456299	6881667.150831668
2.409970998764038	7494008.577818918
2.4127390384674072	7672239.92439569
2.415503978729248	7409199.64976861
2.418266534805298	6699313.094618899
2.4210267066955566	6362461.481801161
2.4237842559814453	6379428.833760461
2.426539897918701	6342725.472738595
2.429293394088745	7009865.336785113
2.4320452213287354	7737755.62258172
2.4347951412200928	6903493.364433406
2.4375438690185547	6502795.747249169
2.440291166305542	7442010.600394664
2.443037271499634	7585238.11242116
2.445782423019409	7424786.037726677
2.4485268592834473	7615575.500556421
2.451270818710327	7320385.719140191
2.454014539718628	7251717.414384325
2.4567582607269287	7715680.282254468
2.4595019817352295	7838044.959876516
2.4622461795806885	8006597.086385419
2.4649908542633057	8230828.348701838
2.4677364826202393	7642445.159311766
2.4704833030700684	7171976.018627615
2.473231554031372	7078287.336617629
2.4759814739227295	7176920.235412375
2.4787333011627197	7625428.483493907
2.481487512588501	7706417.082553208
2.4842441082000732	7884363.211243052
