#wavelength	surface flux
0.6450077295303345	1275.8513163075195
0.6472567915916443	1940.981113629654
0.6494921445846558	2377.77347248886
0.6517150402069092	2537.164001562213
0.6539263725280762	2687.429489047044
0.6561272740364075	2845.673809985847
0.6583186388015747	3011.7878205438715
0.6605015397071838	3185.8539849293275
0.6626768708229065	3367.4583452556967
0.6648455858230591	3556.7502830702974
0.6670085787773132	3753.017854114098
0.6691668033599854	3948.6794942185443
0.6713210344314575	4154.442639684256
0.6734722256660461	4390.183778119512
0.6756211519241333	4638.302967344499
0.6777685880661011	4886.07509659913
0.6799154281616211	5143.318641138603
0.6820623278617859	5411.79625245885
0.6842101216316223	5691.764320433585
0.6863595843315125	5982.235698334469
0.688511312007904	6282.572366645469
0.6906660795211792	6596.822040121795
0.6928245425224304	6929.086668346313
0.6949873566627502	7276.478083560032
0.6971551775932312	7630.097284632655
0.6993286609649658	8007.633067254668
0.7015084028244019	8431.595223814045
0.7036949396133423	8873.573884423486
0.7058889269828796	9316.483212915246
0.7080909013748169	9773.949330514084
0.710301399230957	10252.588722076009
0.712520956993103	10753.554912734186
0.7147500514984131	11268.299531522278
0.7169892191886902	11804.064502112156
0.7192389369010925	12382.76626318607
0.7214996814727783	12993.986544224625
0.723771870136261	13625.996371979882
0.7260559797286987	14285.430421697105
0.7283523678779602	14968.998050592825
0.7306615710258484	15679.786350097103
0.7329838871955872	16415.81919128804
0.7353196740150452	17174.05814745927
0.7376693487167358	17978.34125799828
0.7400332689285278	18826.774873389964
0.7424117922782898	19707.69110746891
0.7448052167892456	20636.092195641126
0.7472138404846191	21623.324815359625
0.7496379613876343	22661.685868107506
0.7520779371261597	23727.40252296711
0.7545340061187744	24807.744905868673
0.7570064663887024	25862.824139865777
0.7594954967498779	26723.422385501734
0.7620013952255249	26390.09406917414
0.7645244002342224	22809.625170566393
0.7670646905899048	18214.644312078024
0.7696225643157959	18684.445995393482
0.7721980810165405	25370.228716963473
0.7747915983200073	32770.017757395115
0.7774031162261963	36548.1742322677
0.7800329327583313	38210.13060458286
0.7826811671257019	40498.51928613627
0.7853479981422424	43240.643328810824
0.7880334854125977	45523.75935420568
0.7907378077507019	47485.53488469157
0.7934610247612	48972.7507624093
0.7962033748626709	51049.541806382105
0.7989648580551147	54268.57010841345
0.801745593547821	57350.54944644986
0.8045456409454346	60083.207838894356
0.8073651194572449	62892.61283603531
0.8102040886878967	65778.96896850437
0.8130625486373901	68806.30636269215
0.8159406185150146	72034.89874059582
0.8188382983207703	75419.02400301825
0.8217556476593018	78906.13648867335
0.8246926665306091	82556.2229782509
0.8276493549346924	86434.69802815976
0.8306257724761963	90489.94677014118
0.8336219191551208	94705.49680326405
0.8366377949714661	99084.7615127085
0.8396733403205872	103634.40593738969
0.8427285552024841	108384.18327431075
0.8458034992218018	113321.05333948626
0.8488980531692505	118503.8178575895
0.8520121574401855	123931.42470966249
0.8551458716392517	129554.11874892408
0.8582990765571594	135362.13532159047
0.8614717125892639	141285.4589505936
0.8646637797355652	147486.07788364185
0.8678751587867737	154179.8036028004
0.8711057901382446	161226.20873017784
0.8743556141853333	168546.00614385775
0.87762451171875	176178.1985138305
0.8809124231338501	184039.30546648058
0.8842192888259888	192164.55908382923
0.8875449895858765	200559.78125232377
0.8908893465995789	208994.7428272627
0.894252359867096	217498.38921415305
0.8976338505744934	226425.01163212102
0.9010337591171265	236621.09221986547
0.9044519662857056	247862.87034616846
0.9078882932662964	258966.7011874184
0.9113426208496094	269999.0173712642
0.914814829826355	281212.9106838463
0.9183048605918884	292826.6206964508
0.9218124747276306	304759.0233738064
0.925337553024292	314468.31030829303
0.9288799166679382	320490.6405552429
0.9324395060539246	325024.891269167
0.9360161423683167	335858.4574403891
0.9396095871925354	359608.36198803666
0.943219780921936	383417.45312364947
0.9468464851379395	396329.2813569501
0.9504896402359009	409185.61694585485
0.9541489481925964	427218.96795124345
0.9578243494033813	445159.17541840265
0.9615156054496765	463720.5456542774
0.9652225375175476	486784.82055455924
0.9689450263977051	510952.05630363105
0.9726828336715698	532104.5914846094
0.9764357805252075	553295.0131081833
0.9802037477493286	576370.4088121131
0.983986496925354	599771.4239350985
0.9877838492393494	623103.7470431274
0.9915955662727356	647863.5360666295
0.9954215884208679	673911.4411993535
0.9992615580558777	699936.9670826533
1.0031154155731201	726125.3615765263
1.0069829225540161	753133.7653782018
1.0108637809753418	781057.7542610859
1.0147579908370972	809822.743391405
1.018665075302124	839395.1030930653
1.022585153579712	869732.7929933356
1.0265177488327026	900913.362788121
1.0304628610610962	932921.6169061881
1.0344202518463135	965836.4125566196
1.0383895635604858	999715.543747925
1.0423706769943237	1034465.3973748329
1.0463634729385376	1070064.5199400436
1.0503677129745483	1106553.7741254184
1.0543830394744873	1144002.7555151046
1.058409333229065	1182719.3451921202
1.0624464750289917	1223426.7185528309
1.0664942264556885	1265466.367734246
1.0705522298812866	1307804.535931391
1.0746204853057861	1350729.6151981277
1.0786986351013184	1394534.2465312635
1.0827864408493042	1439449.2833881013
1.086883783340454	1484464.9857081699
1.0909905433654785	1527456.9369297703
1.0951062440872192	1564592.0202798713
1.0992310047149658	1596496.666497718
1.10336434841156	1638351.3763556357
1.1075061559677124	1693596.8272231757
1.1116561889648438	1726441.3678020635
1.115814208984375	1719954.7361368642
1.1199802160263062	1716130.5934607326
1.124153733253479	1763206.202370537
1.1283347606658936	1865426.5560778682
1.1325229406356812	1951078.5481899187
1.1367181539535522	2010973.9603951406
1.1409201622009277	2081788.5845313258
1.145128846168518	2125595.078744797
1.1493438482284546	2171927.7636620556
1.1535650491714478	2261373.9031739812
1.1577922105789185	2337650.616820922
1.1620250940322876	2387249.8791410746
1.1662636995315552	2456291.6549442387
1.170507550239563	2535754.344334782
1.174756646156311	2622211.355892346
1.1790107488632202	2725465.642080164
1.1832695007324219	2816460.674306648
1.1875330209732056	2902101.7556774747
1.191800832748413	2996129.3749609017
1.1960728168487549	3079435.7099390654
1.2003488540649414	3158557.3599657053
1.2046287059783936	3246795.297764592
1.2089121341705322	3333627.3326740973
1.2131990194320679	3415576.024405873
1.2174891233444214	3501376.422925095
1.2217823266983032	3591404.6515782075
1.2260783910751343	3680719.129824868
1.230377197265625	3770191.3955877637
1.2346785068511963	3862842.86831643
1.238982081413269	3957422.192531254
1.2432878017425537	4051742.0590807693
1.2475954294204712	4145689.1938510733
1.2519049644470215	4238929.499737047
1.256216049194336	4335239.531591884
1.2605286836624146	4435546.040832731
1.2648425102233887	4534884.600061894
1.2691574096679688	4632334.4736331655
1.2734732627868652	4731494.887487063
1.2777899503707886	4832547.3037252175
1.2821072340011597	4931688.305253919
1.2864248752593994	5030739.811750938
1.2907428741455078	5122017.723030372
1.2950609922409058	5207336.408012494
1.2993791103363037	5317783.755555545
1.303696870803833	5447896.7038665
1.3080145120620728	5565896.300606779
1.3123314380645752	5667247.417233272
1.3166478872299194	5758241.958945699
1.3209635019302368	5833794.422040491
1.3252781629562378	5915840.182509022
1.3295916318893433	5950321.389448608
1.3339040279388428	5747821.447676318
1.3382149934768677	5417877.189342243
1.3425244092941284	5237865.816887698
1.3468321561813354	5137854.59372172
1.3511382341384888	4926765.634440602
1.3554422855377197	4770940.118616184
1.3597444295883179	4833008.123578068
1.3640443086624146	4961153.485986702
1.3683418035507202	5189846.641625553
1.3726370334625244	5524794.045639736
1.3769296407699585	5905347.707879661
1.381219506263733	6183635.975507413
1.3855066299438477	6159186.753218239
1.3897908926010132	6020719.475718789
1.3940720558166504	5970376.271841653
1.3983501195907593	6058843.342628871
1.4026249647140503	6130593.951582873
1.4068963527679443	6230683.411615921
1.4111642837524414	6465478.624822879
1.4154287576675415	6348609.870064088
1.419689416885376	5961884.32731479
1.4239463806152344	5870973.975581541
1.4281994104385376	6194246.390597981
1.4324485063552856	6840024.444171689
1.436693549156189	7231040.077228622
1.440934419631958	7331679.822322335
1.4451709985733032	7619917.936756012
1.449403166770935	7912974.578387965
1.453631043434143	8174676.419603479
1.4578542709350586	8568676.736883534
1.4620729684829712	8726985.519699886
1.4662868976593018	8690706.106347822
1.4704961776733398	8907188.049900522
1.4747005701065063	9222292.931938237
1.4788999557495117	9534682.296422575
1.4830944538116455	9784234.87324058
1.4872838258743286	9878233.06019811
1.491468071937561	9990992.354147969
1.4956470727920532	10182545.302542238
1.4998208284378052	10392247.525454853
1.5039892196655273	10743330.71047321
1.5081522464752197	11120829.408585254
1.5123097896575928	11379825.263378218
1.5164618492126465	11637999.442208346
1.5206083059310913	11890825.533297956
1.5247491598129272	12044689.016190689
1.5288842916488647	12113036.816298645
1.5330137014389038	12311248.035045266
1.5371372699737549	12644627.842994472
1.541254997253418	12913208.50334067
1.545366883277893	13100373.26387425
1.5494728088378906	13278974.624866605
1.5535727739334106	13452400.917122291
1.5576666593551636	13603040.72164835
1.561754584312439	13754346.250007292
1.5658363103866577	13940501.323933532
1.5699119567871094	14120956.127143342
1.5739814043045044	14291235.00428065
1.5780447721481323	14483889.109095804
1.582101821899414	14668088.88641087
1.5861525535583496	14837401.982753256
1.5901970863342285	15004711.766367048
1.5942351818084717	15172272.96135926
1.5982669591903687	15337155.594651712
1.6022924184799194	15495693.780720936
1.606311559677124	15651341.536946218
1.6103241443634033	15807709.512116598
1.6143304109573364	15968627.796813799
1.6183301210403442	16116242.119369878
1.6223233938217163	16171821.250395508
1.6263102293014526	16136267.194302965
1.6302905082702637	16102495.089979704
1.634264349937439	16155469.642196933
1.638231635093689	16507378.755508982
1.6421923637390137	16935373.724332936
1.646146535873413	17139620.6251973
1.6500942707061768	17282155.58175784
1.6540353298187256	17383885.761889614
1.6579699516296387	17484089.38354296
1.661897897720337	17441709.21563628
1.6658192873001099	17080084.02641547
1.6697341203689575	17233169.66995559
1.6736423969268799	17881001.533623043
1.677544116973877	18122094.392553806
1.6814392805099487	18238407.033117108
1.6853278875350952	18492138.659493003
1.6892099380493164	18636968.337967098
1.6930854320526123	18672055.740877934
1.696954369544983	18717225.092224363
1.7008168697357178	18758730.45414849
1.7046726942062378	18870408.91089266
1.708522081375122	19189786.15126783
1.712364912033081	19570839.573976994
1.7162011861801147	19774506.886150554
1.7200311422348022	19820100.042607613
1.723854422569275	19683870.278426647
1.7276713848114014	19371019.11091116
1.731481909751892	19172025.486049607
1.7352858781814575	19222867.25548986
1.7390835285186768	19402033.16474857
1.7428747415542603	19630978.60907438
1.7466596364974976	20004243.36122479
1.7504380941390991	20175656.45057348
1.7542102336883545	19908098.11494031
1.7579760551452637	19790081.798243552
1.7617355585098267	19837491.45862476
1.7654887437820435	19527672.9222965
1.7692357301712036	19158407.691252656
1.7729763984680176	19191464.166965425
1.776710867881775	19286443.904400565
1.7804391384124756	19168452.41043089
1.7841613292694092	19054829.145099986
1.7878772020339966	18534396.64067621
1.7915871143341064	17696390.090346802
1.7952908277511597	17514330.599973015
1.7989884614944458	17456080.306811716
1.8026801347732544	17413588.17596108
1.806365728378296	17164540.894377768
1.8100452423095703	16852406.89779921
1.8137187957763672	17795630.546674583
1.817386507987976	18711371.757046144
1.8210482597351074	18998065.363079242
1.8247040510177612	19416014.362959355
1.828354001045227	19367838.51487861
1.8319982290267944	19555301.14896636
1.8356364965438843	20119855.930616386
1.8392690420150757	19656701.66702865
1.8428958654403687	18604112.15947199
1.8465168476104736	17678020.48082252
1.8501322269439697	17854318.81940662
1.8537418842315674	18252392.990978904
1.8573459386825562	17522158.044344034
1.860944390296936	16820150.815600283
1.864537239074707	16710608.475545777
1.8681244850158691	17064263.374117546
1.871706247329712	17500946.821822505
1.8752825260162354	18294725.042990834
1.8788533210754395	19528556.624494974
1.8824186325073242	20238431.338572275
1.8859784603118896	20741495.41040538
1.8895330429077148	21576790.74412432
1.8930821418762207	22039182.111486048
1.8966259956359863	22108499.615789425
1.9001644849777222	21919301.805259176
1.9036977291107178	22087453.967234313
1.9072256088256836	22676503.344450258
1.9107483625411987	22492864.357021566
1.9142658710479736	22413708.656747006
1.9177782535552979	22524435.028354786
1.9212853908538818	21552368.146549806
1.9247875213623047	21457935.52130289
1.9282845258712769	22443035.918878727
1.9317764043807983	22199638.024195302
1.9352631568908691	21283356.46266256
1.9387450218200684	20177920.15726171
1.942221760749817	19312265.41762561
1.9456936120986938	19298538.176234867
1.9491604566574097	19925473.06765075
1.952622413635254	20183835.227988355
1.956079363822937	19083352.76987324
1.959531545639038	18877217.16845055
1.962978720664978	21191138.74025729
1.966421127319336	23453246.068823468
1.9698586463928223	23816472.45126812
1.9732913970947266	23526185.04901142
1.9767193794250488	23661492.43313069
1.9801424741744995	24449133.610730223
1.9835609197616577	25260579.353273407
1.9869745969772339	24972282.467766758
1.990383505821228	24207876.755954556
1.9937876462936401	24797656.60410608
1.9971871376037598	25382912.096372135
2.000581979751587	24820964.71737739
2.003972291946411	25092335.222367167
2.007357597351074	26411369.852241248
2.0107386112213135	27624795.866478864
2.0141148567199707	27901071.210711207
2.017486572265625	27796578.092574142
2.0208535194396973	28528119.436031993
2.0242159366607666	29013111.93485744
2.027573823928833	28281931.132442415
2.0309269428253174	28004967.679191872
2.034275770187378	28801473.518602666
2.0376198291778564	29330403.533153974
2.040959596633911	29449315.859373268
2.044294595718384	30053954.95208313
2.0476250648498535	30714548.69083956
2.0509510040283203	30990539.529775646
2.054272413253784	31327115.722729385
2.057589530944824	31695916.180071425
2.0609018802642822	31882965.944553185
2.0642096996307373	31996694.822696466
2.0675129890441895	32280457.436185528
2.0708119869232178	32611690.936387494
2.074106216430664	32873929.31001184
2.0773961544036865	32901043.87740499
2.080681324005127	32729138.996415194
2.0839622020721436	32825602.590017352
2.087238311767578	33147434.538405973
2.090510129928589	33496220.23278584
2.0937774181365967	33819634.571244106
2.0970399379730225	33968662.483911484
2.1002981662750244	34061947.840957366
2.1035518646240234	34220459.27654973
2.1068007946014404	34361188.15728011
2.1100454330444336	34370394.17143401
2.1132853031158447	34369491.13076371
2.116520881652832	34513718.05127544
2.1197516918182373	34749143.82126852
2.1229779720306396	34910285.23844225
2.12619948387146	34980924.403702624
2.1294167041778564	35105063.00440837
2.132629156112671	35273938.80277485
2.1358368396759033	35393356.68066935
2.139039993286133	35459218.98024036
2.1422386169433594	35528987.6853673
2.145432472229004	35570584.67126638
2.1486217975616455	35581480.840171315
2.151806354522705	35643713.11070954
2.1549863815307617	35700413.098466605
2.1581614017486572	35830755.31720055
2.16133189201355	36023977.24303876
2.1644976139068604	36153132.57404485
2.167658567428589	36254917.47139872
2.1708147525787354	36296213.475309655
2.173966407775879	36315713.90909563
2.1771130561828613	36436262.50201506
2.1802549362182617	36585122.60409091
2.183391809463501	36611834.01805131
2.1865241527557373	36635344.77197662
2.1896514892578125	36773938.30724022
2.1927738189697266	36869894.701328844
2.1958916187286377	36668220.33959092
2.1990041732788086	36104145.71423813
2.2021119594573975	35827271.026808344
2.2052149772644043	36317143.63989922
2.208312749862671	37005654.66162979
2.2114057540893555	37345247.660471804
2.214493751525879	37303138.528473064
2.217576742172241	36588159.19913529
2.2206547260284424	35372706.5628449
2.2237277030944824	34926866.78809964
2.2267956733703613	35096955.13705089
2.2298583984375	35184958.68907643
2.2329163551330566	35359177.64242334
2.235969066619873	35464162.95135848
2.2390167713165283	35876441.52115607
2.2420592308044434	35873080.80679388
2.2450966835021973	35031813.70128463
2.248128890991211	34921197.05664733
2.2511560916900635	35094384.79163603
2.254178285598755	34606129.23451877
2.257194995880127	35009361.96995809
2.260206699371338	36490997.08558354
2.2632133960723877	37105471.61993121
2.266214609146118	36478611.237504326
2.2692108154296875	35943313.095050424
2.2722020149230957	36401856.630817175
2.2751877307891846	36860708.098605126
2.278168201446533	36417842.34337164
2.2811436653137207	35744964.245728865
2.284113883972168	35151887.35679153
2.287078857421875	34597614.69586333
2.290038824081421	34081248.65094236
2.2929933071136475	32480191.104693733
2.295942783355713	31220675.318587903
2.298887014389038	32344959.248540312
2.301826238632202	33312060.62954486
2.304760217666626	32960043.163051605
2.3076889514923096	33799559.30654243
2.310612440109253	35790849.42719037
2.3135311603546143	35797917.03106556
2.3164443969726562	32977925.159706026
2.319352865219116	30865067.830951355
2.322256088256836	31001101.187124554
2.3251543045043945	31774667.105171148
2.328047275543213	33046896.718131922
2.330935478210449	33977471.2162189
2.3338186740875244	33626095.59087557
2.3366971015930176	32342807.627912063
2.3395702838897705	31679804.198924758
2.3424389362335205	32106301.028293613
2.3453025817871094	31536915.21035809
2.348161458969116	30466465.463937346
2.351015567779541	29451432.937507782
2.353865146636963	29698889.25383667
2.3567099571228027	32195414.2973802
2.3595502376556396	33690568.4436731
2.3623859882354736	33938779.24175189
2.3652172088623047	34163198.73924954
2.368043899536133	32126973.004340112
2.370866537094116	28744591.0302523
2.3736846446990967	28278995.49510011
2.3764986991882324	29631661.611629613
2.3793084621429443	30733014.17876797
2.3821144104003906	32015639.435182698
2.384916305541992	32751183.519650076
2.387714147567749	33569270.29282146
2.3905084133148193	33908634.0171224
2.393299102783203	32417175.40171196
2.3960859775543213	32182767.10598724
2.398869514465332	33114580.01512265
2.4016497135162354	32049759.21228862
2.4044265747070312	31152929.52860765
2.407200336456299	32139078.525985908
2.409970998764038	32960544.692397997
2.4127390384674072	33175840.49234558
2.415503978729248	32662255.418792345
2.418266534805298	31374715.244854264
2.4210267066955566	31139683.8983839
2.4237842559814453	31668289.419007067
2.426539897918701	31710527.28714115
2.429293394088745	32164021.41386613
2.4320452213287354	31676008.55398786
2.4347951412200928	28292288.82559103
2.4375438690185547	27485845.737199593
2.440291166305542	30162815.269328173
2.443037271499634	30127906.659611333
2.445782423019409	29533828.71775834
2.4485268592834473	30877599.569328226
2.451270818710327	30229532.65154927
2.454014539718628	28615349.7984164
2.4567582607269287	29724019.57927483
2.4595019817352295	30359073.061036434
2.4622461795806885	30608137.326548066
2.4649908542633057	31042651.453075215
2.4677364826202393	28672851.955806524
2.4704833030700684	26684308.72990731
2.473231554031372	25342402.093431335
2.4759814739227295	25458600.191734437
2.4787333011627197	27336610.01852676
