#wavelength	surface flux
0.6450077295303345	56030.73736304206
0.6472567915916443	84331.34097745517
0.6494921445846558	101313.02754378975
0.6517150402069092	105588.63084830304
0.6539263725280762	109184.35095900699
0.6561272740364075	112823.24817016715
0.6583186388015747	116570.15214181195
0.6605015397071838	120420.60710114327
0.6626768708229065	124282.68735840824
0.6648455858230591	128225.8575597519
0.6670085787773132	131723.7488500363
0.6691668033599854	133470.0165826995
0.6713210344314575	136211.2207934029
0.6734722256660461	142677.35269845542
0.6756211519241333	149270.0940957886
0.6777685880661011	154164.535247293
0.6799154281616211	158696.9761611495
0.6820623278617859	163408.2681682021
0.6842101216316223	168437.463687171
0.6863595843315125	173503.08551872862
0.688511312007904	178482.72649226195
0.6906660795211792	183379.2183793877
0.6928245425224304	188551.57852613952
0.6949873566627502	194267.85012746495
0.6971551775932312	200095.24025952222
0.6993286609649658	205816.50215929723
0.7015084028244019	211606.76746196035
0.7036949396133423	217567.5055651447
0.7058889269828796	223693.1007923786
0.7080909013748169	229901.9885198237
0.710301399230957	236230.5106403075
0.712520956993103	242752.66274301882
0.7147500514984131	249388.3177684749
0.7169892191886902	256112.24645856247
0.7192389369010925	263082.2333251311
0.7214996814727783	270233.46931318217
0.723771870136261	277449.2246220013
0.7260559797286987	284826.1528906521
0.7283523678779602	292389.6141475994
0.7306615710258484	300196.99611375463
0.7329838871955872	308312.2523470204
0.7353196740150452	316580.93419032806
0.7376693487167358	324959.1520281469
0.7400332689285278	333457.55640878703
0.7424117922782898	341951.39204249025
0.7448052167892456	350453.792785664
0.7472138404846191	358890.58330190094
0.7496379613876343	366980.0672804992
0.7520779371261597	374249.2724930754
0.7545340061187744	379733.17555272824
0.7570064663887024	381128.38953461166
0.7594954967498779	371129.2765387602
0.7620013952255249	325388.20881117677
0.7645244002342224	220588.02922990444
0.7670646905899048	114769.1715000209
0.7696225643157959	111547.35588455916
0.7721980810165405	232971.54448753595
0.7747915983200073	375869.5383565541
0.7774031162261963	451259.8944225483
0.7800329327583313	483011.83906310075
0.7826811671257019	507197.39728981786
0.7853479981422424	529161.1740896221
0.7880334854125977	547477.0775368342
0.7907378077507019	556287.1829144441
0.7934610247612	546766.6085151063
0.7962033748626709	555030.6102489535
0.7989648580551147	597168.010014465
0.801745593547821	630638.9320981101
0.8045456409454346	648877.4207958874
0.8073651194572449	666233.6770614219
0.8102040886878967	683389.8017412184
0.8130625486373901	701114.8955238913
0.8159406185150146	720098.7516692603
0.8188382983207703	739537.036372934
0.8217556476593018	758985.1695620056
0.8246926665306091	779075.5711531867
0.8276493549346924	799730.5059870897
0.8306257724761963	820616.1425592212
0.8336219191551208	841950.6416771993
0.8366377949714661	863640.3852923465
0.8396733403205872	886169.0731393014
0.8427285552024841	909932.8299956475
0.8458034992218018	934078.1615035267
0.8488980531692505	958231.4113494642
0.8520121574401855	982889.3206948622
0.8551458716392517	1008501.9259361884
0.8582990765571594	1034026.5508779908
0.8614717125892639	1057920.7823596022
0.8646637797355652	1082911.0668843961
0.8678751587867737	1111148.6597869368
0.8711057901382446	1140218.7321254704
0.8743556141853333	1169290.713216826
0.87762451171875	1198545.1763492315
0.8809124231338501	1228105.0152473329
0.8842192888259888	1258790.8132698005
0.8875449895858765	1289443.1267673129
0.8908893465995789	1318837.1037812582
0.894252359867096	1349783.8996004527
0.8976338505744934	1384796.5671625577
0.9010337591171265	1421506.4097076887
0.9044519662857056	1457644.7197308014
0.9078882932662964	1493372.1272341157
0.9113426208496094	1528866.9391221611
0.914814829826355	1563727.4814129001
0.9183048605918884	1599720.6510676986
0.9218124747276306	1635928.8328832122
0.925337553024292	1660658.3732796104
0.9288799166679382	1674738.030051536
0.9324395060539246	1703449.0131533374
0.9360161423683167	1752414.6510197497
0.9396095871925354	1803818.9800803198
0.943219780921936	1843718.0572753886
0.9468464851379395	1878985.0294298066
0.9504896402359009	1923542.1684099988
0.9541489481925964	1973105.926994736
0.9578243494033813	2015201.8705176094
0.9615156054496765	2048159.8661580104
0.9652225375175476	2087448.9969668821
0.9689450263977051	2142926.33197816
0.9726828336715698	2210101.6067891954
0.9764357805252075	2272583.633425837
0.9802037477493286	2326804.3111107373
0.983986496925354	2381188.4563769847
0.9877838492393494	2436874.19849269
0.9915955662727356	2493692.9872982376
0.9954215884208679	2550338.518127815
0.9992615580558777	2605702.0819597836
1.0031154155731201	2660828.156579974
1.0069829225540161	2719059.7252926086
1.0108637809753418	2780339.021180671
1.0147579908370972	2842335.42891082
1.018665075302124	2903112.3468979457
1.022585153579712	2960800.970329294
1.0265177488327026	3017208.9065383584
1.0304628610610962	3077460.298783357
1.0344202518463135	3143297.189947257
1.0383895635604858	3209751.968738792
1.0423706769943237	3274379.657816412
1.0463634729385376	3338766.7192030856
1.0503677129745483	3403426.539011527
1.0543830394744873	3469518.6789652575
1.058409333229065	3536214.640790717
1.0624464750289917	3602348.041624469
1.0664942264556885	3668733.1499372004
1.0705522298812866	3736209.6870777197
1.0746204853057861	3805778.0811915044
1.0786986351013184	3876982.2523365985
1.0827864408493042	3947934.7621067814
1.086883783340454	4015817.6133626644
1.0909905433654785	4079068.2898545773
1.0951062440872192	4134654.255355605
1.0992310047149658	4157604.815133194
1.10336434841156	4153907.922452119
1.1075061559677124	4190076.00783566
1.1116561889648438	4249898.380490267
1.115814208984375	4290853.772563271
1.1199802160263062	4345772.41193731
1.124153733253479	4438316.184169809
1.1283347606658936	4520879.058849755
1.1325229406356812	4540490.502779154
1.1367181539535522	4618093.918419508
1.1409201622009277	4786071.652961344
1.145128846168518	4910117.310148355
1.1493438482284546	4923001.249819192
1.1535650491714478	4876555.755110066
1.1577922105789185	4911117.494426084
1.1620250940322876	5045820.435667734
1.1662636995315552	5208410.330312108
1.170507550239563	5338681.292280047
1.174756646156311	5461948.602037106
1.1790107488632202	5608645.657808414
1.1832695007324219	5736628.210991139
1.1875330209732056	5839191.880779614
1.191800832748413	5939548.183645969
1.1960728168487549	6045784.462841411
1.2003488540649414	6143729.815179337
1.2046287059783936	6232890.799017717
1.2089121341705322	6322879.327366297
1.2131990194320679	6417526.210938973
1.2174891233444214	6515420.103211061
1.2217823266983032	6611465.363429348
1.2260783910751343	6703672.816183063
1.230377197265625	6793115.187773487
1.2346785068511963	6881504.573190135
1.238982081413269	6972399.160158631
1.2432878017425537	7065363.45567346
1.2475954294204712	7156699.155186754
1.2519049644470215	7246772.477260762
1.256216049194336	7341311.179046377
1.2605286836624146	7435015.667265585
1.2648425102233887	7522746.318519065
1.2691574096679688	7609601.383277514
1.2734732627868652	7697920.888292177
1.2777899503707886	7786489.004623717
1.2821072340011597	7873196.895993229
1.2864248752593994	7955873.643165797
1.2907428741455078	8034834.241928589
1.2950609922409058	8120713.837528595
1.2993791103363037	8207948.370616812
1.303696870803833	8286165.305547824
1.3080145120620728	8370110.580507624
1.3123314380645752	8466708.65111958
1.3166478872299194	8564934.614476467
1.3209635019302368	8632653.11266153
1.3252781629562378	8639511.344463179
1.3295916318893433	8490174.280417275
1.3339040279388428	7958166.785601243
1.3382149934768677	7025033.207526218
1.3425244092941284	6507297.579216547
1.3468321561813354	6719319.314002606
1.3511382341384888	6561908.489644236
1.3554422855377197	6065534.406766928
1.3597444295883179	5968855.308510149
1.3640443086624146	6246100.123632121
1.3683418035507202	6815492.570273039
1.3726370334625244	7575605.11032606
1.3769296407699585	8037036.163827086
1.381219506263733	7408715.432994327
1.3855066299438477	6430904.219635314
1.3897908926010132	6151580.600497134
1.3940720558166504	6183951.846622428
1.3983501195907593	6371253.656367712
1.4026249647140503	7124041.087059126
1.4068963527679443	7748207.848227799
1.4111642837524414	7277989.901449548
1.4154287576675415	6983238.203875941
1.419689416885376	7278787.438886984
1.4239463806152344	7297030.1536815
1.4281994104385376	7507551.263730542
1.4324485063552856	7606668.847646986
1.436693549156189	7549206.488793594
1.440934419631958	8036834.794435837
1.4451709985733032	8859409.042110939
1.449403166770935	9593070.721195906
1.453631043434143	9983271.208520593
1.4578542709350586	10176566.492675714
1.4620729684829712	10369001.20707742
1.4662868976593018	10458225.548815573
1.4704961776733398	10452297.657438785
1.4747005701065063	10524939.600655401
1.4788999557495117	10699062.42483457
1.4830944538116455	10964668.743853413
1.4872838258743286	11230886.769552322
1.491468071937561	11358421.418798063
1.4956470727920532	11431649.80578911
1.4998208284378052	11605819.898442363
1.5039892196655273	11811441.134610664
1.5081522464752197	11911433.263909582
1.5123097896575928	12006252.775627708
1.5164618492126465	12179172.50675252
1.5206083059310913	12392280.631465595
1.5247491598129272	12558027.59582013
1.5288842916488647	12639612.836534759
1.5330137014389038	12735907.718753416
1.5371372699737549	12860080.113162588
1.541254997253418	12955205.56426928
1.545366883277893	13054942.46895917
1.5494728088378906	13172749.675044788
1.5535727739334106	13266647.92451907
1.5576666593551636	13324689.990952278
1.561754584312439	13403174.933528548
1.5658363103866577	13529272.114448037
1.5699119567871094	13639277.868619794
1.5739814043045044	13691852.003016924
1.5780447721481323	13722484.730168644
1.582101821899414	13815281.732122017
1.5861525535583496	13958218.671272563
1.5901970863342285	14062071.228132403
1.5942351818084717	14126917.388011947
1.5982669591903687	14187075.92836504
1.6022924184799194	14263204.03437638
1.606311559677124	14351564.184162049
1.6103241443634033	14425914.938907025
1.6143304109573364	14487867.920146508
1.6183301210403442	14550670.597284881
1.6223233938217163	14620983.10671917
1.6263102293014526	14695930.39171738
1.6302905082702637	14757822.22286232
1.634264349937439	14828866.52567252
1.638231635093689	14925759.67085514
1.6421923637390137	15011685.466591068
1.646146535873413	15071265.586591402
1.6500942707061768	15123575.768138645
1.6540353298187256	15191354.023454757
1.6579699516296387	15261283.395606406
1.661897897720337	15300393.445984252
1.6658192873001099	15304579.222922452
1.6697341203689575	15346663.172788572
1.6736423969268799	15473436.697934698
1.677544116973877	15590789.743258677
1.6814392805099487	15658397.622610625
1.6853278875350952	15714460.710713426
1.6892099380493164	15744908.559374498
1.6930854320526123	15731393.56093404
1.696954369544983	15728211.416158387
1.7008168697357178	15793201.01943639
1.7046726942062378	15869136.055453552
1.708522081375122	15910737.157017244
1.712364912033081	15944550.226759512
1.7162011861801147	16000675.196157428
1.7200311422348022	16073446.659953922
1.723854422569275	16118798.46817791
1.7276713848114014	16121870.436559577
1.731481909751892	16077116.493154082
1.7352858781814575	16009351.479551334
1.7390835285186768	15962867.957882022
1.7428747415542603	15890950.508028625
1.7466596364974976	15758850.637086852
1.7504380941390991	15568831.706770798
1.7542102336883545	15450097.45336853
1.7579760551452637	15727098.668691428
1.7617355585098267	16100485.080180774
1.7654887437820435	15995353.745528417
1.7692357301712036	15482261.100793088
1.7729763984680176	14661993.471543286
1.776710867881775	13628838.49370272
1.7804391384124756	13191076.315622255
1.7841613292694092	13222520.149627568
1.7878772020339966	12962443.355355103
1.7915871143341064	13058515.05455352
1.7952908277511597	13290425.678292036
1.7989884614944458	12597165.462742075
1.8026801347732544	11138364.344586283
1.806365728378296	9715441.111504434
1.8100452423095703	9732516.363564169
1.8137187957763672	10645939.682676855
1.817386507987976	10551612.482979147
1.8210482597351074	10969344.960253796
1.8247040510177612	11363522.118385086
1.828354001045227	10304395.208857842
1.8319982290267944	10426987.8003752
1.8356364965438843	11840570.28360315
1.8392690420150757	12912214.39705329
1.8428958654403687	13309546.524542226
1.8465168476104736	13265506.526185349
1.8501322269439697	12683990.19009277
1.8537418842315674	11101805.474444011
1.8573459386825562	10297908.905456657
1.860944390296936	10323546.94344915
1.864537239074707	10028616.617471231
1.8681244850158691	10890778.388802147
1.871706247329712	12611678.713852275
1.8752825260162354	13719646.751103856
1.8788533210754395	14434806.000731645
1.8824186325073242	14845631.32975774
1.8859784603118896	14622214.615901254
1.8895330429077148	14457457.7964172
1.8930821418762207	14965639.491079748
1.8966259956359863	14862928.214553827
1.9001644849777222	13103675.266466254
1.9036977291107178	11398773.607419794
1.9072256088256836	11551413.795206305
1.9107483625411987	11574989.591481913
1.9142658710479736	10295011.406739172
1.9177782535552979	10254481.425033411
1.9212853908538818	11318033.858915912
1.9247875213623047	11392994.201149762
1.9282845258712769	11539890.44342413
1.9317764043807983	12555310.035058273
1.9352631568908691	12940272.624122497
1.9387450218200684	12502977.564200351
1.942221760749817	12433945.214122193
1.9456936120986938	12609295.77401772
1.9491604566574097	12581340.841350565
1.952622413635254	12236049.160818318
1.956079363822937	11891119.115631193
1.959531545639038	12304740.097366724
1.962978720664978	12818715.312400676
1.966421127319336	13451377.6575954
1.9698586463928223	14481533.036791686
1.9732913970947266	14958494.635481125
1.9767193794250488	15137696.965203816
1.9801424741744995	15719422.040123908
1.9835609197616577	16265823.913711533
1.9869745969772339	16267308.289223207
1.990383505821228	15784673.403602934
1.9937876462936401	15627885.995219538
1.9971871376037598	15718339.0320274
2.000581979751587	15936724.222042901
2.003972291946411	16638977.446602922
2.007357597351074	17174677.125676855
2.0107386112213135	17521012.510975067
2.0141148567199707	17705225.201124128
2.017486572265625	17493664.170382828
2.0208535194396973	17569015.728169814
2.0242159366607666	18018650.589180317
2.027573823928833	18309221.455167487
2.0309269428253174	18468027.60747085
2.034275770187378	18646452.109209247
2.0376198291778564	18782086.143165875
2.040959596633911	18894017.793456156
2.044294595718384	19040388.756226234
2.0476250648498535	19190832.66875668
2.0509510040283203	19244968.03889859
2.054272413253784	19204203.876733147
2.057589530944824	19240465.350813758
2.0609018802642822	19357887.579190373
2.0642096996307373	19457619.34839868
2.0675129890441895	19529549.080071732
2.0708119869232178	19570005.623642493
2.074106216430664	19574270.631414592
2.0773961544036865	19581597.514531426
2.080681324005127	19622807.54523929
2.0839622020721436	19674267.213548865
2.087238311767578	19717711.932388753
2.090510129928589	19737670.604424987
2.0937774181365967	19740829.51368687
2.0970399379730225	19764341.558125883
2.1002981662750244	19795298.53013779
2.1035518646240234	19804494.321817774
2.1068007946014404	19809261.138964668
2.1100454330444336	19858811.02790225
2.1132853031158447	19926606.95516395
2.116520881652832	19948071.87061595
2.1197516918182373	19960445.25186223
2.1229779720306396	19999382.08188467
2.12619948387146	20037574.64932082
2.1294167041778564	20061442.722628962
2.132629156112671	20084250.075427733
2.1358368396759033	20096045.827258945
2.139039993286133	20090484.214276675
2.1422386169433594	20090930.73283423
2.145432472229004	20101998.758442137
2.1486217975616455	20110319.608292244
2.151806354522705	20109843.796222553
2.1549863815307617	20118795.561031926
2.1581614017486572	20140856.24204418
2.16133189201355	20154779.863635466
2.1644976139068604	20163873.41267884
2.167658567428589	20170722.37316021
2.1708147525787354	20167744.35885243
2.173966407775879	20153694.19819002
2.1771130561828613	20149455.90801252
2.1802549362182617	20170740.5944428
2.183391809463501	20190639.408733487
2.1865241527557373	20192587.336437993
2.1896514892578125	20180100.91388089
2.1927738189697266	20117779.307527546
2.1958916187286377	19981746.020560473
2.1990041732788086	19852240.618123207
2.2021119594573975	19804041.29438234
2.2052149772644043	19804754.16222392
2.208312749862671	19839183.355081
2.2114057540893555	19907388.92913409
2.214493751525879	19951328.276608292
2.217576742172241	19940173.22145097
2.2206547260284424	19926744.792612825
2.2237277030944824	19922598.71193889
2.2267956733703613	19864264.397036076
2.2298583984375	19771690.812441807
2.2329163551330566	19719516.01986634
2.235969066619873	19719707.808478337
2.2390167713165283	19700764.639553722
2.2420592308044434	19577243.630720004
2.2450966835021973	19416855.745774202
2.248128890991211	19401318.390598066
2.2511560916900635	19524435.04961759
2.254178285598755	19625989.105220232
2.257194995880127	19678818.779659156
2.260206699371338	19672328.124720577
2.2632133960723877	19527534.232728623
2.266214609146118	19321600.592797864
2.2692108154296875	19241833.50837411
2.2722020149230957	19343884.70738393
2.2751877307891846	19483902.616705105
2.278168201446533	19484362.699272268
2.2811436653137207	19374462.494131453
2.284113883972168	19315691.771583088
2.287078857421875	19307516.063217256
2.290038824081421	19173813.947241414
2.2929933071136475	18748572.06917661
2.295942783355713	18019981.42860639
2.298887014389038	17162905.608148236
2.301826238632202	16399545.00440136
2.304760217666626	15797183.12798537
2.3076889514923096	15402560.036009308
2.310612440109253	15449487.064795194
2.3135311603546143	15719426.537426645
2.3164443969726562	15596348.970993286
2.319352865219116	15191341.424450906
2.322256088256836	14958912.128179416
2.3251543045043945	14917803.70395141
2.328047275543213	14975371.296398107
2.330935478210449	15177355.41432339
2.3338186740875244	15501896.772508167
2.3366971015930176	15855414.564576382
2.3395702838897705	16221605.949142853
2.3424389362335205	16621126.485149337
2.3453025817871094	17068091.660196025
2.348161458969116	17333337.766981833
2.351015567779541	17226760.904878978
2.353865146636963	16968420.737325434
2.3567099571228027	16754859.18403519
2.3595502376556396	16783996.04233814
2.3623859882354736	17172956.96406977
2.3652172088623047	17235640.024674207
2.368043899536133	16500936.967653863
2.370866537094116	16060463.000420565
2.3736846446990967	16498716.023901094
2.3764986991882324	16436285.049701495
2.3793084621429443	15590301.322794488
2.3821144104003906	15274755.353929374
2.384916305541992	15985265.876251778
2.387714147567749	17142883.38485942
2.3905084133148193	17907725.636476874
2.393299102783203	17920903.133369137
2.3960859775543213	17251408.328911275
2.398869514465332	16442182.484740376
2.4016497135162354	15986403.578939933
2.4044265747070312	15902769.559950672
2.407200336456299	16142666.409030959
2.409970998764038	16473029.756675458
2.4127390384674072	16640722.969295735
2.415503978729248	16775479.456967456
2.418266534805298	17069698.49450574
2.4210267066955566	17326748.562249828
2.4237842559814453	17296462.605962824
2.426539897918701	17081489.91489805
2.429293394088745	16883131.280537285
2.4320452213287354	16823974.33170249
2.4347951412200928	16938209.062632903
2.4375438690185547	17021861.275127787
2.440291166305542	16823271.357982952
2.443037271499634	16355283.17763604
2.445782423019409	15839009.869274816
2.4485268592834473	15374797.532672824
2.451270818710327	15130647.851175644
2.454014539718628	15608241.849308943
2.4567582607269287	16280814.860788321
2.4595019817352295	16123074.148526855
2.4622461795806885	16085543.693264708
2.4649908542633057	16213291.775847109
2.4677364826202393	15235009.845963461
2.4704833030700684	13546741.74647697
2.473231554031372	11809962.75553621
2.4759814739227295	10343350.426228931
