#wavelength	surface flux
0.6450077295303345	257541.126129924
0.6472567915916443	405675.33499338065
0.6494921445846558	529159.3712208419
0.6517150402069092	606926.0781679676
0.6539263725280762	686723.4798605804
0.6561272740364075	771365.8723407818
0.6583186388015747	860004.567845946
0.6605015397071838	950720.2013054624
0.6626768708229065	1039210.4877714555
0.6648455858230591	1109059.6515701849
0.6670085787773132	1087454.4139632247
0.6691668033599854	893886.5541591418
0.6713210344314575	796768.4168026551
0.6734722256660461	1100513.7590933486
0.6756211519241333	1520967.4149344948
0.6777685880661011	1780337.2779670823
0.6799154281616211	1950887.464369547
0.6820623278617859	2095971.7441191692
0.6842101216316223	2230163.0431249896
0.6863595843315125	2356244.444371981
0.688511312007904	2471997.34294945
0.6906660795211792	2574040.770293639
0.6928245425224304	2668813.8636350483
0.6949873566627502	2770710.121867288
0.6971551775932312	2873578.67811858
0.6993286609649658	2957716.972798402
0.7015084028244019	3021444.2011721004
0.7036949396133423	3067595.1240238524
0.7058889269828796	3093877.6212924337
0.7080909013748169	3100172.687601652
0.710301399230957	3087751.2046232126
0.712520956993103	3054821.4371766397
0.7147500514984131	2996362.5941419885
0.7169892191886902	2912269.8158810493
0.7192389369010925	2806975.574255714
0.7214996814727783	2681163.481616948
0.723771870136261	2534066.2598235887
0.7260559797286987	2369170.098355215
0.7283523678779602	2189229.7524375403
0.7306615710258484	2005191.4155601254
0.7329838871955872	1823282.3289438384
0.7353196740150452	1626225.8415489602
0.7376693487167358	1413835.3878486129
0.7400332689285278	1202246.258038128
0.7424117922782898	997013.8866635124
0.7448052167892456	803137.321625704
0.7472138404846191	624115.8331686647
0.7496379613876343	463024.25137331226
0.7520779371261597	324596.5628709944
0.7545340061187744	211838.6775759411
0.7570064663887024	125961.84008867922
0.7594954967498779	66387.54604516049
0.7620013952255249	29785.72820906965
0.7645244002342224	10668.081855330192
0.7670646905899048	3289.3887089266836
0.7696225643157959	3588.586503131728
0.7721980810165405	13359.450018044588
0.7747915983200073	39133.22740875211
0.7774031162261963	81937.72274339388
0.7800329327583313	155774.06430545627
0.7826811671257019	299728.54185372207
0.7853479981422424	514656.48548351845
0.7880334854125977	767724.9075234876
0.7907378077507019	946142.6596553556
0.7934610247612	976405.9175809441
0.7962033748626709	1334665.944578909
0.7989648580551147	2194288.8071611742
0.801745593547821	3039614.087488493
0.8045456409454346	3764060.2025150172
0.8073651194572449	4513424.538883494
0.8102040886878967	5308224.381271802
0.8130625486373901	6178208.932938387
0.8159406185150146	7047169.5489093885
0.8188382983207703	7963351.275845559
0.8217556476593018	9247188.99377203
0.8246926665306091	10745042.492912509
0.8276493549346924	12146118.780885318
0.8306257724761963	13606133.31816461
0.8336219191551208	15243683.710376589
0.8366377949714661	16944493.991542395
0.8396733403205872	18685275.832735687
0.8427285552024841	20548254.439166967
0.8458034992218018	22165904.447258182
0.8488980531692505	21926782.383989107
0.8520121574401855	21105508.01919762
0.8551458716392517	24637242.21658623
0.8582990765571594	29157465.908473555
0.8614717125892639	28361668.455937073
0.8646637797355652	26696453.814813737
0.8678751587867737	28487524.230767906
0.8711057901382446	30970765.223322757
0.8743556141853333	33195872.443232417
0.87762451171875	36102250.55642677
0.8809124231338501	38892155.38895443
0.8842192888259888	41573546.22448802
0.8875449895858765	43451660.259330824
0.8908893465995789	42267302.267649144
0.894252359867096	41775949.331494845
0.8976338505744934	48921347.10983677
0.9010337591171265	60225753.937398165
0.9044519662857056	68826206.9742366
0.9078882932662964	75108907.20918375
0.9113426208496094	80683182.88846806
0.914814829826355	84867616.90157071
0.9183048605918884	88502935.95638938
0.9218124747276306	90038983.16409327
0.925337553024292	84551774.4426835
0.9288799166679382	78218390.29217702
0.9324395060539246	79701580.24462247
0.9360161423683167	86273153.67281173
0.9396095871925354	91886888.07846604
0.943219780921936	92933072.16786252
0.9468464851379395	90402542.25859465
0.9504896402359009	94954872.30192924
0.9541489481925964	109460677.81415729
0.9578243494033813	116884325.25849907
0.9615156054496765	108618263.05871253
0.9652225375175476	98670435.7814415
0.9689450263977051	107353608.71383137
0.9726828336715698	129406809.62161659
0.9764357805252075	141260142.02781266
0.9802037477493286	144425036.48548046
0.983986496925354	150329612.2566525
0.9877838492393494	148491221.73230416
0.9915955662727356	135033210.01939064
0.9954215884208679	121940992.71265046
0.9992615580558777	108911255.70576248
1.0031154155731201	100629162.24591778
1.0069829225540161	105277842.0540611
1.0108637809753418	117717537.83467667
1.0147579908370972	131487483.16255519
1.018665075302124	141424412.65479133
1.022585153579712	144822809.62608844
1.0265177488327026	147618343.81168568
1.0304628610610962	157782339.927022
1.0344202518463135	171691026.8020846
1.0383895635604858	182048400.03763014
1.0423706769943237	189155705.06933776
1.0463634729385376	196616195.55762172
1.0503677129745483	203914421.46468106
1.0543830394744873	212535247.32751957
1.058409333229065	222479888.4342764
1.0624464750289917	230321801.51683494
1.0664942264556885	236506032.03793722
1.0705522298812866	243163553.5134307
1.0746204853057861	251307957.64180988
1.0786986351013184	258486670.37822345
1.0827864408493042	263053380.13622868
1.086883783340454	258031304.9901276
1.0909905433654785	237902280.47791433
1.0951062440872192	214101909.01839212
1.0992310047149658	177889045.61576906
1.10336434841156	127605269.85715596
1.1075061559677124	99618157.9363602
1.1116561889648438	89683375.35032272
1.115814208984375	82382852.57303818
1.1199802160263062	86814330.64015964
1.124153733253479	93763386.46352774
1.1283347606658936	84980990.16506457
1.1325229406356812	66011517.81938429
1.1367181539535522	69178092.2695282
1.1409201622009277	96921462.62139757
1.145128846168518	120680758.2048659
1.1493438482284546	118637572.80155343
1.1535650491714478	100159125.97667935
1.1577922105789185	91430959.41457756
1.1620250940322876	89762332.67686525
1.1662636995315552	90566690.39964019
1.170507550239563	92578223.35226868
1.174756646156311	95897021.44406967
1.1790107488632202	112332472.86215112
1.1832695007324219	135735260.00951955
1.1875330209732056	148600153.76270968
1.191800832748413	170996687.1396547
1.1960728168487549	205723165.50441453
1.2003488540649414	223567986.94845378
1.2046287059783936	231621591.7831144
1.2089121341705322	237506385.7379263
1.2131990194320679	245555845.1868506
1.2174891233444214	262994691.3855345
1.2217823266983032	277943936.6489407
1.2260783910751343	286355449.3015491
1.230377197265625	292993659.21925926
1.2346785068511963	292186935.22176033
1.238982081413269	272968726.75277984
1.2432878017425537	247780613.25995013
1.2475954294204712	236484604.97777086
1.2519049644470215	233871109.94075665
1.256216049194336	262955930.4823185
1.2605286836624146	307495219.62921864
1.2648425102233887	324769368.2545082
1.2691574096679688	336165719.1948377
1.2734732627868652	350674231.8427893
1.2777899503707886	352420376.551538
1.2821072340011597	343284366.76918066
1.2864248752593994	338303445.63142604
1.2907428741455078	337121735.12443954
1.2950609922409058	331930630.70455027
1.2993791103363037	313411371.9546858
1.303696870803833	297914947.9207222
1.3080145120620728	297884879.6230401
1.3123314380645752	298430795.8027463
1.3166478872299194	293605445.0539579
1.3209635019302368	268140505.19718114
1.3252781629562378	224669807.5573511
1.3295916318893433	163903176.44633108
1.3339040279388428	83968393.39359237
1.3382149934768677	29844975.000399854
1.3425244092941284	15484242.798667382
1.3468321561813354	13965610.00043735
1.3511382341384888	13180332.806755453
1.3554422855377197	10889372.71803956
1.3597444295883179	13087955.569234608
1.3640443086624146	18486188.80996236
1.3683418035507202	17905519.17282173
1.3726370334625244	16269203.803224167
1.3769296407699585	18640615.51678456
1.381219506263733	15588375.30435066
1.3855066299438477	9469060.011886122
1.3897908926010132	9124767.862579029
1.3940720558166504	11438955.9833541
1.3983501195907593	11393962.894625966
1.4026249647140503	12201967.223246831
1.4068963527679443	14545942.55037287
1.4111642837524414	15152331.031571206
1.4154287576675415	15286740.525024118
1.419689416885376	14502192.826309396
1.4239463806152344	13385987.08451437
1.4281994104385376	11938939.882880704
1.4324485063552856	10160417.500765746
1.436693549156189	11759928.360307058
1.440934419631958	16297375.276106864
1.4451709985733032	23494752.50877826
1.449403166770935	31858369.929281376
1.453631043434143	32738551.88879844
1.4578542709350586	30565507.145672526
1.4620729684829712	35491913.68457286
1.4662868976593018	39950334.01440223
1.4704961776733398	32604216.18408774
1.4747005701065063	24171219.85762555
1.4788999557495117	28683769.265532766
1.4830944538116455	41579059.14493088
1.4872838258743286	47057503.18490181
1.491468071937561	41592070.31196051
1.4956470727920532	41609871.794762395
1.4998208284378052	51329905.93170196
1.5039892196655273	56053233.29059581
1.5081522464752197	51228631.136488
1.5123097896575928	53497340.31775899
1.5164618492126465	70243571.96314631
1.5206083059310913	87650591.51283303
1.5247491598129272	92243461.741643
1.5288842916488647	91329737.62853038
1.5330137014389038	96506211.83811419
1.5371372699737549	100444414.39250828
1.541254997253418	98823892.47118379
1.545366883277893	101890874.10511899
1.5494728088378906	107234296.75255415
1.5535727739334106	109860704.35779321
1.5576666593551636	114368720.16575885
1.561754584312439	121363844.68646395
1.5658363103866577	128351755.78693801
1.5699119567871094	131269380.89692202
1.5739814043045044	130835728.19969214
1.5780447721481323	133271570.15613368
1.582101821899414	139052951.63073096
1.5861525535583496	143005366.70880798
1.5901970863342285	141483687.97425038
1.5942351818084717	137133599.33370805
1.5982669591903687	136674749.42332128
1.6022924184799194	137053727.61756516
1.606311559677124	133479317.47600667
1.6103241443634033	131722436.79848856
1.6143304109573364	130187812.24094042
1.6183301210403442	124943137.94946146
1.6223233938217163	121192719.72975837
1.6263102293014526	119603644.2538997
1.6302905082702637	119059266.72990514
1.634264349937439	120918149.37684025
1.638231635093689	124334349.18404509
1.6421923637390137	125543692.26001152
1.646146535873413	120862816.7203266
1.6500942707061768	115169245.04604428
1.6540353298187256	113696849.68729094
1.6579699516296387	112471975.34978433
1.661897897720337	106120323.82457504
1.6658192873001099	90279605.89603128
1.6697341203689575	80678552.43472606
1.6736423969268799	89665408.33265777
1.677544116973877	98293147.96106154
1.6814392805099487	97589413.41476618
1.6853278875350952	92812956.09024794
1.6892099380493164	85723168.91315031
1.6930854320526123	78182303.96528052
1.696954369544983	73964128.6891162
1.7008168697357178	73651874.45644937
1.7046726942062378	73554796.35608734
1.708522081375122	73284163.65241659
1.712364912033081	71584476.98287393
1.7162011861801147	69179501.78732887
1.7200311422348022	69146853.7840993
1.723854422569275	68323377.02689421
1.7276713848114014	63338548.732662454
1.731481909751892	55866236.9002501
1.7352858781814575	51766439.481426574
1.7390835285186768	52364061.99798593
1.7428747415542603	51169530.2928275
1.7466596364974976	44018776.63763271
1.7504380941390991	37307559.870627224
1.7542102336883545	37252620.75824588
1.7579760551452637	42462865.373579845
1.7617355585098267	49533269.663740925
1.7654887437820435	50322585.39243813
1.7692357301712036	40669823.69685229
1.7729763984680176	29370546.59395517
1.776710867881775	21258343.779921815
1.7804391384124756	18254201.81517214
1.7841613292694092	18515181.883656796
1.7878772020339966	18063510.652101807
1.7915871143341064	22391982.64945396
1.7952908277511597	27552497.984676033
1.7989884614944458	25463963.6527624
1.8026801347732544	18714851.762824096
1.806365728378296	13486344.837887187
1.8100452423095703	12170717.696127614
1.8137187957763672	11358391.09355869
1.817386507987976	9554684.16118417
1.8210482597351074	13609086.955623765
1.8247040510177612	21054157.341687772
1.828354001045227	19956666.0584556
1.8319982290267944	13935421.195730736
1.8356364965438843	14343392.554416398
1.8392690420150757	19165387.0730226
1.8428958654403687	20526852.796502266
1.8465168476104736	18667132.420937415
1.8501322269439697	16834445.80701533
1.8537418842315674	14510548.882459758
1.8573459386825562	13106035.231722232
1.860944390296936	10943806.658435527
1.864537239074707	7141922.967123899
1.8681244850158691	6001727.654206268
1.871706247329712	9109929.582006982
1.8752825260162354	13537364.16960211
1.8788533210754395	14702857.286079306
1.8824186325073242	14541565.499162935
1.8859784603118896	18173869.912683334
1.8895330429077148	22847068.63463564
1.8930821418762207	21118070.89456802
1.8966259956359863	16568563.06555299
1.9001644849777222	14106916.917569675
1.9036977291107178	11684773.780898292
1.9072256088256836	14538567.99189927
1.9107483625411987	17903858.933882896
1.9142658710479736	13868418.200168561
1.9177782535552979	12320829.798462255
1.9212853908538818	11622015.734936085
1.9247875213623047	6521803.172786322
1.9282845258712769	5035342.17317208
1.9317764043807983	9660976.49155033
1.9352631568908691	16331711.64075233
1.9387450218200684	17253692.059443362
1.942221760749817	12075628.349351643
1.9456936120986938	8504312.048975818
1.9491604566574097	7885293.8007237315
1.952622413635254	9502501.927956399
1.956079363822937	14798510.948093688
1.959531545639038	19908939.38310554
1.962978720664978	17844568.308819823
1.966421127319336	14460383.567441361
1.9698586463928223	16481516.217599144
1.9732913970947266	18065912.14961211
1.9767193794250488	18024226.590694625
1.9801424741744995	18929431.802896876
1.9835609197616577	19275151.197539285
1.9869745969772339	20919447.278632965
1.990383505821228	22397409.70298803
1.9937876462936401	21728388.7910019
1.9971871376037598	19296317.83721825
2.000581979751587	17117844.27805412
2.003972291946411	20234551.723600265
2.007357597351074	24421117.948451154
2.0107386112213135	25844820.929387562
2.0141148567199707	25178498.883064862
2.017486572265625	22710666.086411364
2.0208535194396973	23083642.83797565
2.0242159366607666	25872444.810593933
2.027573823928833	26281637.58581098
2.0309269428253174	25636212.9840123
2.034275770187378	27522394.320610195
2.0376198291778564	31510635.22538583
2.040959596633911	34755353.35071122
2.044294595718384	35816446.80791141
2.0476250648498535	35929037.05619796
2.0509510040283203	34940147.77783058
2.054272413253784	33003344.913977098
2.057589530944824	33388185.982447468
2.0609018802642822	36070068.43634049
2.0642096996307373	37902287.21799908
2.0675129890441895	38344279.10823595
2.0708119869232178	38228768.767050475
2.074106216430664	37842268.69496338
2.0773961544036865	38152408.20864331
2.080681324005127	38886073.95136854
2.0839622020721436	38928748.355486356
2.087238311767578	38409300.669922814
2.090510129928589	37969529.71344041
2.0937774181365967	38079165.75041761
2.0970399379730225	38192568.763498984
2.1002981662750244	37408362.402330324
2.1035518646240234	36631093.35549377
2.1068007946014404	36719891.22880519
2.1100454330444336	36907574.95591439
2.1132853031158447	36680451.28345656
2.116520881652832	36036653.26049031
2.1197516918182373	35397497.72372105
2.1229779720306396	35117406.85809525
2.12619948387146	34812228.50735094
2.1294167041778564	34501378.01920102
2.132629156112671	34453665.29228619
2.1358368396759033	34003096.62949024
2.139039993286133	33197336.21685183
2.1422386169433594	32608763.63889935
2.145432472229004	32144502.017277192
2.1486217975616455	31706239.123870783
2.151806354522705	31116536.76042788
2.1549863815307617	30957264.174316313
2.1581614017486572	31349374.026683073
2.16133189201355	31523284.496170904
2.1644976139068604	31285015.655967668
2.167658567428589	30419061.508955028
2.1708147525787354	29326048.08450599
2.173966407775879	28867358.096091226
2.1771130561828613	28875771.321987677
2.1802549362182617	28491289.121588223
2.183391809463501	27461182.68904345
2.1865241527557373	26383745.52753789
2.1896514892578125	25554525.90424645
2.1927738189697266	24158188.08354407
2.1958916187286377	21338959.08570386
2.1990041732788086	18044618.985452075
2.2021119594573975	16104185.540613292
2.2052149772644043	15493215.922254017
2.208312749862671	15492954.485765625
2.2114057540893555	16615103.675949017
2.214493751525879	18057065.126177493
2.217576742172241	17915039.656031244
2.2206547260284424	17001596.314590096
2.2237277030944824	16063800.280141728
2.2267956733703613	14487358.391160943
2.2298583984375	13195875.585800543
2.2329163551330566	12948424.762370223
2.235969066619873	13402714.07927158
2.2390167713165283	13476367.198263504
2.2420592308044434	12653310.660270467
2.2450966835021973	11770731.955512324
2.248128890991211	11509655.867494712
2.2511560916900635	11887713.786670774
2.254178285598755	12921906.072709437
2.257194995880127	14330661.215857843
2.260206699371338	13688985.07755235
2.2632133960723877	10629960.18402469
2.266214609146118	9357156.821290076
2.2692108154296875	11411239.873113325
2.2722020149230957	13491188.394441582
2.2751877307891846	13452116.509672638
2.278168201446533	12783670.198688235
2.2811436653137207	12596331.122150907
2.284113883972168	11976089.442263873
2.287078857421875	10714410.95664248
2.290038824081421	10008733.630031645
2.2929933071136475	10132720.319646524
2.295942783355713	10220995.266527489
2.298887014389038	10415432.509930627
2.301826238632202	11121811.868798727
2.304760217666626	11707186.85249921
2.3076889514923096	12534961.117009878
2.310612440109253	14723087.46120476
2.3135311603546143	16812020.625370637
2.3164443969726562	15436985.04905972
2.319352865219116	10925632.189744262
2.322256088256836	7554915.213367232
2.3251543045043945	6168748.8200749215
2.328047275543213	5669313.983640901
2.330935478210449	6207146.169483482
2.3338186740875244	6577518.958852296
2.3366971015930176	6189584.352631241
2.3395702838897705	5773699.815537295
2.3424389362335205	5689531.420500536
2.3453025817871094	5755721.469667772
2.348161458969116	5802469.459116339
2.351015567779541	6716644.046987378
2.353865146636963	9298564.194563532
2.3567099571228027	12292201.469382746
2.3595502376556396	13857476.48202859
2.3623859882354736	13341831.761060584
2.3652172088623047	10947870.04214251
2.368043899536133	7805465.984091932
2.370866537094116	5771607.205322392
2.3736846446990967	5816366.08805951
2.3764986991882324	6501442.097767213
2.3793084621429443	6382279.162737139
2.3821144104003906	6026567.944165716
2.384916305541992	6656251.598849789
2.387714147567749	8094684.836659748
2.3905084133148193	8783699.238551438
2.393299102783203	8463521.971637823
2.3960859775543213	7847744.627422872
2.398869514465332	7729368.525093338
2.4016497135162354	8668778.6283902
2.4044265747070312	10265233.3272286
2.407200336456299	11257514.191544442
2.409970998764038	10779386.135331418
2.4127390384674072	9686890.098566074
2.415503978729248	9139231.056709435
2.418266534805298	9147827.014139494
2.4210267066955566	9315725.110296618
2.4237842559814453	9485670.527310949
2.426539897918701	9943642.668763222
2.429293394088745	10920172.70640575
2.4320452213287354	11641890.961312952
2.4347951412200928	11252160.796060093
2.4375438690185547	10299381.50387009
2.440291166305542	9833756.36680356
2.443037271499634	9961299.753141558
2.445782423019409	10693885.779282762
2.4485268592834473	11678484.83234077
2.451270818710327	11606062.46303775
2.454014539718628	10828693.245710468
2.4567582607269287	10541452.02372858
2.4595019817352295	10478218.63258558
2.4622461795806885	11409283.858633196
2.4649908542633057	12706441.210813958
2.4677364826202393	11745949.193332117
2.4704833030700684	8810058.394192463
2.473231554031372	5992848.656140957
2.4759814739227295	4378417.644628369
2.4787333011627197	3836139.7019855403
