#wavelength	surface flux
0.6450077295303345	129402.06970002527
0.6472567915916443	196153.56860950007
0.6494921445846558	238797.73708889494
0.6517150402069092	252711.72610983608
0.6539263725280762	264795.14939802606
0.6561272740364075	276676.14519827353
0.6583186388015747	288665.01615597965
0.6605015397071838	300884.7921579363
0.6626768708229065	313016.3030925681
0.6648455858230591	324322.5377873879
0.6670085787773132	326554.1490938965
0.6691668033599854	304829.8234385739
0.6713210344314575	295570.2696890741
0.6734722256660461	336853.17828244145
0.6756211519241333	382139.5789778418
0.6777685880661011	403283.8405330777
0.6799154281616211	418051.17803519714
0.6820623278617859	432287.7753385062
0.6842101216316223	446745.72424701386
0.6863595843315125	461090.8608750944
0.688511312007904	474735.673485175
0.6906660795211792	486561.0385861051
0.6928245425224304	498714.4624006334
0.6949873566627502	514998.0885731754
0.6971551775932312	532539.4397803314
0.6993286609649658	547897.4788097305
0.7015084028244019	562229.9720316866
0.7036949396133423	577407.2283772128
0.7058889269828796	593437.9570451461
0.7080909013748169	608698.0376074805
0.710301399230957	623660.7238657392
0.712520956993103	638549.8019882819
0.7147500514984131	650549.0225548008
0.7169892191886902	660089.9655688705
0.7192389369010925	672491.6440103163
0.7214996814727783	686151.3000080666
0.723771870136261	696716.2741001116
0.7260559797286987	705688.3703729169
0.7283523678779602	713842.7501879643
0.7306615710258484	721825.2247329481
0.7329838871955872	730258.3286992449
0.7353196740150452	735774.6673612377
0.7376693487167358	736957.4080895582
0.7400332689285278	733076.0108277673
0.7424117922782898	720879.6544206616
0.7448052167892456	699801.0303615266
0.7472138404846191	667618.8410035615
0.7496379613876343	619861.3684037713
0.7520779371261597	553175.595483286
0.7545340061187744	465320.6013669339
0.7570064663887024	357786.30891498417
0.7594954967498779	239211.2914490045
0.7620013952255249	127653.64065994546
0.7645244002342224	47513.42021624743
0.7670646905899048	11589.749008728659
0.7696225643157959	13603.997975628154
0.7721980810165405	60767.57445074152
0.7747915983200073	166211.61120506507
0.7774031162261963	300149.35855336953
0.7800329327583313	443950.72391214746
0.7826811671257019	626214.1561583744
0.7853479981422424	816347.810624722
0.7880334854125977	963145.6345746852
0.7907378077507019	1007534.8720146279
0.7934610247612	913608.4026179811
0.7962033748626709	977202.1959730217
0.7989648580551147	1269450.1671502518
0.801745593547821	1470109.8732463117
0.8045456409454346	1556136.8227690605
0.8073651194572449	1623006.0718832468
0.8102040886878967	1675251.3391959043
0.8130625486373901	1731063.218365541
0.8159406185150146	1805765.1709412073
0.8188382983207703	1881281.8182402654
0.8217556476593018	1947050.734257302
0.8246926665306091	2014342.463795134
0.8276493549346924	2080175.54831976
0.8306257724761963	2139510.5252402797
0.8336219191551208	2199700.791512899
0.8366377949714661	2259042.758070791
0.8396733403205872	2327951.4912474225
0.8427285552024841	2415202.140580265
0.8458034992218018	2498894.6645454895
0.8488980531692505	2561374.3389127227
0.8520121574401855	2618973.9544473356
0.8551458716392517	2705259.2505070358
0.8582990765571594	2794011.5154708074
0.8614717125892639	2842761.670723592
0.8646637797355652	2892934.469630013
0.8678751587867737	2978808.553006921
0.8711057901382446	3070207.2423071535
0.8743556141853333	3149064.795453605
0.87762451171875	3216458.013699514
0.8809124231338501	3280024.927592901
0.8842192888259888	3351969.787191089
0.8875449895858765	3412333.2258194657
0.8908893465995789	3429135.392716504
0.894252359867096	3451619.9902996416
0.8976338505744934	3568537.694939562
0.9010337591171265	3741699.4814330554
0.9044519662857056	3886415.9222746636
0.9078882932662964	3997523.501239283
0.9113426208496094	4086781.9586170167
0.914814829826355	4139865.198076159
0.9183048605918884	4197840.286512399
0.9218124747276306	4248255.190803209
0.925337553024292	4046576.3896981953
0.9288799166679382	3622914.018595426
0.9324395060539246	3465718.4043813427
0.9360161423683167	3689692.0495411693
0.9396095871925354	3980161.288939489
0.943219780921936	4026420.2152847764
0.9468464851379395	3954132.34947677
0.9504896402359009	4073683.993764586
0.9541489481925964	4295437.107800214
0.9578243494033813	4352144.635678929
0.9615156054496765	4200066.790236248
0.9652225375175476	4160016.3826182615
0.9689450263977051	4443139.387697982
0.9726828336715698	4940552.397619047
0.9764357805252075	5318671.0109785795
0.9802037477493286	5525682.923318912
0.983986496925354	5728534.0794663085
0.9877838492393494	5954353.9290172905
0.9915955662727356	6201154.443015358
0.9954215884208679	6417058.236942823
0.9992615580558777	6587326.733524049
1.0031154155731201	6742608.642214451
1.0069829225540161	6928066.56522374
1.0108637809753418	7143429.564356919
1.0147579908370972	7358313.229971136
1.018665075302124	7537900.116258398
1.022585153579712	7649514.688241735
1.0265177488327026	7723169.893689182
1.0304628610610962	7856101.433074991
1.0344202518463135	8096792.720174355
1.0383895635604858	8334862.73250352
1.0423706769943237	8507648.747141972
1.0463634729385376	8650993.790308002
1.0503677129745483	8784703.415775372
1.0543830394744873	8949834.367486678
1.058409333229065	9133167.194833042
1.0624464750289917	9296768.932864495
1.0664942264556885	9441607.744584423
1.0705522298812866	9580950.553363254
1.0746204853057861	9737376.878251642
1.0786986351013184	9905105.785686737
1.0827864408493042	10057072.391592724
1.086883783340454	10137204.598491384
1.0909905433654785	10106913.553074937
1.0951062440872192	9913307.894183138
1.0992310047149658	9109943.56607416
1.10336434841156	7865186.108953487
1.1075061559677124	7377636.681926355
1.1116561889648438	7303928.344431655
1.115814208984375	6861730.586631885
1.1199802160263062	6542404.989728897
1.124153733253479	6753245.390580351
1.1283347606658936	7015745.871125312
1.1325229406356812	6658047.778850991
1.1367181539535522	6929602.711244946
1.1409201622009277	8132393.005426568
1.145128846168518	8830213.209804436
1.1493438482284546	8049343.701689537
1.1535650491714478	6319561.688775538
1.1577922105789185	5695632.401855561
1.1620250940322876	6538879.49088416
1.1662636995315552	7837399.543388411
1.170507550239563	8748849.3247774
1.174756646156311	9691511.709725905
1.1790107488632202	11043651.496030672
1.1832695007324219	12089432.129606413
1.1875330209732056	12674235.33531797
1.191800832748413	13205426.37112555
1.1960728168487549	13832489.732420139
1.2003488540649414	14257814.601398159
1.2046287059783936	14480324.1396812
1.2089121341705322	14711240.3766109
1.2131990194320679	15015284.764443098
1.2174891233444214	15373981.487649597
1.2217823266983032	15723054.0151869
1.2260783910751343	16023745.456764659
1.230377197265625	16273833.221078547
1.2346785068511963	16494705.74158072
1.238982081413269	16736149.544500427
1.2432878017425537	16961106.23225059
1.2475954294204712	17104377.032297798
1.2519049644470215	17213442.1977378
1.256216049194336	17450603.533909652
1.2605286836624146	17702326.5833712
1.2648425102233887	17835655.13880018
1.2691574096679688	17949058.904506035
1.2734732627868652	18089568.290439226
1.2777899503707886	18226618.11889189
1.2821072340011597	18306561.396043282
1.2864248752593994	18275806.085568547
1.2907428741455078	18136162.44975834
1.2950609922409058	18140991.75523442
1.2993791103363037	18185368.20158259
1.303696870803833	18040752.929118317
1.3080145120620728	17996792.749349438
1.3123314380645752	18200247.35544901
1.3166478872299194	18517718.248251636
1.3209635019302368	18223067.863827523
1.3252781629562378	16820404.619213033
1.3295916318893433	13952856.971174669
1.3339040279388428	9284593.17374244
1.3382149934768677	4609495.611673303
1.3425244092941284	2408281.9744217936
1.3468321561813354	2276574.092463566
1.3511382341384888	1923454.59983356
1.3554422855377197	1305603.1550912296
1.3597444295883179	1161191.756370665
1.3640443086624146	1276998.752177292
1.3683418035507202	1700369.4233234092
1.3726370334625244	2990523.5176591976
1.3769296407699585	4352676.855719485
1.381219506263733	3453643.1830628687
1.3855066299438477	1503559.9084268862
1.3897908926010132	853402.6321405235
1.3940720558166504	997248.2065949537
1.3983501195907593	1338841.6210236219
1.4026249647140503	2254724.0392737836
1.4068963527679443	2976904.249715641
1.4111642837524414	2316282.546020495
1.4154287576675415	1695553.5921754087
1.419689416885376	1684803.504967593
1.4239463806152344	1627920.4114166016
1.4281994104385376	2044594.4051707184
1.4324485063552856	2451549.7084120126
1.436693549156189	2550009.4341271888
1.440934419631958	3060797.4322250322
1.4451709985733032	4456127.074580659
1.449403166770935	6607864.625630903
1.453631043434143	8082530.832744416
1.4578542709350586	8776526.23203667
1.4620729684829712	9597430.85540834
1.4662868976593018	9701247.3019312
1.4704961776733398	9006466.543272888
1.4747005701065063	8720205.073437905
1.4788999557495117	9286102.32687998
1.4830944538116455	10973352.350015024
1.4872838258743286	12815568.084099246
1.491468071937561	13347411.405169362
1.4956470727920532	13249222.562424783
1.4998208284378052	14166087.850092141
1.5039892196655273	15509000.144512756
1.5081522464752197	15830373.50024341
1.5123097896575928	16272043.830137154
1.5164618492126465	17747970.514614023
1.5206083059310913	19815858.36982324
1.5247491598129272	21287088.763730306
1.5288842916488647	21550235.436551116
1.5330137014389038	22033662.93247171
1.5371372699737549	22929129.355875745
1.541254997253418	23334929.601083357
1.545366883277893	23782172.057817746
1.5494728088378906	24526344.226220842
1.5535727739334106	24949628.503499724
1.5576666593551636	24902323.96829953
1.561754584312439	25223698.103347268
1.5658363103866577	26203686.288936004
1.5699119567871094	26793861.132415093
1.5739814043045044	26358003.102652185
1.5780447721481323	25593501.469206378
1.582101821899414	26070414.119005945
1.5861525535583496	27510020.537308928
1.5901970863342285	28132428.46879106
1.5942351818084717	27839075.187729865
1.5982669591903687	27349511.99403471
1.6022924184799194	27152995.96199901
1.606311559677124	27287488.585770518
1.6103241443634033	27211096.53837397
1.6143304109573364	26746743.026021726
1.6183301210403442	26114520.861167934
1.6223233938217163	25399677.768588234
1.6263102293014526	24572010.359134186
1.6302905082702637	23754091.43948022
1.634264349937439	24481439.43229074
1.638231635093689	26931435.431064487
1.6421923637390137	28203573.828149546
1.646146535873413	27091279.491122045
1.6500942707061768	25811857.11670771
1.6540353298187256	26368620.988373198
1.6579699516296387	27281168.540551092
1.661897897720337	26018033.481372062
1.6658192873001099	22221274.55845099
1.6697341203689575	20626260.42594508
1.6736423969268799	23562134.952995073
1.677544116973877	25623601.66469626
1.6814392805099487	25356104.499475714
1.6853278875350952	24907111.570432145
1.6892099380493164	23994906.231359087
1.6930854320526123	21963136.70755614
1.696954369544983	19794275.753826372
1.7008168697357178	19375483.431428637
1.7046726942062378	20243117.83859603
1.708522081375122	21303847.068683043
1.712364912033081	22248560.537853435
1.7162011861801147	23270303.4515646
1.7200311422348022	24359684.385526262
1.723854422569275	24563376.915924206
1.7276713848114014	23844314.623821266
1.731481909751892	22542089.509103138
1.7352858781814575	21128262.260703344
1.7390835285186768	20278734.05421435
1.7428747415542603	19410902.884078577
1.7466596364974976	17909062.059457276
1.7504380941390991	16055900.767745683
1.7542102336883545	15006547.931874817
1.7579760551452637	16991356.569574736
1.7617355585098267	19415001.19543002
1.7654887437820435	17889114.910936423
1.7692357301712036	13790227.741148263
1.7729763984680176	9560551.440616563
1.776710867881775	6042219.3789906725
1.7804391384124756	4721766.964773897
1.7841613292694092	4869572.115386914
1.7878772020339966	4381828.762815814
1.7915871143341064	4653702.912330206
1.7952908277511597	6396703.025047601
1.7989884614944458	6975196.139508619
1.8026801347732544	4730606.576680939
1.806365728378296	2233462.915773926
1.8100452423095703	2291086.4216553615
1.8137187957763672	3012610.943571924
1.817386507987976	2540253.104883587
1.8210482597351074	2961667.016329576
1.8247040510177612	3299052.0103622857
1.828354001045227	1902134.3153512783
1.8319982290267944	1425482.0526532244
1.8356364965438843	2609731.9568639244
1.8392690420150757	3823068.2637614426
1.8428958654403687	3883224.6914018965
1.8465168476104736	3770427.95938016
1.8501322269439697	4090402.0799197275
1.8537418842315674	3270438.6958172866
1.8573459386825562	2162291.8421511934
1.860944390296936	1764035.8991049596
1.864537239074707	1277523.6462912401
1.8681244850158691	1366961.1332802433
1.871706247329712	2476959.9338325686
1.8752825260162354	4002444.1480304017
1.8788533210754395	6186759.725202397
1.8824186325073242	7822576.139718472
1.8859784603118896	7230045.242537705
1.8895330429077148	6629695.254063534
1.8930821418762207	8187870.236720319
1.8966259956359863	8095242.516458582
1.9001644849777222	4262343.054171076
1.9036977291107178	1613066.31555654
1.9072256088256836	1754049.70971602
1.9107483625411987	1732647.856628202
1.9142658710479736	988834.7561397454
1.9177782535552979	910086.6405810865
1.9212853908538818	1354734.178860433
1.9247875213623047	1397055.0252610568
1.9282845258712769	1465545.7255485721
1.9317764043807983	2001264.0804113194
1.9352631568908691	2281036.130340034
1.9387450218200684	2209845.8287997846
1.942221760749817	2527457.578695756
1.9456936120986938	3023789.35737694
1.9491604566574097	3570627.396311003
1.952622413635254	3478318.302958941
1.956079363822937	2650879.8165645325
1.959531545639038	2492943.4421620434
1.962978720664978	2813247.8710510097
1.966421127319336	3785415.476252402
1.9698586463928223	5569909.30498396
1.9732913970947266	6509105.827847852
1.9767193794250488	7067030.508669597
1.9801424741744995	8516087.998241235
1.9835609197616577	10020214.805353548
1.9869745969772339	10179657.08915106
1.990383505821228	8783322.621566428
1.9937876462936401	8297734.18584302
1.9971871376037598	8599760.614138609
2.000581979751587	9433401.12107219
2.003972291946411	11882330.392110392
2.007357597351074	14000853.385595415
2.0107386112213135	15877535.346428271
2.0141148567199707	16505776.305849837
2.017486572265625	15003991.048562478
2.0208535194396973	15522733.985525295
2.0242159366607666	18167138.085957106
2.027573823928833	19802829.692820873
2.0309269428253174	20921304.748748977
2.034275770187378	22397787.000804603
2.0376198291778564	23618868.664043438
2.040959596633911	24770477.96114036
2.044294595718384	26328613.05740803
2.0476250648498535	27919658.709631525
2.0509510040283203	28198923.7478927
2.054272413253784	27310049.2294908
2.057589530944824	27542313.40829
2.0609018802642822	28832453.94186578
2.0642096996307373	29893050.990718897
2.0675129890441895	30589799.174927115
2.0708119869232178	30872930.540299848
2.074106216430664	30659217.067804303
2.0773961544036865	30464363.594799563
2.080681324005127	30747990.845705155
2.0839622020721436	31117828.673913572
2.087238311767578	31346604.322878763
2.090510129928589	31293321.39320757
2.0937774181365967	30939628.210091628
2.0970399379730225	30798038.6226637
2.1002981662750244	30778526.76677419
2.1035518646240234	30492827.95856392
2.1068007946014404	30125610.246235188
2.1100454330444336	30274202.75050619
2.1132853031158447	30572334.673014883
2.116520881652832	30176526.292697225
2.1197516918182373	29710950.276346695
2.1229779720306396	29769289.71438279
2.12619948387146	29990357.700766213
2.1294167041778564	30053495.662968904
2.132629156112671	30028630.539080944
2.1358368396759033	29614710.399786185
2.139039993286133	28780705.688309588
2.1422386169433594	27944156.466397848
2.145432472229004	27203752.484926216
2.1486217975616455	26661481.518565748
2.151806354522705	26075797.22013944
2.1549863815307617	25976591.83083006
2.1581614017486572	26077682.66646715
2.16133189201355	25387705.343685042
2.1644976139068604	24747868.05237828
2.167658567428589	24606516.963951893
2.1708147525787354	24681165.503643826
2.173966407775879	24644764.466358703
2.1771130561828613	24278222.967796758
2.1802549362182617	23637274.719743527
2.183391809463501	22694072.90361697
2.1865241527557373	21554572.627984278
2.1896514892578125	20114015.38822883
2.1927738189697266	17549933.3502011
2.1958916187286377	13762094.310444891
2.1990041732788086	10398788.97603732
2.2021119594573975	8654866.579250328
2.2052149772644043	8120585.382188157
2.208312749862671	8389321.824572844
2.2114057540893555	9410138.102880444
2.214493751525879	10406751.745654171
2.217576742172241	10431996.235866236
2.2206547260284424	10023926.172989706
2.2237277030944824	9682946.595869252
2.2267956733703613	8638312.68053563
2.2298583984375	7149509.251064899
2.2329163551330566	6230772.111022549
2.235969066619873	5970867.22547651
2.2390167713165283	5730630.420949187
2.2420592308044434	5005079.690842346
2.2450966835021973	4229864.411536937
2.248128890991211	4377246.271484079
2.2511560916900635	5147445.57796012
2.254178285598755	5571665.5259806905
2.257194995880127	5866041.584154562
2.260206699371338	5909599.040536233
2.2632133960723877	5150685.303675634
2.266214609146118	4226544.966890542
2.2692108154296875	3942792.6802861854
2.2722020149230957	4385170.724650528
2.2751877307891846	4931698.045252648
2.278168201446533	4898385.563339967
2.2811436653137207	4471219.471761237
2.284113883972168	4122603.9981551375
2.287078857421875	3819064.360909399
2.290038824081421	3537947.263310226
2.2929933071136475	3491019.960472104
2.295942783355713	3635507.42697567
2.298887014389038	3801642.1644840753
2.301826238632202	4067447.4981086175
2.304760217666626	4725798.807485164
2.3076889514923096	5815537.5200951025
2.310612440109253	6765160.459319946
2.3135311603546143	6443497.515616673
2.3164443969726562	4559422.39876659
2.319352865219116	2843028.587347887
2.322256088256836	2400799.866905642
2.3251543045043945	2418024.190989309
2.328047275543213	2365442.6921460493
2.330935478210449	2379194.767758208
2.3338186740875244	2413846.418894392
2.3366971015930176	2387990.4645820395
2.3395702838897705	2347158.3132206784
2.3424389362335205	2233259.431326372
2.3453025817871094	2043875.68268963
2.348161458969116	1979117.2621053853
2.351015567779541	2279528.9203486033
2.353865146636963	2906335.949703462
2.3567099571228027	3475773.6604952305
2.3595502376556396	3903310.79237098
2.3623859882354736	4298667.535286913
2.3652172088623047	4153426.30448537
2.368043899536133	3103909.8305084165
2.370866537094116	1969989.9272863944
2.3736846446990967	1668978.656031548
2.3764986991882324	1886746.343250643
2.3793084621429443	2060745.1155499301
2.3821144104003906	2294565.65227613
2.384916305541992	2787310.8517181757
2.387714147567749	3228833.451271179
2.3905084133148193	3243047.297216945
2.393299102783203	3129052.5326713608
2.3960859775543213	3180605.911648404
2.398869514465332	3326711.5020586257
2.4016497135162354	3316687.2093601334
2.4044265747070312	3212832.9423951153
2.407200336456299	3553005.2028917586
2.409970998764038	4292365.066825933
2.4127390384674072	4773265.074923323
2.415503978729248	4975400.717814894
2.418266534805298	5469980.174951628
2.4210267066955566	5918672.770667924
2.4237842559814453	5465745.958836596
2.426539897918701	4738699.349031115
2.429293394088745	4974455.882524561
2.4320452213287354	5807625.464464285
2.4347951412200928	6151058.649101387
2.4375438690185547	5996968.82403413
2.440291166305542	5856587.511132167
2.443037271499634	5588399.977778382
2.445782423019409	4911940.106410574
2.4485268592834473	4127982.854238649
2.451270818710327	3914756.298880408
2.454014539718628	4653491.370365927
2.4567582607269287	5417606.040009353
2.4595019817352295	5350314.738022852
2.4622461795806885	5516992.834793575
2.4649908542633057	5621059.239183666
2.4677364826202393	4533147.811328101
2.4704833030700684	3200331.3445146494
2.473231554031372	2351327.255398849
2.4759814739227295	1839590.148199649
2.4787333011627197	1656944.7083123343
2.481487512588501	1888553.7545443168
