#wavelength	surface flux
0.6450077295303345	13932.461946029229
0.6472567915916443	22060.846623554407
0.6494921445846558	29133.7345918625
0.6517150402069092	33967.30210580704
0.6539263725280762	39010.452823983396
0.6561272740364075	44426.11674337004
0.6583186388015747	50239.57656505977
0.6605015397071838	56447.912608707964
0.6626768708229065	63039.444095514744
0.6648455858230591	69760.37117463276
0.6670085787773132	73727.21120463975
0.6691668033599854	69743.56803071372
0.6713210344314575	69442.7359813362
0.6734722256660461	87158.00301104315
0.6756211519241333	108437.33124668968
0.6777685880661011	121819.41810025132
0.6799154281616211	132541.70116428478
0.6820623278617859	142953.53002493703
0.6842101216316223	153299.23013694765
0.6863595843315125	163523.142489482
0.688511312007904	173279.5578800268
0.6906660795211792	181610.24521918714
0.6928245425224304	188885.36548477088
0.6949873566627502	197947.8100046061
0.6971551775932312	208081.48522231463
0.6993286609649658	216594.7206353066
0.7015084028244019	224140.261700701
0.7036949396133423	230576.12790067558
0.7058889269828796	234996.23104897942
0.7080909013748169	237666.98989646987
0.710301399230957	239256.04679454994
0.712520956993103	239383.029349175
0.7147500514984131	236586.12117576672
0.7169892191886902	230731.96117537044
0.7192389369010925	222598.51214042696
0.7214996814727783	211857.67193367
0.723771870136261	198920.7268760451
0.7260559797286987	185073.89265020704
0.7283523678779602	170069.2746385854
0.7306615710258484	157320.28994232937
0.7329838871955872	148459.25226656668
0.7353196740150452	136081.4718661526
0.7376693487167358	118816.43715095721
0.7400332689285278	101150.07985363987
0.7424117922782898	84160.45529118922
0.7448052167892456	68539.57046825624
0.7472138404846191	54225.715550274865
0.7496379613876343	41142.951093362106
0.7520779371261597	29859.553515651656
0.7545340061187744	20624.768188833008
0.7570064663887024	13464.20194335673
0.7594954967498779	8207.708803559444
0.7620013952255249	4487.074541637132
0.7645244002342224	2013.605212057704
0.7670646905899048	782.6547093224046
0.7696225643157959	837.3163890601709
0.7721980810165405	2483.4427072883477
0.7747915983200073	6037.94594334259
0.7774031162261963	11032.869561653975
0.7800329327583313	18522.879860160734
0.7826811671257019	32192.426744599798
0.7853479981422424	52590.371494508996
0.7880334854125977	77321.3839417359
0.7907378077507019	95657.4908780177
0.7934610247612	100471.92250624704
0.7962033748626709	139065.42952940805
0.7989648580551147	228846.3960353282
0.801745593547821	318690.6350875781
0.8045456409454346	398064.21181308693
0.8073651194572449	478652.7208771681
0.8102040886878967	560214.0775265346
0.8130625486373901	658125.4570231643
0.8159406185150146	779560.9900855672
0.8188382983207703	918206.0494303085
0.8217556476593018	1078885.055595028
0.8246926665306091	1243391.157490707
0.8276493549346924	1390983.9569444591
0.8306257724761963	1562444.921561124
0.8336219191551208	1788734.3262796043
0.8366377949714661	2013760.265269624
0.8396733403205872	2219889.318732483
0.8427285552024841	2452777.43688772
0.8458034992218018	2695006.696897815
0.8488980531692505	2755362.364908988
0.8520121574401855	2747385.3229307435
0.8551458716392517	3230773.7111297916
0.8582990765571594	3943222.8212861232
0.8614717125892639	4306168.72861057
0.8646637797355652	4578700.695536763
0.8678751587867737	5021623.797622373
0.8711057901382446	5502846.857104646
0.8743556141853333	5946644.080568707
0.87762451171875	6392026.787855039
0.8809124231338501	6798787.946254279
0.8842192888259888	7132356.443322613
0.8875449895858765	7311460.111770705
0.8908893465995789	6971706.895670102
0.894252359867096	6408511.783883759
0.8976338505744934	7198321.052748225
0.9010337591171265	9407173.45635768
0.9044519662857056	11428043.305355087
0.9078882932662964	12697915.451605443
0.9113426208496094	13312385.093571413
0.914814829826355	13371438.775420519
0.9183048605918884	13475065.02150308
0.9218124747276306	12842055.753321907
0.925337553024292	9937626.272359418
0.9288799166679382	7487783.025350713
0.9324395060539246	7380535.750182459
0.9360161423683167	7687947.577175327
0.9396095871925354	7600706.1986844065
0.943219780921936	7327909.060637277
0.9468464851379395	6611064.762753955
0.9504896402359009	7307371.999940386
0.9541489481925964	10294257.649003198
0.9578243494033813	11009435.2699436
0.9615156054496765	8334280.474289347
0.9652225375175476	6234124.700065995
0.9689450263977051	8120706.559549905
0.9726828336715698	12763050.855194911
0.9764357805252075	15094577.983662454
0.9802037477493286	16000762.2619331
0.983986496925354	19271751.24485354
0.9877838492393494	22773882.498497155
0.9915955662727356	24309485.09359511
0.9954215884208679	24555598.49806172
0.9992615580558777	23039749.78593879
1.0031154155731201	21455056.249003205
1.0069829225540161	22917674.194092054
1.0108637809753418	27223685.50685224
1.0147579908370972	32194991.965218104
1.018665075302124	35426993.927032
1.022585153579712	35933360.92993836
1.0265177488327026	36771554.49049885
1.0304628610610962	40449725.30609814
1.0344202518463135	44540393.145077914
1.0383895635604858	47250405.64772183
1.0423706769943237	49257290.98528502
1.0463634729385376	50230419.68327464
1.0503677129745483	50980824.279325135
1.0543830394744873	54380048.02835738
1.058409333229065	58758570.29574337
1.0624464750289917	61227599.35969974
1.0664942264556885	62010280.93775685
1.0705522298812866	62130695.28022014
1.0746204853057861	62685447.899946846
1.0786986351013184	62891653.304469116
1.0827864408493042	62945162.70308918
1.086883783340454	58247986.89278504
1.0909905433654785	45075366.0119078
1.0951062440872192	33310021.2151475
1.0992310047149658	23867643.328722864
1.10336434841156	12520770.010778774
1.1075061559677124	6858515.51885357
1.1116561889648438	5817037.686200515
1.115814208984375	4167504.6865778095
1.1199802160263062	3658561.250260553
1.124153733253479	4008456.41876274
1.1283347606658936	3333349.7599128205
1.1325229406356812	2637850.773391042
1.1367181539535522	4692870.853512782
1.1409201622009277	8718928.69335447
1.145128846168518	10809897.606407344
1.1493438482284546	9012405.505528342
1.1535650491714478	5726396.068773862
1.1577922105789185	4253549.951245335
1.1620250940322876	4732975.684292503
1.1662636995315552	7176653.811973938
1.170507550239563	10359262.096913178
1.174756646156311	14202128.919751158
1.1790107488632202	19795106.021831557
1.1832695007324219	22094161.330048732
1.1875330209732056	19905334.449352127
1.191800832748413	24349529.877158593
1.1960728168487549	35522277.16788191
1.2003488540649414	42086123.704397574
1.2046287059783936	44157031.12874655
1.2089121341705322	45140500.90688844
1.2131990194320679	47939718.5070612
1.2174891233444214	54607960.21267824
1.2217823266983032	59960587.80885055
1.2260783910751343	63251558.43459312
1.230377197265625	67821371.20457292
1.2346785068511963	71186157.00283878
1.238982081413269	70863789.79204537
1.2432878017425537	70191187.2361799
1.2475954294204712	71111052.5997065
1.2519049644470215	71813440.26731122
1.256216049194336	79050375.79511718
1.2605286836624146	85057833.84629251
1.2648425102233887	80738505.36121632
1.2691574096679688	80530931.54579443
1.2734732627868652	86873586.85744949
1.2777899503707886	85572901.73452032
1.2821072340011597	76421569.67849444
1.2864248752593994	73233956.16134882
1.2907428741455078	74238263.33271845
1.2950609922409058	72112764.67403612
1.2993791103363037	59915383.15738875
1.303696870803833	47191691.61961378
1.3080145120620728	45323425.20185984
1.3123314380645752	47660182.8286336
1.3166478872299194	51035103.14828214
1.3209635019302368	45345191.68391348
1.3252781629562378	33134384.255826488
1.3295916318893433	22461715.84243978
1.3339040279388428	10689716.062001208
1.3382149934768677	2998866.770392952
1.3425244092941284	1234576.2856084104
1.3468321561813354	917683.211152942
1.3511382341384888	759421.3751189673
1.3554422855377197	539872.2767238533
1.3597444295883179	580427.9450433798
1.3640443086624146	840785.9817208528
1.3683418035507202	758925.145877467
1.3726370334625244	549228.3721682425
1.3769296407699585	706825.5844521689
1.381219506263733	714559.1008859539
1.3855066299438477	399216.7300445351
1.3897908926010132	467964.2806457096
1.3940720558166504	884080.7529797566
1.3983501195907593	818321.0052773481
1.4026249647140503	638472.3788621197
1.4068963527679443	759915.9774943884
1.4111642837524414	735748.5907980513
1.4154287576675415	657783.2946039431
1.419689416885376	641077.7978384338
1.4239463806152344	673147.7966467934
1.4281994104385376	517074.2944470507
1.4324485063552856	323858.8372762791
1.436693549156189	569788.5550304896
1.440934419631958	1281461.729678667
1.4451709985733032	2539045.9720176677
1.449403166770935	3898448.028377895
1.453631043434143	3914707.8529749764
1.4578542709350586	3443189.3633004418
1.4620729684829712	4626105.012784832
1.4662868976593018	5967447.088536679
1.4704961776733398	4232711.799350593
1.4747005701065063	1758855.9148730424
1.4788999557495117	2431890.993361214
1.4830944538116455	4865559.85052876
1.4872838258743286	5509798.0319948485
1.491468071937561	4162054.1424647635
1.4956470727920532	4285683.471820712
1.4998208284378052	6755233.00493951
1.5039892196655273	7804687.362658661
1.5081522464752197	6243620.941412511
1.5123097896575928	6470277.108577161
1.5164618492126465	10704786.941951796
1.5206083059310913	15472565.857825268
1.5247491598129272	16854835.6199144
1.5288842916488647	16754223.849039454
1.5330137014389038	18460125.254333284
1.5371372699737549	20010004.487139292
1.541254997253418	19866161.735176675
1.545366883277893	21262055.334512092
1.5494728088378906	23421088.852245696
1.5535727739334106	24175623.903546263
1.5576666593551636	25382105.805997178
1.561754584312439	28291460.10780233
1.5658363103866577	32165029.06932253
1.5699119567871094	34112098.067962386
1.5739814043045044	33575074.16376577
1.5780447721481323	34531858.87102075
1.582101821899414	37971146.12843003
1.5861525535583496	40729877.436699696
1.5901970863342285	39722167.93362538
1.5942351818084717	35665405.857689716
1.5982669591903687	33805885.589185245
1.6022924184799194	33746542.67230605
1.606311559677124	31807773.881817475
1.6103241443634033	30988146.0056325
1.6143304109573364	29919728.708683316
1.6183301210403442	26015482.103442535
1.6223233938217163	23142536.58333433
1.6263102293014526	22054026.7473844
1.6302905082702637	23024781.69638875
1.634264349937439	26905135.940555166
1.638231635093689	31204194.152262583
1.6421923637390137	31985357.322052807
1.646146535873413	26496817.00750835
1.6500942707061768	21246269.512933884
1.6540353298187256	22145630.900689136
1.6579699516296387	23795103.744939666
1.661897897720337	22387661.174467944
1.6658192873001099	16202560.102994213
1.6697341203689575	10661940.678494032
1.6736423969268799	12304509.259474775
1.677544116973877	14683149.540708942
1.6814392805099487	14448366.351650802
1.6853278875350952	12995965.865616214
1.6892099380493164	10663379.312371401
1.6930854320526123	8828027.581988147
1.696954369544983	7628884.117519573
1.7008168697357178	7095516.90445839
1.7046726942062378	7110715.175954719
1.708522081375122	8051821.483666806
1.712364912033081	8851495.391443932
1.7162011861801147	9094022.379114645
1.7200311422348022	10207102.699759614
1.723854422569275	10437458.483991468
1.7276713848114014	8933711.700025348
1.731481909751892	7651743.861407116
1.7352858781814575	7456414.476614937
1.7390835285186768	8063868.644341477
1.7428747415542603	8278860.504982703
1.7466596364974976	6732238.677281923
1.7504380941390991	4880914.263936469
1.7542102336883545	5295002.461176441
1.7579760551452637	7217227.433894107
1.7617355585098267	8737470.730041511
1.7654887437820435	8641690.781775296
1.7692357301712036	6495913.123667724
1.7729763984680176	4144159.827698567
1.776710867881775	2553825.4063003585
1.7804391384124756	1811925.2683150328
1.7841613292694092	1812807.885278409
1.7878772020339966	1985861.8339423602
1.7915871143341064	3005738.2504905686
1.7952908277511597	3888839.323474077
1.7989884614944458	3422620.1515380265
1.8026801347732544	2546643.245680199
1.806365728378296	2021208.9298684222
1.8100452423095703	1772592.3460358123
1.8137187957763672	1444093.0627394335
1.817386507987976	1036144.1251535455
1.8210482597351074	1986417.1168091262
1.8247040510177612	3710333.0594888986
1.828354001045227	3284620.151855674
1.8319982290267944	1574409.1138757563
1.8356364965438843	1488457.5578943498
1.8392690420150757	2656530.6020867378
1.8428958654403687	3162782.2405707864
1.8465168476104736	2655180.346648162
1.8501322269439697	1911901.3469858887
1.8537418842315674	1566238.5186191322
1.8573459386825562	1752055.4337044554
1.860944390296936	1421591.8639860335
1.864537239074707	569639.6312892857
1.8681244850158691	236650.44161740254
1.871706247329712	503952.06805070525
1.8752825260162354	1056554.2312182558
1.8788533210754395	1399485.4749847841
1.8824186325073242	1787401.926635964
1.8859784603118896	3229996.587211343
1.8895330429077148	4531745.46449377
1.8930821418762207	3492426.593755542
1.8966259956359863	2073139.0338575267
1.9001644849777222	1974892.6884452133
1.9036977291107178	1718656.5645817344
1.9072256088256836	2068095.5403911907
1.9107483625411987	2711418.6036235234
1.9142658710479736	1931677.6028422532
1.9177782535552979	1418351.3544162558
1.9212853908538818	1361560.3448303142
1.9247875213623047	668829.3646826838
1.9282845258712769	347087.95871406
1.9317764043807983	1142933.789336755
1.9352631568908691	2642867.4641931667
1.9387450218200684	2850570.0123406076
1.942221760749817	1537248.6560664566
1.9456936120986938	679812.6371198491
1.9491604566574097	568908.5551589424
1.952622413635254	875377.7894649166
1.956079363822937	1942453.6335519103
1.959531545639038	3181537.4061018517
1.962978720664978	2934617.850571093
1.966421127319336	2071569.6802814482
1.9698586463928223	2368205.7193307155
1.9732913970947266	2836418.236423383
1.9767193794250488	3065047.5656539463
1.9801424741744995	3459337.602431945
1.9835609197616577	3620224.023432489
1.9869745969772339	4258482.109610245
1.990383505821228	4947972.328842599
1.9937876462936401	4825106.873480668
1.9971871376037598	3997165.6117048822
2.000581979751587	3061423.6603424745
2.003972291946411	3712594.8468060936
2.007357597351074	5098055.4580204105
2.0107386112213135	5697400.721779217
2.0141148567199707	5391692.8819374135
2.017486572265625	4512813.888858343
2.0208535194396973	4444148.909126751
2.0242159366607666	5060517.15649085
2.027573823928833	5296098.753824459
2.0309269428253174	5321587.896598078
2.034275770187378	6169874.198390257
2.0376198291778564	8169662.139532364
2.040959596633911	9890502.347384095
2.044294595718384	10385849.269221893
2.0476250648498535	10157435.323090358
2.0509510040283203	9277478.685798973
2.054272413253784	8408375.37497173
2.057589530944824	8838883.736241492
2.0609018802642822	10097069.316936208
2.0642096996307373	11007045.926178109
2.0675129890441895	11367494.886632053
2.0708119869232178	11340680.018816812
2.074106216430664	11071602.846252738
2.0773961544036865	11105125.126195569
2.080681324005127	11379573.279518416
2.0839622020721436	11311419.600108238
2.087238311767578	10964236.034442725
2.090510129928589	10745679.665020755
2.0937774181365967	10793354.551150935
2.0970399379730225	10721972.028605279
2.1002981662750244	10187519.223406067
2.1035518646240234	9779518.299192106
2.1068007946014404	9864533.086687868
2.1100454330444336	9934914.852610994
2.1132853031158447	9706833.581129113
2.116520881652832	9143705.14469786
2.1197516918182373	8531421.10508269
2.1229779720306396	8199190.4193305
2.12619948387146	7987053.5484507745
2.1294167041778564	7932447.336319574
2.132629156112671	8063085.520201199
2.1358368396759033	7754087.238966919
2.139039993286133	7164497.20477969
2.1422386169433594	6709731.901509178
2.145432472229004	6278862.650148738
2.1486217975616455	5935953.958359739
2.151806354522705	5492314.2974328725
2.1549863815307617	5415153.716940584
2.1581614017486572	5858036.6489594765
2.16133189201355	6094743.601585887
2.1644976139068604	5958360.922958624
2.167658567428589	5407501.834127851
2.1708147525787354	4921990.029923417
2.173966407775879	5113635.180789057
2.1771130561828613	5603315.376091179
2.1802549362182617	5630886.725407129
2.183391809463501	5086126.5435808245
2.1865241527557373	4533113.8611902585
2.1896514892578125	4181535.6184743145
2.1927738189697266	3590861.726880604
2.1958916187286377	2484689.517101582
2.1990041732788086	1355114.9555711704
2.2021119594573975	826146.8486064166
2.2052149772644043	864029.1671012198
2.208312749862671	1142337.7866534127
2.2114057540893555	1553099.2433450997
2.214493751525879	1841824.928506295
2.217576742172241	1623482.0572830464
2.2206547260284424	1197131.4393506534
2.2237277030944824	963140.3436474737
2.2267956733703613	792523.2332020453
2.2298583984375	647651.7792452859
2.2329163551330566	599158.4905519191
2.235969066619873	641251.3754761341
2.2390167713165283	649021.7480504814
2.2420592308044434	555668.114305462
2.2450966835021973	463765.7659752312
2.248128890991211	439381.2303655283
2.2511560916900635	475028.0856137247
2.254178285598755	617455.5657889391
2.257194995880127	898078.9225071663
2.260206699371338	920391.5024033071
2.2632133960723877	538685.8863117584
2.266214609146118	362878.94685250847
2.2692108154296875	648499.6342017774
2.2722020149230957	946587.4012079651
2.2751877307891846	891455.1250789969
2.278168201446533	702759.0828873648
2.2811436653137207	668970.3432220591
2.284113883972168	654970.8581398464
2.287078857421875	513390.2969115089
2.290038824081421	386220.6679142591
2.2929933071136475	377149.32343274634
2.295942783355713	395681.24752342585
2.298887014389038	422405.93963267206
2.301826238632202	505540.66457494977
2.304760217666626	648320.4440810941
2.3076889514923096	909742.1077308465
2.310612440109253	1352103.8474168486
2.3135311603546143	1813974.4245295755
2.3164443969726562	1737595.364813151
2.319352865219116	984209.3671355803
2.322256088256836	380288.2595865282
2.3251543045043945	240708.4816957025
2.328047275543213	216737.78869829807
2.330935478210449	221900.45504613096
2.3338186740875244	219457.43724313736
2.3366971015930176	184974.16449889835
2.3395702838897705	154673.2218903767
2.3424389362335205	141894.247680689
2.3453025817871094	133601.95863579377
2.348161458969116	132045.24383756972
2.351015567779541	210469.9015157005
2.353865146636963	453949.18779018393
2.3567099571228027	784033.1327597097
2.3595502376556396	1016306.4998759786
2.3623859882354736	998257.4066615892
2.3652172088623047	691501.4373360594
2.368043899536133	328352.0692674517
2.370866537094116	149167.10411194008
2.3736846446990967	132593.03194802476
2.3764986991882324	153750.09789542505
2.3793084621429443	167768.94386278113
2.3821144104003906	213837.12948920758
2.384916305541992	317942.6974135606
2.387714147567749	396352.6453540683
2.3905084133148193	365992.52892554173
2.393299102783203	305456.11450301344
2.3960859775543213	267540.2318017042
2.398869514465332	272078.2753446436
2.4016497135162354	388856.11388094747
2.4044265747070312	623914.9594307045
2.407200336456299	798020.936820675
2.409970998764038	751456.8133480087
2.4127390384674072	621367.6195049122
2.415503978729248	598095.7173070658
2.418266534805298	684751.2986430235
2.4210267066955566	763517.8467963197
2.4237842559814453	752227.4613552237
2.426539897918701	761929.2463650157
2.429293394088745	929810.1784256544
2.4320452213287354	1098040.8346982072
2.4347951412200928	1072932.5457002106
2.4375438690185547	1003931.3375483544
2.440291166305542	1050934.4855110317
2.443037271499634	1076337.7831272571
2.445782423019409	1015252.5646214911
2.4485268592834473	1010369.9332670158
2.451270818710327	1116897.8979944484
2.454014539718628	1261589.405089006
2.4567582607269287	1343322.8737415925
2.4595019817352295	1386713.1879085687
2.4622461795806885	1592284.646747554
2.4649908542633057	1866491.8646594444
2.4677364826202393	1821597.1459761031
2.4704833030700684	1400582.0758436194
2.473231554031372	906810.7245864534
2.4759814739227295	584875.8356619173
2.4787333011627197	434704.721831131
2.481487512588501	363381.6304742312
2.4842441082000732	330214.84696306556
