#wavelength	surface flux
0.6450077295303345	37498.51789017395
0.6472567915916443	57041.88402559807
0.6494921445846558	69935.15290307674
0.6517150402069092	74654.74298771811
0.6539263725280762	78826.03642147311
0.6561272740364075	82909.43385514447
0.6583186388015747	87063.10214100094
0.6605015397071838	91388.0863299238
0.6626768708229065	95791.08884847503
0.6648455858230591	100028.21931618432
0.6670085787773132	102061.62262849191
0.6691668033599854	98144.46346644018
0.6713210344314575	97377.70154173786
0.6734722256660461	109146.08010131298
0.6756211519241333	121711.21194782287
0.6777685880661011	128317.77681061378
0.6799154281616211	133524.2275726152
0.6820623278617859	138639.76304222856
0.6842101216316223	143788.17641169074
0.6863595843315125	148945.86299138836
0.688511312007904	153876.1564353987
0.6906660795211792	157868.79704940045
0.6928245425224304	161819.39010905707
0.6949873566627502	167855.3262550006
0.6971551775932312	174663.9236518215
0.6993286609649658	180302.6202268891
0.7015084028244019	185365.12103235794
0.7036949396133423	190999.49918985672
0.7058889269828796	197188.3750635443
0.7080909013748169	202900.66994081865
0.710301399230957	208437.84821117765
0.712520956993103	213959.8349258772
0.7147500514984131	217768.8869181128
0.7169892191886902	220120.04579702116
0.7192389369010925	224296.25048643164
0.7214996814727783	229292.44263227234
0.723771870136261	232330.46977820664
0.7260559797286987	234555.97957792756
0.7283523678779602	236809.1893733988
0.7306615710258484	239648.44591165907
0.7329838871955872	243422.30437764633
0.7353196740150452	245971.9101085973
0.7376693487167358	246576.23119603383
0.7400332689285278	245184.55542826344
0.7424117922782898	240347.66800767093
0.7448052167892456	232271.49875016932
0.7472138404846191	220296.8221708292
0.7496379613876343	202685.08408023126
0.7520779371261597	178562.85938012783
0.7545340061187744	147647.53523176408
0.7570064663887024	111098.31952090371
0.7594954967498779	72355.92083355696
0.7620013952255249	37510.732968947676
0.7645244002342224	13640.298465380254
0.7670646905899048	3378.6243065170543
0.7696225643157959	3998.8657514665833
0.7721980810165405	17877.655810538086
0.7747915983200073	50293.49832076934
0.7774031162261963	93659.53691285163
0.7800329327583313	143118.9243290044
0.7826811671257019	208027.66699632487
0.7853479981422424	277695.40872735926
0.7880334854125977	333949.19208136736
0.7907378077507019	353500.929301146
0.7934610247612	322714.90087311435
0.7962033748626709	350925.3212279823
0.7989648580551147	463743.49751733406
0.801745593547821	542547.6229812008
0.8045456409454346	578623.4432189447
0.8073651194572449	605787.1878973977
0.8102040886878967	623988.5709807656
0.8130625486373901	644874.8473454238
0.8159406185150146	680440.9821290551
0.8188382983207703	717684.0290417655
0.8217556476593018	745405.92542323
0.8246926665306091	773011.4222379996
0.8276493549346924	801238.9149105161
0.8306257724761963	825327.9661548225
0.8336219191551208	850296.2665083614
0.8366377949714661	875161.3611320828
0.8396733403205872	907118.0647780469
0.8427285552024841	952302.3771700438
0.8458034992218018	995352.4261990386
0.8488980531692505	1026533.2246378999
0.8520121574401855	1054823.9059245163
0.8551458716392517	1094998.8780977852
0.8582990765571594	1137923.612753688
0.8614717125892639	1168651.0862014906
0.8646637797355652	1198286.056473414
0.8678751587867737	1236390.1354809653
0.8711057901382446	1276973.4791430682
0.8743556141853333	1312030.9977892581
0.87762451171875	1338514.4301247043
0.8809124231338501	1360351.99295764
0.8842192888259888	1382882.792280866
0.8875449895858765	1400057.627051219
0.8908893465995789	1395298.2811301635
0.894252359867096	1390387.544162458
0.8976338505744934	1445686.2009592075
0.9010337591171265	1546235.8864930326
0.9044519662857056	1628340.427980599
0.9078882932662964	1683860.2478922554
0.9113426208496094	1725861.2100203938
0.914814829826355	1742700.317931784
0.9183048605918884	1762518.4290787512
0.9218124747276306	1780312.0752751196
0.925337553024292	1632427.3298403195
0.9288799166679382	1339106.375429804
0.9324395060539246	1203231.6538165791
0.9360161423683167	1304698.5828550733
0.9396095871925354	1465663.2138347677
0.943219780921936	1471167.0283352544
0.9468464851379395	1397074.2801772105
0.9504896402359009	1458296.1168949113
0.9541489481925964	1593632.726866391
0.9578243494033813	1622417.3248162258
0.9615156054496765	1510720.0485635297
0.9652225375175476	1470874.262325648
0.9689450263977051	1646762.180910306
0.9726828336715698	1956136.4777784278
0.9764357805252075	2179552.409526556
0.9802037477493286	2298417.8497984805
0.983986496925354	2422009.711103445
0.9877838492393494	2564415.708476359
0.9915955662727356	2724481.367062138
0.9954215884208679	2863901.383197023
0.9992615580558777	2972542.22538508
1.0031154155731201	3066405.5370261515
1.0069829225540161	3172252.4322467297
1.0108637809753418	3294278.6902305004
1.0147579908370972	3415426.8066953397
1.018665075302124	3514008.4843053534
1.022585153579712	3567746.969686129
1.0265177488327026	3593708.059982195
1.0304628610610962	3658631.6105527254
1.0344202518463135	3801112.350441238
1.0383895635604858	3944496.3852945915
1.0423706769943237	4041987.6858654115
1.0463634729385376	4117283.8908025883
1.0503677129745483	4184557.0304405577
1.0543830394744873	4273883.684862325
1.058409333229065	4377697.16267604
1.0624464750289917	4468892.045484676
1.0664942264556885	4544886.356596516
1.0705522298812866	4615010.217221416
1.0746204853057861	4698356.294680254
1.0786986351013184	4791173.180404332
1.0827864408493042	4872933.971821861
1.086883783340454	4902732.324501966
1.0909905433654785	4853626.9256171435
1.0951062440872192	4686263.58496018
1.0992310047149658	4095802.0463611335
1.10336434841156	3222558.810290948
1.1075061559677124	2879432.9903071797
1.1116561889648438	2805005.0159931504
1.115814208984375	2464476.2516925214
1.1199802160263062	2174259.3934127195
1.124153733253479	2195906.614402861
1.1283347606658936	2334211.140848158
1.1325229406356812	2246153.4953123885
1.1367181539535522	2468992.9425443676
1.1409201622009277	3084102.3617020273
1.145128846168518	3434138.0975579964
1.1493438482284546	2968546.127630028
1.1535650491714478	1926781.8393022404
1.1577922105789185	1518588.0871861225
1.1620250940322876	1977269.0814877194
1.1662636995315552	2728371.880882374
1.170507550239563	3298274.949690134
1.174756646156311	3963651.9650248676
1.1790107488632202	4895516.469086117
1.1832695007324219	5613844.868420773
1.1875330209732056	6028883.8326635845
1.191800832748413	6420488.424017227
1.1960728168487549	6881839.176670554
1.2003488540649414	7191075.57741994
1.2046287059783936	7348038.687071759
1.2089121341705322	7504850.071356103
1.2131990194320679	7701010.754306148
1.2174891233444214	7932710.988651732
1.2217823266983032	8167382.264419962
1.2260783910751343	8373894.961639177
1.230377197265625	8537132.969799943
1.2346785068511963	8674258.775363447
1.238982081413269	8834946.424002202
1.2432878017425537	8987339.283065233
1.2475954294204712	9093985.063251646
1.2519049644470215	9190568.912048204
1.256216049194336	9332213.403840395
1.2605286836624146	9452671.306685997
1.2648425102233887	9514532.437271718
1.2691574096679688	9571217.011792826
1.2734732627868652	9647497.971136553
1.2777899503707886	9717543.515306763
1.2821072340011597	9734108.382829301
1.2864248752593994	9650787.577908715
1.2907428741455078	9470252.20940695
1.2950609922409058	9416221.893147405
1.2993791103363037	9399576.810636729
1.303696870803833	9219974.390632262
1.3080145120620728	9102739.721837152
1.3123314380645752	9194306.572886836
1.3166478872299194	9459259.015727287
1.3209635019302368	9237999.711896125
1.3252781629562378	8126285.599275502
1.3295916318893433	6228717.173532132
1.3339040279388428	3675701.3721053666
1.3382149934768677	1515111.6579720536
1.3425244092941284	590863.384468885
1.3468321561813354	466039.04075096425
1.3511382341384888	356601.9216280797
1.3554422855377197	209219.08331223732
1.3597444295883179	171860.0837451394
1.3640443086624146	173145.44285405724
1.3683418035507202	252079.7867778732
1.3726370334625244	583192.8230131601
1.3769296407699585	973925.0554572218
1.381219506263733	776425.2754971659
1.3855066299438477	278915.31123358296
1.3897908926010132	107346.35277883626
1.3940720558166504	137618.794811172
1.3983501195907593	228270.2916345372
1.4026249647140503	452357.3469190198
1.4068963527679443	614261.9216332099
1.4111642837524414	453138.02914588636
1.4154287576675415	300224.5407132287
1.419689416885376	282590.9915591184
1.4239463806152344	261970.11792916732
1.4281994104385376	366019.09367596934
1.4324485063552856	514701.7293736505
1.436693549156189	596423.1145952885
1.440934419631958	741107.9710072675
1.4451709985733032	1232080.4915578035
1.449403166770935	2146470.6220144215
1.453631043434143	2813005.474277573
1.4578542709350586	3140356.6909923735
1.4620729684829712	3554453.361027738
1.4662868976593018	3572886.3070701743
1.4704961776733398	3109936.9583765357
1.4747005701065063	2810836.2655046396
1.4788999557495117	3030279.4871258293
1.4830944538116455	4039621.108526829
1.4872838258743286	5220488.779724737
1.491468071937561	5587980.5144580025
1.4956470727920532	5443836.7175815925
1.4998208284378052	5890106.772252905
1.5039892196655273	6694909.323435468
1.5081522464752197	6947588.673047364
1.5123097896575928	7348929.690866677
1.5164618492126465	8450826.968972823
1.5206083059310913	9951428.524212528
1.5247491598129272	11061862.790393872
1.5288842916488647	11313282.574052379
1.5330137014389038	11691111.307005588
1.5371372699737549	12383204.180529175
1.541254997253418	12739270.615582068
1.545366883277893	13097357.486702941
1.5494728088378906	13648341.8414025
1.5535727739334106	13960857.064907439
1.5576666593551636	13916868.533604471
1.561754584312439	14170990.66876166
1.5658363103866577	14958482.265842278
1.5699119567871094	15411874.85605968
1.5739814043045044	14923967.726603417
1.5780447721481323	14061358.05534375
1.582101821899414	14397087.289400622
1.5861525535583496	15752528.901386926
1.5901970863342285	16318424.356067128
1.5942351818084717	15936083.149468632
1.5982669591903687	15312785.60247244
1.6022924184799194	14943068.448929092
1.606311559677124	14950600.011135962
1.6103241443634033	14775071.703347357
1.6143304109573364	14152880.603868099
1.6183301210403442	13307313.594602507
1.6223233938217163	12311693.85046423
1.6263102293014526	11206914.1080821
1.6302905082702637	10255299.832151389
1.634264349937439	11017524.287999224
1.638231635093689	13615369.834905375
1.6421923637390137	14897656.601627491
1.646146535873413	13495110.36759861
1.6500942707061768	11976418.851244608
1.6540353298187256	12598621.5103782
1.6579699516296387	13673828.134879475
1.661897897720337	12745778.60931822
1.6658192873001099	9654125.69354938
1.6697341203689575	8130975.06409139
1.6736423969268799	10177936.177092735
1.677544116973877	11549183.078610059
1.6814392805099487	11075714.272843102
1.6853278875350952	10586507.03667153
1.6892099380493164	9830170.847368274
1.6930854320526123	8360836.567188624
1.696954369544983	6773945.348416375
1.7008168697357178	6366367.66652348
1.7046726942062378	7035807.286420332
1.708522081375122	8013141.174411678
1.712364912033081	8953089.089152412
1.7162011861801147	9946310.19694167
1.7200311422348022	10950806.168685907
1.723854422569275	11179074.415211817
1.7276713848114014	10653606.206785167
1.731481909751892	9824240.071626004
1.7352858781814575	9009910.103197401
1.7390835285186768	8642565.19238738
1.7428747415542603	8321102.229650602
1.7466596364974976	7561926.958044255
1.7504380941390991	6595395.962284193
1.7542102336883545	6117273.632800518
1.7579760551452637	7231031.013303086
1.7617355585098267	8430656.733043604
1.7654887437820435	7499903.472167506
1.7692357301712036	5349292.931458589
1.7729763984680176	3304134.422273662
1.776710867881775	1805375.3567994477
1.7804391384124756	1285149.7926287057
1.7841613292694092	1329366.127127442
1.7878772020339966	1172514.0742211766
1.7915871143341064	1316498.453661537
1.7952908277511597	2168694.920498312
1.7989884614944458	2619107.4310266445
1.8026801347732544	1679225.7450475723
1.806365728378296	599501.2017492456
1.8100452423095703	567975.3998556744
1.8137187957763672	768110.5497050119
1.817386507987976	636593.5888927027
1.8210482597351074	766036.2954834127
1.8247040510177612	844190.2889179216
1.828354001045227	428903.14535776485
1.8319982290267944	262333.47204664326
1.8356364965438843	566585.857254416
1.8392690420150757	900918.4410381042
1.8428958654403687	898891.8654155533
1.8465168476104736	916149.9065341016
1.8501322269439697	1167617.0245981347
1.8537418842315674	997873.6853489258
1.8573459386825562	604054.7256151633
1.860944390296936	440275.4603732124
1.864537239074707	270790.004475676
1.8681244850158691	232373.8558005295
1.871706247329712	485466.17102589295
1.8752825260162354	995141.9578635488
1.8788533210754395	2013082.0088553394
1.8824186325073242	2832390.970024828
1.8859784603118896	2538443.13333921
1.8895330429077148	2209493.531789643
1.8930821418762207	2944945.111291784
1.8966259956359863	3008134.241798879
1.9001644849777222	1412342.0037537317
1.9036977291107178	298239.9397297774
1.9072256088256836	256231.15778823118
1.9107483625411987	253449.50517610201
1.9142658710479736	138074.48219795845
1.9177782535552979	140038.11591323002
1.9212853908538818	228748.8746734332
1.9247875213623047	240438.7013014424
1.9282845258712769	260856.98486937812
1.9317764043807983	386704.69758833793
1.9352631568908691	467838.39087519574
1.9387450218200684	491990.7533614304
1.942221760749817	635645.7861855536
1.9456936120986938	833885.6638277415
1.9491604566574097	1087809.463058775
1.952622413635254	1089865.7159819317
1.956079363822937	770817.9192103457
1.959531545639038	676400.3823882032
1.962978720664978	786908.4645539259
1.966421127319336	1201470.8037265164
1.9698586463928223	1983022.808192097
1.9732913970947266	2417137.1510833586
1.9767193794250488	2686859.089140755
1.9801424741744995	3384191.361406369
1.9835609197616577	4145949.6564412643
1.9869745969772339	4243099.538977652
1.990383505821228	3583189.563016407
1.9937876462936401	3432816.4263039185
1.9971871376037598	3627175.7938796817
2.000581979751587	4045542.027272326
2.003972291946411	5389860.034602515
2.007357597351074	6743068.980853181
2.0107386112213135	8015811.185026251
2.0141148567199707	8292081.47447999
2.017486572265625	7249211.673371023
2.0208535194396973	7589622.55717708
2.0242159366607666	9175791.596599929
2.027573823928833	10171078.762053963
2.0309269428253174	11034500.035286942
2.034275770187378	12088067.054785527
2.0376198291778564	13002687.606413223
2.040959596633911	14082863.970061349
2.044294595718384	15498997.642177394
2.0476250648498535	16814270.01518355
2.0509510040283203	16903926.020963177
2.054272413253784	16051759.822737314
2.057589530944824	16254268.108746365
2.0609018802642822	17361846.759428985
2.0642096996307373	18240658.108855713
2.0675129890441895	18793377.534641664
2.0708119869232178	19036055.71944207
2.074106216430664	18875471.852332477
2.0773961544036865	18682889.673527
2.080681324005127	18866718.953624398
2.0839622020721436	19069400.70499189
2.087238311767578	19145468.875162017
2.090510129928589	19074092.91785302
2.0937774181365967	18753952.985243317
2.0970399379730225	18554425.1766385
2.1002981662750244	18449632.3498892
2.1035518646240234	18157542.317167003
2.1068007946014404	17810582.81884645
2.1100454330444336	17786741.471954346
2.1132853031158447	17774969.659673832
2.116520881652832	17197093.002529148
2.1197516918182373	16616348.542862443
2.1229779720306396	16530366.93239993
2.12619948387146	16670337.415204817
2.1294167041778564	16718929.720066288
2.132629156112671	16671131.42089937
2.1358368396759033	16211751.551681764
2.139039993286133	15342858.160295226
2.1422386169433594	14440481.377564631
2.145432472229004	13587943.754055599
2.1486217975616455	12984864.743790628
2.151806354522705	12384327.309095737
2.1549863815307617	12314925.29573623
2.1581614017486572	12468770.548666863
2.16133189201355	11755285.689580597
2.1644976139068604	11079854.254420847
2.167658567428589	10998281.20896755
2.1708147525787354	11241940.896229034
2.173966407775879	11462061.548465252
2.1771130561828613	11299901.296989737
2.1802549362182617	10732155.682795472
2.183391809463501	9875613.414302409
2.1865241527557373	8942285.342862047
2.1896514892578125	7891471.01469634
2.1927738189697266	6275305.401463087
2.1958916187286377	4165963.8438866744
2.1990041732788086	2526743.2727736477
2.2021119594573975	1842194.2229329206
2.2052149772644043	1784147.8801399148
2.208312749862671	2026071.600962783
2.2114057540893555	2413885.4388295757
2.214493751525879	2688812.0930424593
2.217576742172241	2595394.533805682
2.2206547260284424	2369001.76903221
2.2237277030944824	2230942.9002586543
2.2267956733703613	1918901.6809261006
2.2298583984375	1467458.2488521808
2.2329163551330566	1180640.4999686119
2.235969066619873	1087771.6687144963
2.2390167713165283	1018047.1883707042
2.2420592308044434	847323.8393334461
2.2450966835021973	668835.4464406344
2.248128890991211	706565.9757246689
2.2511560916900635	893616.391211285
2.254178285598755	997890.5884850346
2.257194995880127	1075984.5955945526
2.260206699371338	1088317.6751879253
2.2632133960723877	913753.1271015209
2.266214609146118	727059.842945837
2.2692108154296875	686784.4450818601
2.2722020149230957	799806.9833465782
2.2751877307891846	935577.4854706313
2.278168201446533	933186.22239976
2.2811436653137207	839394.2156146091
2.284113883972168	774164.1320227366
2.287078857421875	716496.632994998
2.290038824081421	650353.3875906883
2.2929933071136475	645707.2615084074
2.295942783355713	698632.8343037387
2.298887014389038	751642.4120704997
2.301826238632202	843511.6242940635
2.304760217666626	1139069.7066958447
2.3076889514923096	1683159.257925133
2.310612440109253	2158952.712087521
2.3135311603546143	2018333.286113872
2.3164443969726562	1236045.4634003008
2.319352865219116	608285.0844298522
2.322256088256836	497502.5133751845
2.3251543045043945	533074.6415686216
2.328047275543213	525516.7329486519
2.330935478210449	517671.66705271177
2.3338186740875244	510180.4601462476
2.3366971015930176	486824.8296782716
2.3395702838897705	463331.2173855072
2.3424389362335205	426708.83330864366
2.3453025817871094	372867.79532247916
2.348161458969116	352075.31536791916
2.351015567779541	425435.826654835
2.353865146636963	581111.9254479699
2.3567099571228027	722754.0199435882
2.3595502376556396	831128.0639247994
2.3623859882354736	927510.2547675585
2.3652172088623047	877343.5017637215
2.368043899536133	613437.9725630934
2.370866537094116	355515.05829319876
2.3736846446990967	300103.2278724111
2.3764986991882324	367653.3062140675
2.3793084621429443	442428.64694102586
2.3821144104003906	532380.7001228965
2.384916305541992	662330.8384629197
2.387714147567749	746561.5566627756
2.3905084133148193	706150.7719266701
2.393299102783203	657530.2044825086
2.3960859775543213	689083.8637725966
2.398869514465332	756766.7615763888
2.4016497135162354	767908.3515582756
2.4044265747070312	746601.5252493834
2.407200336456299	868952.2799589575
2.409970998764038	1126374.711092315
2.4127390384674072	1295072.7953796405
2.415503978729248	1356411.1989444725
2.418266534805298	1532949.4178578248
2.4210267066955566	1719019.5266502788
2.4237842559814453	1571731.8699707107
2.426539897918701	1340038.5055666028
2.429293394088745	1528732.4744919785
2.4320452213287354	1927882.7679328003
2.4347951412200928	2036133.8356654402
2.4375438690185547	1939304.814526955
2.440291166305542	1962511.9361273418
2.443037271499634	1968254.1604907764
2.445782423019409	1708833.9938091266
2.4485268592834473	1351509.236681474
2.451270818710327	1277594.902740251
2.454014539718628	1590620.0069607822
2.4567582607269287	1877265.3371726694
2.4595019817352295	1909687.5895676815
2.4622461795806885	2067013.6364485447
2.4649908542633057	2117087.857383025
2.4677364826202393	1656813.350664741
2.4704833030700684	1124873.5428523766
2.473231554031372	825283.2262914137
2.4759814739227295	662975.2820064008
2.4787333011627197	597057.3186385627
2.481487512588501	652704.0482157875
