#wavelength	surface flux
0.6450077295303345	75890.94172349501
0.6472567915916443	114198.07541221363
0.6494921445846558	137130.17129794462
0.6517150402069092	142827.51307300525
0.6539263725280762	147592.4029755957
0.6561272740364075	152395.0659361254
0.6583186388015747	157316.94960335852
0.6605015397071838	162376.4659172224
0.6626768708229065	167490.47510938614
0.6648455858230591	172690.19805187106
0.6670085787773132	177251.7453101641
0.6691668033599854	179536.05383934
0.6713210344314575	183156.7254299071
0.6734722256660461	191630.72702613068
0.6756211519241333	200224.3605388447
0.6777685880661011	206615.28262161868
0.6799154281616211	212607.28784254132
0.6820623278617859	218775.4404410144
0.6842101216316223	225235.2352869055
0.6863595843315125	231757.76303316062
0.688511312007904	238217.90248334967
0.6906660795211792	244536.35460218423
0.6928245425224304	251130.06515517517
0.6949873566627502	258472.92763976526
0.6971551775932312	266042.8263662869
0.6993286609649658	273442.42169860686
0.7015084028244019	280880.4125126164
0.7036949396133423	288554.2268456206
0.7058889269828796	296479.27831173554
0.7080909013748169	304504.69527695084
0.710301399230957	312685.7626039824
0.712520956993103	321055.28836551285
0.7147500514984131	329334.3705299999
0.7169892191886902	337582.64587686537
0.7192389369010925	346359.63971486926
0.7214996814727783	355539.5681992015
0.723771870136261	364744.5876375253
0.7260559797286987	374110.662098118
0.7283523678779602	383658.5087965706
0.7306615710258484	393509.5547116652
0.7329838871955872	403835.7181342976
0.7353196740150452	414331.7659435926
0.7376693487167358	424966.2247544607
0.7400332689285278	435788.7792403385
0.7424117922782898	446498.139335165
0.7448052167892456	457176.62843367405
0.7472138404846191	467719.0210542706
0.7496379613876343	477629.09527196485
0.7520779371261597	486214.4225175107
0.7545340061187744	492080.8984805431
0.7570064663887024	491923.5002384534
0.7594954967498779	475599.4121923776
0.7620013952255249	411574.2710386962
0.7645244002342224	273011.85039335216
0.7670646905899048	137227.9395229751
0.7696225643157959	134001.3971476343
0.7721980810165405	289475.6447224115
0.7747915983200073	474888.6634315571
0.7774031162261963	575621.3302888081
0.7800329327583313	618922.3809213587
0.7826811671257019	651566.5960526831
0.7853479981422424	680797.7841325997
0.7880334854125977	704524.6169280553
0.7907378077507019	714724.7819506114
0.7934610247612	699425.3576639204
0.7962033748626709	709141.7476520139
0.7989648580551147	765834.6874768662
0.801745593547821	810002.338835533
0.8045456409454346	832617.5079769462
0.8073651194572449	853509.4533340978
0.8102040886878967	873695.2531745816
0.8130625486373901	895175.5726651973
0.8159406185150146	919412.2831258656
0.8188382983207703	944237.7505465338
0.8217556476593018	968375.3200814248
0.8246926665306091	993187.1539023333
0.8276493549346924	1018608.9310255719
0.8306257724761963	1044091.4602197153
0.8336219191551208	1070203.828766889
0.8366377949714661	1096537.5203278477
0.8396733403205872	1124145.167078982
0.8427285552024841	1154113.0198183933
0.8458034992218018	1184583.9821758305
0.8488980531692505	1214657.2107557529
0.8520121574401855	1245163.0806832444
0.8551458716392517	1276792.1379930074
0.8582990765571594	1307733.1702442218
0.8614717125892639	1335213.9353212693
0.8646637797355652	1364421.014585856
0.8678751587867737	1399485.2261827388
0.8711057901382446	1435571.953441715
0.8743556141853333	1470767.22483569
0.87762451171875	1505777.3147469172
0.8809124231338501	1541520.683420697
0.8842192888259888	1579382.599890332
0.8875449895858765	1616268.546022583
0.8908893465995789	1649194.4770438122
0.894252359867096	1684120.9352821852
0.8976338505744934	1727130.8650727088
0.9010337591171265	1773922.2683493535
0.9044519662857056	1819513.4824316527
0.9078882932662964	1863729.7749795709
0.9113426208496094	1906549.1691171958
0.914814829826355	1946611.9568082069
0.9183048605918884	1987794.222516508
0.9218124747276306	2028069.782458192
0.925337553024292	2041418.5687811146
0.9288799166679382	2031173.4366359485
0.9324395060539246	2054032.7085609576
0.9360161423683167	2121205.756192065
0.9396095871925354	2193050.5009376933
0.943219780921936	2238712.9165176954
0.9468464851379395	2272837.793223424
0.9504896402359009	2326238.0368357687
0.9541489481925964	2389806.3081713966
0.9578243494033813	2435603.5360544403
0.9615156054496765	2459617.0030072853
0.9652225375175476	2496721.390796601
0.9689450263977051	2569622.094112854
0.9726828336715698	2668663.749838441
0.9764357805252075	2756852.2818977577
0.9802037477493286	2825513.7861393373
0.983986496925354	2893153.1302868994
0.9877838492393494	2962969.119738297
0.9915955662727356	3034986.5071097
0.9954215884208679	3105578.554397684
0.9992615580558777	3172636.804763228
1.0031154155731201	3238604.548272354
1.0069829225540161	3309422.743437601
1.0108637809753418	3384841.644973093
1.0147579908370972	3461065.9123385884
1.018665075302124	3534465.1823114213
1.022585153579712	3601027.3591133533
1.0265177488327026	3664398.730456634
1.0304628610610962	3735225.148822251
1.0344202518463135	3817148.2445002156
1.0383895635604858	3898822.0480190525
1.0423706769943237	3974712.10967585
1.0463634729385376	4048684.660983484
1.0503677129745483	4122566.5806341125
1.0543830394744873	4199918.13586835
1.058409333229065	4279439.302705219
1.0624464750289917	4357712.706925183
1.0664942264556885	4435147.866901997
1.0705522298812866	4512903.819410876
1.0746204853057861	4592724.7264074115
1.0786986351013184	4674119.972501596
1.0827864408493042	4754555.403334167
1.086883783340454	4828041.305189239
1.0909905433654785	4890233.1546685705
1.0951062440872192	4934970.153412765
1.0992310047149658	4908833.188552517
1.10336434841156	4825969.961462335
1.1075061559677124	4830335.174865256
1.1116561889648438	4888098.539092618
1.115814208984375	4907527.895154832
1.1199802160263062	4953325.583906012
1.124153733253479	5072955.821572934
1.1283347606658936	5170793.474266782
1.1325229406356812	5141706.889956909
1.1367181539535522	5227731.818394021
1.1409201622009277	5492376.826985339
1.145128846168518	5672150.250034661
1.1493438482284546	5633320.898914395
1.1535650491714478	5472645.821558783
1.1577922105789185	5468718.972310548
1.1620250940322876	5663354.544169584
1.1662636995315552	5913525.639998568
1.170507550239563	6098363.534060345
1.174756646156311	6273412.277487563
1.1790107488632202	6500878.492357875
1.1832695007324219	6690422.273115847
1.1875330209732056	6825164.081092916
1.191800832748413	6954055.088630225
1.1960728168487549	7094543.803190507
1.2003488540649414	7215241.720829291
1.2046287059783936	7315128.902251355
1.2089121341705322	7415590.042888372
1.2131990194320679	7525980.635348535
1.2174891233444214	7644724.946436475
1.2217823266983032	7761904.538267913
1.2260783910751343	7872989.0312520135
1.230377197265625	7979314.016331489
1.2346785068511963	8083205.232747086
1.238982081413269	8189154.601280215
1.2432878017425537	8294087.954343105
1.2475954294204712	8392861.049629508
1.2519049644470215	8488777.778325696
1.256216049194336	8593234.561690044
1.2605286836624146	8697197.495397111
1.2648425102233887	8791915.077435333
1.2691574096679688	8886152.669349542
1.2734732627868652	8983497.21497612
1.2777899503707886	9081069.032061325
1.2821072340011597	9173892.232111253
1.2864248752593994	9256849.514313018
1.2907428741455078	9329861.433526449
1.2950609922409058	9416363.146220421
1.2993791103363037	9506267.67579386
1.303696870803833	9578415.296437833
1.3080145120620728	9664215.124536593
1.3123314380645752	9776154.306811396
1.3166478872299194	9887878.511091547
1.3209635019302368	9930624.220988864
1.3252781629562378	9846765.239933988
1.3295916318893433	9468924.227691174
1.3339040279388428	8448455.222772649
1.3382149934768677	6878169.104013384
1.3425244092941284	6023807.9365123175
1.3468321561813354	6273026.032005446
1.3511382341384888	6043812.2729627825
1.3554422855377197	5369078.518330976
1.3597444295883179	5235600.6666238
1.3640443086624146	5569677.915831766
1.3683418035507202	6261125.929208492
1.3726370334625244	7300809.113951606
1.3769296407699585	8003145.211374398
1.381219506263733	7103081.691984884
1.3855066299438477	5650699.486555969
1.3897908926010132	5207934.16189422
1.3940720558166504	5259073.20239218
1.3983501195907593	5515458.268490036
1.4026249647140503	6504737.487680317
1.4068963527679443	7326064.700166553
1.4111642837524414	6680041.606384694
1.4154287576675415	6225178.347168633
1.419689416885376	6527866.597060046
1.4239463806152344	6519480.407163826
1.4281994104385376	6815289.503133188
1.4324485063552856	6967725.43229076
1.436693549156189	6876583.329925537
1.440934419631958	7471637.546655464
1.4451709985733032	8564663.005094288
1.449403166770935	9624484.382446466
1.453631043434143	10210129.788898624
1.4578542709350586	10488594.98464966
1.4620729684829712	10774421.245213313
1.4662868976593018	10878336.94812659
1.4704961776733398	10810630.331924047
1.4747005701065063	10876759.617633525
1.4788999557495117	11119334.627940878
1.4830944538116455	11527281.991639355
1.4872838258743286	11936248.71612937
1.491468071937561	12096092.794581162
1.4956470727920532	12166229.55125745
1.4998208284378052	12428907.190192876
1.5039892196655273	12748701.867890349
1.5081522464752197	12868004.865643214
1.5123097896575928	12981223.278403874
1.5164618492126465	13253865.431611303
1.5206083059310913	13614192.405252643
1.5247491598129272	13880768.652273782
1.5288842916488647	13975471.616756083
1.5330137014389038	14100994.759152247
1.5371372699737549	14281422.744400114
1.541254997253418	14397478.108484278
1.545366883277893	14522105.62244299
1.5494728088378906	14684904.337715637
1.5535727739334106	14796661.02563132
1.5576666593551636	14832937.383432943
1.561754584312439	14916667.287311044
1.5658363103866577	15107116.440299122
1.5699119567871094	15266066.008762613
1.5739814043045044	15302484.799261414
1.5780447721481323	15290721.308458213
1.582101821899414	15412174.510057444
1.5861525535583496	15641181.707204925
1.5901970863342285	15784148.86022118
1.5942351818084717	15843028.202584244
1.5982669591903687	15893294.526578572
1.6022924184799194	15979811.991041705
1.606311559677124	16093348.176772472
1.6103241443634033	16178577.634286229
1.6143304109573364	16246085.262992963
1.6183301210403442	16325859.45390587
1.6223233938217163	16429017.710724223
1.6263102293014526	16547264.674507743
1.6302905082702637	16635343.287921976
1.634264349937439	16717120.038384961
1.638231635093689	16826635.998880386
1.6421923637390137	16924718.413730316
1.646146535873413	16997191.683338195
1.6500942707061768	17052830.183956396
1.6540353298187256	17109815.98599361
1.6579699516296387	17163625.52459745
1.661897897720337	17192993.5980926
1.6658192873001099	17203225.2141327
1.6697341203689575	17247082.57397767
1.6736423969268799	17386103.340518594
1.677544116973877	17532133.793729875
1.6814392805099487	17617430.689247843
1.6853278875350952	17681352.791296836
1.6892099380493164	17695723.091421183
1.6930854320526123	17635291.69236475
1.696954369544983	17607697.262118056
1.7008168697357178	17700717.161484446
1.7046726942062378	17788014.25209871
1.708522081375122	17787421.117411554
1.712364912033081	17770280.933035173
1.7162011861801147	17808798.69928777
1.7200311422348022	17891033.07140969
1.723854422569275	17929368.452605043
1.7276713848114014	17885843.274489023
1.731481909751892	17743160.85233058
1.7352858781814575	17551088.919464108
1.7390835285186768	17398017.727861863
1.7428747415542603	17194428.337765962
1.7466596364974976	16880729.37613056
1.7504380941390991	16480399.196530662
1.7542102336883545	16230027.825893106
1.7579760551452637	16708126.914226571
1.7617355585098267	17363704.73233822
1.7654887437820435	17123314.801724903
1.7692357301712036	16137293.684901208
1.7729763984680176	14721175.148917124
1.776710867881775	13068424.27041036
1.7804391384124756	12371648.97672852
1.7841613292694092	12429709.591979036
1.7878772020339966	12046881.128396835
1.7915871143341064	12179283.398971785
1.7952908277511597	12648717.052188927
1.7989884614944458	11927905.750954036
1.8026801347732544	10056935.843738152
1.806365728378296	8177586.083025008
1.8100452423095703	8201791.675547521
1.8137187957763672	9276138.751638893
1.817386507987976	9049613.437201338
1.8210482597351074	9596660.345463209
1.8247040510177612	10110774.933375316
1.828354001045227	8668416.854013478
1.8319982290267944	8656742.403508818
1.8356364965438843	10398960.183199195
1.8392690420150757	11797311.655523982
1.8428958654403687	12236395.205584899
1.8465168476104736	12133883.376535846
1.8501322269439697	11527312.220641157
1.8537418842315674	9687205.863622779
1.8573459386825562	8630865.328774968
1.860944390296936	8570696.40364227
1.864537239074707	8161208.036211199
1.8681244850158691	9084383.610415004
1.871706247329712	11139279.40241569
1.8752825260162354	12603264.024788471
1.8788533210754395	13659886.462265685
1.8824186325073242	14292723.894461147
1.8859784603118896	13966285.113012506
1.8895330429077148	13716343.265412426
1.8930821418762207	14469270.72174938
1.8966259956359863	14318591.206570469
1.9001644849777222	11844946.693980245
1.9036977291107178	9624404.014344769
1.9072256088256836	9885110.496251613
1.9107483625411987	9899043.891513979
1.9142658710479736	8290936.40367356
1.9177782535552979	8191182.652096851
1.9212853908538818	9430806.472212965
1.9247875213623047	9518089.975844482
1.9282845258712769	9667902.90671967
1.9317764043807983	10856796.980501808
1.9352631568908691	11316396.894758057
1.9387450218200684	10799241.729772624
1.942221760749817	10755219.689035347
1.9456936120986938	11030655.507576687
1.9491604566574097	11101165.630053163
1.952622413635254	10707000.96622113
1.956079363822937	10170872.116239253
1.959531545639038	10559266.930641972
1.962978720664978	11142557.29470109
1.966421127319336	11974423.027507477
1.9698586463928223	13366881.188182944
1.9732913970947266	14012385.451521609
1.9767193794250488	14269783.731461296
1.9801424741744995	15103202.308707058
1.9835609197616577	15899098.80223447
1.9869745969772339	15906757.857000932
1.990383505821228	15172806.31184273
1.9937876462936401	14915160.603806978
1.9971871376037598	15046158.353530237
2.000581979751587	15391956.599140756
2.003972291946411	16456924.071866037
2.007357597351074	17263780.095658593
2.0107386112213135	17820333.600633305
2.0141148567199707	18104879.32145399
2.017486572265625	17726571.88842983
2.0208535194396973	17837914.07264328
2.0242159366607666	18585009.103108138
2.027573823928833	19068334.389435407
2.0309269428253174	19337128.9222666
2.034275770187378	19649659.00852471
2.0376198291778564	19888340.07848484
2.040959596633911	20087722.658505812
2.044294595718384	20352425.033961803
2.0476250648498535	20628109.819211654
2.0509510040283203	20719019.891753443
2.054272413253784	20619173.945122458
2.057589530944824	20672794.9583687
2.0609018802642822	20893998.340418797
2.0642096996307373	21083700.97349068
2.0675129890441895	21218485.72465838
2.0708119869232178	21287354.95614861
2.074106216430664	21279637.006213184
2.0773961544036865	21279552.700099565
2.080681324005127	21351105.092110567
2.0839622020721436	21444565.530355364
2.087238311767578	21519633.768306192
2.090510129928589	21541304.30647783
2.0937774181365967	21527256.145649955
2.0970399379730225	21557920.72939727
2.1002981662750244	21603746.789542284
2.1035518646240234	21601059.50802798
2.1068007946014404	21588869.492876433
2.1100454330444336	21676686.868669447
2.1132853031158447	21805174.124328345
2.116520881652832	21833066.896551773
2.1197516918182373	21840958.232585974
2.1229779720306396	21903567.144686375
2.12619948387146	21961008.719884947
2.1294167041778564	21987884.093199868
2.132629156112671	22016348.709283754
2.1358368396759033	22028562.64321092
2.139039993286133	22008980.068986773
2.1422386169433594	22005456.410623487
2.145432472229004	22025853.03868376
2.1486217975616455	22035164.209523987
2.151806354522705	22026435.244770095
2.1549863815307617	22032147.296589576
2.1581614017486572	22067326.18247309
2.16133189201355	22101111.85564214
2.1644976139068604	22120325.33508144
2.167658567428589	22122695.859223675
2.1708147525787354	22098448.58861693
2.173966407775879	22053128.630790234
2.1771130561828613	22039878.110896453
2.1802549362182617	22093180.504261225
2.183391809463501	22151237.93239174
2.1865241527557373	22173968.522365358
2.1896514892578125	22178426.95698355
2.1927738189697266	22125602.87376719
2.1958916187286377	21980413.645965036
2.1990041732788086	21857475.79633569
2.2021119594573975	21852967.232210264
2.2052149772644043	21897216.6443835
2.208312749862671	21951188.780500058
2.2114057540893555	22009183.533042047
2.214493751525879	22017569.669986535
2.217576742172241	21978319.418698125
2.2206547260284424	21965815.75654041
2.2237277030944824	21978173.34987411
2.2267956733703613	21938999.364344236
2.2298583984375	21870583.417043936
2.2329163551330566	21843375.70414226
2.235969066619873	21866475.63919291
2.2390167713165283	21858503.34971579
2.2420592308044434	21705102.20630412
2.2450966835021973	21481004.001787715
2.248128890991211	21413156.0557394
2.2511560916900635	21533480.43052589
2.254178285598755	21666637.14715096
2.257194995880127	21730298.262719367
2.260206699371338	21699810.017617743
2.2632133960723877	21487383.47486253
2.266214609146118	21185289.77361711
2.2692108154296875	21054435.773770384
2.2722020149230957	21178711.897534736
2.2751877307891846	21368179.7333165
2.278168201446533	21364880.969219487
2.2811436653137207	21194543.84981515
2.284113883972168	21132513.31291018
2.287078857421875	21192548.357687384
2.290038824081421	20987841.58853136
2.2929933071136475	20120495.390919127
2.295942783355713	18620767.238349754
2.298887014389038	16938433.336239252
2.301826238632202	15500201.365242088
2.304760217666626	14374813.085018951
2.3076889514923096	13590189.954161849
2.310612440109253	13525116.605707733
2.3135311603546143	13937368.936987642
2.3164443969726562	13938795.409222472
2.319352865219116	13538767.40411204
2.322256088256836	13259148.198230464
2.3251543045043945	13216409.432222364
2.328047275543213	13342464.964078398
2.330935478210449	13660660.103887325
2.3338186740875244	14173910.538395142
2.3366971015930176	14775787.835930444
2.3395702838897705	15430194.084925104
2.3424389362335205	16223775.7985692
2.3453025817871094	17184780.923784487
2.348161458969116	17741495.617408022
2.351015567779541	17395049.028657462
2.353865146636963	16625713.63505414
2.3567099571228027	16020760.877113065
2.3595502376556396	15991341.924652258
2.3623859882354736	16677584.358028978
2.3652172088623047	16891878.75062288
2.368043899536133	15927483.176128566
2.370866537094116	15643710.507631546
2.3736846446990967	16613876.060200138
2.3764986991882324	16307305.661328059
2.3793084621429443	14626832.109836886
2.3821144104003906	13982736.669776822
2.384916305541992	15105584.788315604
2.387714147567749	17037402.967443034
2.3905084133148193	18411844.208233025
2.393299102783203	18481996.186177626
2.3960859775543213	17240351.878233295
2.398869514465332	15704527.169140844
2.4016497135162354	14871713.586118603
2.4044265747070312	14746255.004838342
2.407200336456299	15096713.758326253
2.409970998764038	15536411.216151088
2.4127390384674072	15764000.59817409
2.415503978729248	15988406.879311282
2.418266534805298	16438516.829511698
2.4210267066955566	16841533.350359745
2.4237842559814453	16898943.461932153
2.426539897918701	16693620.46058338
2.429293394088745	16367011.734447097
2.4320452213287354	16152352.64206702
2.4347951412200928	16283765.959927745
2.4375438690185547	16449249.551080447
2.440291166305542	16165668.178787746
2.443037271499634	15476944.191815233
2.445782423019409	14777226.271843033
2.4485268592834473	14165407.142458903
2.451270818710327	13845567.839203948
2.454014539718628	14584208.963156488
2.4567582607269287	15631692.242701441
2.4595019817352295	15456335.962516187
2.4622461795806885	15333884.126415007
2.4649908542633057	15421970.799628643
2.4677364826202393	14090569.478683656
2.4704833030700684	11972072.440275958
2.473231554031372	10012085.121096801
2.4759814739227295	8491855.700526882
2.4787333011627197	7978407.942357131
