#wavelength	surface flux
0.6450077295303345	1550.68254233375
0.6472567915916443	2408.3664760883817
0.6494921445846558	3076.7082438728235
0.6517150402069092	3452.919985459347
0.6539263725280762	3814.9695028235237
0.6561272740364075	4179.201314495154
0.6583186388015747	4567.247931170161
0.6605015397071838	4993.873490768914
0.6626768708229065	5448.751638721584
0.6648455858230591	5911.59456857896
0.6670085787773132	6276.192048810692
0.6691668033599854	6337.918570357247
0.6713210344314575	6570.741042286131
0.6734722256660461	7470.500354827529
0.6756211519241333	8414.961074620778
0.6777685880661011	9055.130378651518
0.6799154281616211	9636.032625976786
0.6820623278617859	10219.638315281736
0.6842101216316223	10807.712774389562
0.6863595843315125	11395.582374904157
0.688511312007904	11938.615243933398
0.6906660795211792	12292.555834442033
0.6928245425224304	12595.738888487902
0.6949873566627502	13266.445308519395
0.6971551775932312	14085.652544304441
0.6993286609649658	14652.314735266318
0.7015084028244019	15070.259923294652
0.7036949396133423	15594.270361672516
0.7058889269828796	16209.579555820737
0.7080909013748169	16680.393842100657
0.710301399230957	17066.61102284146
0.712520956993103	17405.050130578595
0.7147500514984131	17364.96780221191
0.7169892191886902	16986.119216333125
0.7192389369010925	16909.20366792559
0.7214996814727783	16950.881930615975
0.723771870136261	16512.477646051277
0.7260559797286987	15871.323940156255
0.7283523678779602	15328.568664226445
0.7306615710258484	14943.84015606242
0.7329838871955872	14712.765858658253
0.7353196740150452	14287.010479932513
0.7376693487167358	13570.8489544406
0.7400332689285278	12670.848973704737
0.7424117922782898	11539.163117090728
0.7448052167892456	10307.352042415196
0.7472138404846191	9028.656915931611
0.7496379613876343	7668.946924527797
0.7520779371261597	6295.320181339614
0.7545340061187744	4973.175174191598
0.7570064663887024	3754.3862177534984
0.7594954967498779	2658.270224591321
0.7620013952255249	1677.071426064776
0.7645244002342224	861.4035866999685
0.7670646905899048	386.8444284026649
0.7696225643157959	410.95545887034115
0.7721980810165405	1071.7353475849475
0.7747915983200073	2312.787378730056
0.7774031162261963	3780.555186162375
0.7800329327583313	5541.402254356435
0.7826811671257019	8164.842495069764
0.7853479981422424	11556.487200052172
0.7880334854125977	15162.005902777886
0.7907378077507019	17378.005107491153
0.7934610247612	17208.70546136765
0.7962033748626709	21286.727205954325
0.7989648580551147	31406.67502983302
0.801745593547821	40198.53448399867
0.8045456409454346	46625.634351009365
0.8073651194572449	52200.609842460784
0.8102040886878967	56154.15563539618
0.8130625486373901	60742.38373357146
0.8159406185150146	69058.28895392883
0.8188382983207703	78259.23666810794
0.8217556476593018	85100.23482679971
0.8246926665306091	91922.50159972707
0.8276493549346924	99080.74029885803
0.8306257724761963	105100.12728447877
0.8336219191551208	111497.51047239351
0.8366377949714661	118169.03478475193
0.8396733403205872	127732.67650834638
0.8427285552024841	142186.9113926414
0.8458034992218018	155680.27016397886
0.8488980531692505	163047.93088430978
0.8520121574401855	168585.27942034308
0.8551458716392517	182355.68288087376
0.8582990765571594	199556.59522364975
0.8614717125892639	211421.99841704319
0.8646637797355652	221584.5501134176
0.8678751587867737	233568.21753353364
0.8711057901382446	246757.3380049552
0.8743556141853333	258523.52588042337
0.87762451171875	266383.83361083624
0.8809124231338501	267973.6062005511
0.8842192888259888	265733.9845161874
0.8875449895858765	262883.5439214579
0.8908893465995789	252651.76057977419
0.894252359867096	241213.30121568963
0.8976338505744934	259453.38147988333
0.9010337591171265	303906.54831007397
0.9044519662857056	338506.02056568203
0.9078882932662964	357182.26975903107
0.9113426208496094	369480.9680124741
0.914814829826355	368548.015635231
0.9183048605918884	369221.49250586075
0.9218124747276306	372712.98121128744
0.925337553024292	312067.4502834457
0.9288799166679382	202228.93201985367
0.9324395060539246	143407.64929991934
0.9360161423683167	154886.28021827954
0.9396095871925354	193209.28355140032
0.943219780921936	189110.60600166844
0.9468464851379395	159636.97121130014
0.9504896402359009	175913.36636656572
0.9541489481925964	220345.76844743738
0.9578243494033813	230508.05410208815
0.9615156054496765	189476.20363262936
0.9652225375175476	170008.29203826556
0.9689450263977051	226971.4010853221
0.9726828336715698	328506.5394235694
0.9764357805252075	398545.70365322987
0.9802037477493286	439515.87643917155
0.983986496925354	488188.02244156075
0.9877838492393494	550095.1794396741
0.9915955662727356	624554.8985888521
0.9954215884208679	687505.1267131511
0.9992615580558777	733365.9154235915
1.0031154155731201	770881.2544774782
1.0069829225540161	812528.932856447
1.0108637809753418	863687.4109014149
1.0147579908370972	916275.261378544
1.018665075302124	956675.9846206737
1.022585153579712	976874.193152303
1.0265177488327026	987745.6835433895
1.0304628610610962	1014976.7949262267
1.0344202518463135	1065136.2181932789
1.0383895635604858	1110783.639501064
1.0423706769943237	1140554.366573756
1.0463634729385376	1161683.8755097415
1.0503677129745483	1181603.3574274213
1.0543830394744873	1210807.8739992005
1.058409333229065	1243391.7730955398
1.0624464750289917	1268694.9671678941
1.0664942264556885	1285107.8424166234
1.0705522298812866	1297330.5414635756
1.0746204853057861	1319982.203662327
1.0786986351013184	1349801.8271647852
1.0827864408493042	1371666.3918103727
1.086883783340454	1360269.174755681
1.0909905433654785	1298904.9723365486
1.0951062440872192	1184296.216122848
1.0992310047149658	911994.24940158
1.10336434841156	556703.609924842
1.1075061559677124	415005.68054266385
1.1116561889648438	383157.06251972157
1.115814208984375	277055.0238786372
1.1199802160263062	188657.8378931972
1.124153733253479	164321.65785373392
1.1283347606658936	180928.1609993582
1.1325229406356812	206030.47483876007
1.1367181539535522	282351.17133258743
1.1409201622009277	374915.37015198445
1.145128846168518	425586.47847139416
1.1493438482284546	350463.6599537725
1.1535650491714478	161172.8195733556
1.1577922105789185	76350.55669734515
1.1620250940322876	140871.84867077062
1.1662636995315552	264571.8640668773
1.170507550239563	387325.4924182331
1.174756646156311	595835.5309186005
1.1790107488632202	909821.9417678043
1.1832695007324219	1188388.5916794038
1.1875330209732056	1378786.0870813336
1.191800832748413	1579552.4261701074
1.1960728168487549	1822126.4456376876
1.2003488540649414	1995301.8947243022
1.2046287059783936	2090773.6454709847
1.2089121341705322	2157697.9683829346
1.2131990194320679	2229232.306450303
1.2174891233444214	2336583.552324952
1.2217823266983032	2460403.6116706086
1.2260783910751343	2574169.2429635036
1.230377197265625	2655442.8493973846
1.2346785068511963	2714579.783940294
1.238982081413269	2794218.9808255825
1.2432878017425537	2874463.6054561734
1.2475954294204712	2935754.710516684
1.2519049644470215	2994155.28914676
1.256216049194336	3052131.528930862
1.2605286836624146	3085119.3916857974
1.2648425102233887	3095978.517876476
1.2691574096679688	3101751.4055422978
1.2734732627868652	3112438.662984015
1.2777899503707886	3113391.29485001
1.2821072340011597	3075976.6501174383
1.2864248752593994	2970603.773094199
1.2907428741455078	2798598.362506271
1.2950609922409058	2719786.8094752473
1.2993791103363037	2672339.4353955984
1.303696870803833	2505947.8693075245
1.3080145120620728	2355263.757456691
1.3123314380645752	2346247.73645218
1.3166478872299194	2519557.363439455
1.3209635019302368	2425418.1671285853
1.3252781629562378	1847274.669404624
1.3295916318893433	1163576.51627744
1.3339040279388428	554000.1947563364
1.3382149934768677	173167.15807075307
1.3425244092941284	46318.18057381784
1.3468321561813354	24739.581867429235
1.3511382341384888	16340.527805285195
1.3554422855377197	7487.01569835367
1.3597444295883179	5202.14722119102
1.3640443086624146	3796.9366566701865
1.3683418035507202	6150.572076958028
1.3726370334625244	21272.607893543514
1.3769296407699585	39993.39874444076
1.381219506263733	31741.334321527178
1.3855066299438477	9766.510092830009
1.3897908926010132	2247.765748997484
1.3940720558166504	3354.1015474189794
1.3983501195907593	8652.139819120654
1.4026249647140503	19630.440101506683
1.4068963527679443	25734.45596678097
1.4111642837524414	17938.585596365498
1.4154287576675415	11457.241986009292
1.419689416885376	10405.653117657721
1.4239463806152344	8550.43844973107
1.4281994104385376	13592.641806301584
1.4324485063552856	28032.339467439935
1.436693549156189	40122.31465197751
1.440934419631958	50252.585014252014
1.4451709985733032	104170.37861076777
1.449403166770935	228602.16638111067
1.453631043434143	324998.1408344118
1.4578542709350586	371879.9180639466
1.4620729684829712	434656.87620728806
1.4662868976593018	418094.7219749671
1.4704961776733398	295757.20128701517
1.4747005701065063	198648.12270859868
1.4788999557495117	194563.58719028067
1.4830944538116455	308480.20278692746
1.4872838258743286	431283.79326389375
1.491468071937561	395076.4488401142
1.4956470727920532	286180.6301453349
1.4998208284378052	325568.7664406387
1.5039892196655273	493168.5964512157
1.5081522464752197	585069.4227023548
1.5123097896575928	660383.8535285951
1.5164618492126465	831836.6364387315
1.5206083059310913	1062384.2506356193
1.5247491598129272	1415458.4017211844
1.5288842916488647	1764826.9808338166
1.5330137014389038	1876355.3107454868
1.5371372699737549	2130460.773962072
1.541254997253418	2689498.9971636254
1.545366883277893	2997772.475138968
1.5494728088378906	3037874.762236266
1.5535727739334106	3251521.1301018447
1.5576666593551636	3599858.871248039
1.561754584312439	4024820.4821297876
1.5658363103866577	4520743.16493948
1.5699119567871094	4737683.674492659
1.5739814043045044	4596959.78894465
1.5780447721481323	4377413.760078338
1.582101821899414	4527971.019292501
1.5861525535583496	4963090.902837526
1.5901970863342285	5048115.8048251225
1.5942351818084717	4738746.254222695
1.5982669591903687	4387141.979253985
1.6022924184799194	4137871.012462404
1.606311559677124	3965306.2268249956
1.6103241443634033	3795918.973263978
1.6143304109573364	3461331.872940336
1.6183301210403442	2925057.797556436
1.6223233938217163	2315853.6847882713
1.6263102293014526	1736491.7017766493
1.6302905082702637	1351033.2370850819
1.634264349937439	1705483.920430422
1.638231635093689	2800498.2553387387
1.6421923637390137	3305883.831294073
1.646146535873413	2588773.149175519
1.6500942707061768	1834961.848653002
1.6540353298187256	2039295.6949917888
1.6579699516296387	2486022.8462045765
1.661897897720337	2277534.82340234
1.6658192873001099	1486998.0811287574
1.6697341203689575	1037117.1232244674
1.6736423969268799	1384373.183836677
1.677544116973877	1548719.8385627216
1.6814392805099487	1299553.1918069138
1.6853278875350952	1127035.0839082177
1.6892099380493164	957353.3383460004
1.6930854320526123	727672.5953564446
1.696954369544983	493707.7076119066
1.7008168697357178	406746.2021550797
1.7046726942062378	508087.00976146903
1.708522081375122	698760.5639528141
1.712364912033081	924648.5031807182
1.7162011861801147	1186721.9245461493
1.7200311422348022	1438233.7724279605
1.723854422569275	1467346.9551943843
1.7276713848114014	1310407.9842350672
1.731481909751892	1163037.8297908485
1.7352858781814575	1071721.5162829729
1.7390835285186768	1087662.6212205666
1.7428747415542603	1117089.5264368507
1.7466596364974976	1044542.9838258184
1.7504380941390991	916235.685380636
1.7542102336883545	849269.8079527821
1.7579760551452637	987863.0050189261
1.7617355585098267	1096694.961231422
1.7654887437820435	935293.4088245903
1.7692357301712036	663632.6251459549
1.7729763984680176	392136.28816371766
1.776710867881775	191661.68881122812
1.7804391384124756	127194.85787696953
1.7841613292694092	128140.06836691535
1.7878772020339966	108029.20722463526
1.7915871143341064	122083.54430776958
1.7952908277511597	237388.51865404774
1.7989884614944458	316289.4079413214
1.8026801347732544	197057.5919833505
1.806365728378296	51426.82260242145
1.8100452423095703	32607.535375787105
1.8137187957763672	43488.9770059055
1.817386507987976	37599.81925144568
1.8210482597351074	50775.65945234212
1.8247040510177612	55539.16761826007
1.828354001045227	24951.018569714142
1.8319982290267944	11399.770278727556
1.8356364965438843	29616.193848467803
1.8392690420150757	50771.890354794545
1.8428958654403687	50669.651876193115
1.8465168476104736	63964.84355540407
1.8501322269439697	108115.74953588807
1.8537418842315674	102748.92480321336
1.8573459386825562	62214.371756675966
1.860944390296936	43288.901235389116
1.864537239074707	21513.08255169902
1.8681244850158691	9092.77442958506
1.871706247329712	21813.46901519487
1.8752825260162354	76371.82843520892
1.8788533210754395	235811.5098197328
1.8824186325073242	379865.3648856287
1.8859784603118896	332793.60779095034
1.8895330429077148	248184.60789721576
1.8930821418762207	311711.8505251845
1.8966259956359863	321415.2127473413
1.9001644849777222	143368.829156236
1.9036977291107178	16515.90900363514
1.9072256088256836	5462.213451294135
1.9107483625411987	5463.027628942628
1.9142658710479736	2908.701617679296
1.9177782535552979	4494.136600590033
1.9212853908538818	8848.01649367461
1.9247875213623047	8989.654300686041
1.9282845258712769	8009.573901599969
1.9317764043807983	10313.124255574126
1.9352631568908691	12111.99593526869
1.9387450218200684	13096.439282750307
1.942221760749817	18874.886146987927
1.9456936120986938	38599.64223203035
1.9491604566574097	70371.45880296647
1.952622413635254	73210.77824836197
1.956079363822937	44416.18530609519
1.959531545639038	36958.3375449133
1.962978720664978	61691.7398877086
1.966421127319336	107249.19067808194
1.9698586463928223	161995.8926488478
1.9732913970947266	174058.60316718183
1.9767193794250488	129408.52334136835
1.9801424741744995	131597.15627301155
1.9835609197616577	239327.86114486406
1.9869745969772339	315553.6718106915
1.990383505821228	325053.45436395734
1.9937876462936401	413196.85157750605
1.9971871376037598	464557.1203852579
2.000581979751587	462969.3530020922
2.003972291946411	573654.7626226273
2.007357597351074	754926.0220316101
2.0107386112213135	993069.8909131951
2.0141148567199707	1004243.7362645736
2.017486572265625	686250.9685244602
2.0208535194396973	442895.08957421477
2.0242159366607666	383364.21542823775
2.027573823928833	569570.5484777457
2.0309269428253174	847256.9572309472
2.034275770187378	893188.8630153338
2.0376198291778564	1056440.387445239
2.040959596633911	1526400.6502704716
2.044294595718384	1987525.5383198147
2.0476250648498535	2408362.552586101
2.0509510040283203	2491981.964700819
2.054272413253784	2118806.619691428
2.057589530944824	2085503.4867233313
2.0609018802642822	2523203.2167339614
2.0642096996307373	2823464.6715967045
2.0675129890441895	2899778.2402856806
2.0708119869232178	2898075.6939616594
2.074106216430664	2866737.558450662
2.0773961544036865	2881008.4340035855
2.080681324005127	2930403.5339890434
2.0839622020721436	2929645.190845649
2.087238311767578	2904473.2060801736
2.090510129928589	2887696.746304424
2.0937774181365967	2842310.0825337367
2.0970399379730225	2791419.5039707953
2.1002981662750244	2734959.0446977546
2.1035518646240234	2637559.622965456
2.1068007946014404	2508680.7617867524
2.1100454330444336	2444948.462929895
2.1132853031158447	2427010.7422485384
2.116520881652832	2328019.7410638067
2.1197516918182373	2205530.0574184307
2.1229779720306396	2144036.24206094
2.12619948387146	2132639.3273049756
2.1294167041778564	2118625.897273656
2.132629156112671	2083332.1323511128
2.1358368396759033	1979183.1915106932
2.139039993286133	1827258.9316397524
2.1422386169433594	1685665.7545332469
2.145432472229004	1541650.811720258
2.1486217975616455	1412483.0083491593
2.151806354522705	1262818.5006179335
2.1549863815307617	1234230.511659633
2.1581614017486572	1293410.8265282249
2.16133189201355	1190000.87838702
2.1644976139068604	1061693.1644101364
2.167658567428589	1043916.4179889269
2.1708147525787354	1128744.2308393288
2.173966407775879	1256827.4758633836
2.1771130561828613	1265450.529805465
2.1802549362182617	1109942.446663153
2.183391809463501	930511.3689997669
2.1865241527557373	818122.2267017137
2.1896514892578125	695341.2713955039
2.1927738189697266	508410.39138718037
2.1958916187286377	304061.94356403337
2.1990041732788086	160836.7944406141
2.2021119594573975	107620.94863112371
2.2052149772644043	108136.55517014908
2.208312749862671	116359.28016807523
2.2114057540893555	131560.44217715936
2.214493751525879	150655.4144115195
2.217576742172241	146572.20464861058
2.2206547260284424	128038.2242603753
2.2237277030944824	118304.12934914371
2.2267956733703613	106905.62255780378
2.2298583984375	83902.92472651138
2.2329163551330566	64569.80212408973
2.235969066619873	55953.28233901598
2.2390167713165283	48338.20118097257
2.2420592308044434	33131.79360252023
2.2450966835021973	15761.106170310297
2.248128890991211	11181.50196451403
2.2511560916900635	19428.56064156429
2.254178285598755	28077.64933388034
2.257194995880127	39560.3122072207
2.260206699371338	48392.00222740921
2.2632133960723877	42311.34221616195
2.266214609146118	32630.8421616237
2.2692108154296875	30252.321338883907
2.2722020149230957	36582.73073372946
2.2751877307891846	45550.57818876877
2.278168201446533	45372.41362496373
2.2811436653137207	36980.157880068014
2.284113883972168	30432.42853771279
2.287078857421875	26604.394829832607
2.290038824081421	23891.649447592434
2.2929933071136475	25738.846702276714
2.295942783355713	28692.313884487077
2.298887014389038	24818.448674007323
2.301826238632202	19862.16703316116
2.304760217666626	35856.33061716191
2.3076889514923096	75260.12290650191
2.310612440109253	113413.32665836748
2.3135311603546143	114446.74570571889
2.3164443969726562	66690.63627670663
2.319352865219116	25205.581608738303
2.322256088256836	21552.053922171588
2.3251543045043945	27676.102148371687
2.328047275543213	27968.87941475077
2.330935478210449	25859.576973464482
2.3338186740875244	23806.009961550673
2.3366971015930176	20786.07865341113
2.3395702838897705	18172.55377614183
2.3424389362335205	15026.313018851122
2.3453025817871094	11115.857087483211
2.348161458969116	10182.05174401017
2.351015567779541	15506.150908665693
2.353865146636963	25600.283134497575
2.3567099571228027	34006.8967607316
2.3595502376556396	40435.83009468192
2.3623859882354736	46995.411786530916
2.3652172088623047	43445.24520919821
2.368043899536133	26377.610698978377
2.370866537094116	11814.170752038892
2.3736846446990967	9794.768120832667
2.3764986991882324	14942.13787199507
2.3793084621429443	22294.174115547095
2.3821144104003906	30754.486645909452
2.384916305541992	40701.57617634144
2.387714147567749	45639.33322291192
2.3905084133148193	39540.647038895346
2.393299102783203	34202.86209610193
2.3960859775543213	37893.52579151083
2.398869514465332	45475.66035762844
2.4016497135162354	47616.89056827395
2.4044265747070312	47679.93536590764
2.407200336456299	65595.97012002137
2.409970998764038	100796.04606789797
2.4127390384674072	123078.19790880622
2.415503978729248	124616.21515264873
2.418266534805298	136265.92832235576
2.4210267066955566	155203.44166392792
2.4237842559814453	143179.61222005734
2.426539897918701	130335.61030871906
2.429293394088745	181148.77742332304
2.4320452213287354	255058.7815969633
2.4347951412200928	267385.64376112877
2.4375438690185547	249937.9265012952
2.440291166305542	276076.8065818918
2.443037271499634	300001.5832628034
2.445782423019409	251157.0254102677
2.4485268592834473	175108.52771439482
2.451270818710327	164955.2432835381
2.454014539718628	227054.40546553367
2.4567582607269287	281797.09880151716
2.4595019817352295	313088.08387571096
2.4622461795806885	367854.43242467364
2.4649908542633057	373441.41295709554
2.4677364826202393	273010.36583864456
2.4704833030700684	169512.94643574575
2.473231554031372	127073.8974015602
2.4759814739227295	112954.68667949732
2.4787333011627197	103149.95825983468
