#wavelength	surface flux
0.6450077295303345	19311.01739039111
0.6472567915916443	30484.109162221223
0.6494921445846558	40050.43019662358
0.6517150402069092	46414.386612167815
0.6539263725280762	52966.874494550655
0.6561272740364075	59925.257367230704
0.6583186388015747	67325.08023024547
0.6605015397071838	75166.95132517072
0.6626768708229065	83440.2752222763
0.6648455858230591	91818.81992378907
0.6670085787773132	96533.8997743577
0.6691668033599854	90802.0759638682
0.6713210344314575	89835.91775592495
0.6734722256660461	112311.82087404997
0.6756211519241333	139338.6294438833
0.6777685880661011	155986.4633495804
0.6799154281616211	169103.97024959428
0.6820623278617859	181764.36092033138
0.6842101216316223	194306.02771932777
0.6863595843315125	206665.60873934694
0.688511312007904	218377.37378393396
0.6906660795211792	228142.9852388186
0.6928245425224304	236524.548226523
0.6949873566627502	247505.77138515175
0.6971551775932312	260095.2676919099
0.6993286609649658	270608.7131104316
0.7015084028244019	280024.90640924417
0.7036949396133423	288161.5688039346
0.7058889269828796	293787.4060358821
0.7080909013748169	297318.07107603824
0.710301399230957	299731.6965510796
0.712520956993103	300529.56439260783
0.7147500514984131	297661.91919108026
0.7169892191886902	290932.1065529035
0.7192389369010925	281458.42548861355
0.7214996814727783	268791.663326087
0.723771870136261	253210.08418212394
0.7260559797286987	236392.4937198024
0.7283523678779602	218279.28880657477
0.7306615710258484	203830.86567757334
0.7329838871955872	195152.4508479854
0.7353196740150452	181219.86555661212
0.7376693487167358	159802.64239451126
0.7400332689285278	137326.50644788312
0.7424117922782898	115374.65406372998
0.7448052167892456	94918.18628892294
0.7472138404846191	75711.73099140236
0.7496379613876343	57622.31041407338
0.7520779371261597	41641.24724772615
0.7545340061187744	28340.76065159187
0.7570064663887024	17997.917791592507
0.7594954967498779	10550.479181747198
0.7620013952255249	5520.708980286658
0.7645244002342224	2379.911812737663
0.7670646905899048	892.5383718707658
0.7696225643157959	957.8615479900998
0.7721980810165405	2947.5652868197953
0.7747915983200073	7419.926685578751
0.7774031162261963	13982.812088919572
0.7800329327583313	24301.666371396197
0.7826811671257019	43575.04061313601
0.7853479981422424	72296.10053649858
0.7880334854125977	106643.24428602248
0.7907378077507019	131520.7306861656
0.7934610247612	136917.05318117203
0.7962033748626709	186867.73843365605
0.7989648580551147	303888.4359979889
0.801745593547821	417744.02784946834
0.8045456409454346	514455.8578184812
0.8073651194572449	609564.3491716954
0.8102040886878967	702302.5516185291
0.8130625486373901	814324.2465193707
0.8159406185150146	955316.0908657379
0.8188382983207703	1115392.2245632296
0.8217556476593018	1300498.2076620904
0.8246926665306091	1486095.9465267481
0.8276493549346924	1644498.614487901
0.8306257724761963	1830064.7888167263
0.8336219191551208	2083559.8548135157
0.8366377949714661	2331014.193351782
0.8396733403205872	2550116.5786900874
0.8427285552024841	2801557.59426419
0.8458034992218018	3065202.155802224
0.8488980531692505	3128751.0687313783
0.8520121574401855	3116790.694301598
0.8551458716392517	3633728.7087114104
0.8582990765571594	4391285.593952009
0.8614717125892639	4762377.126682543
0.8646637797355652	5037403.844669908
0.8678751587867737	5505174.930675079
0.8711057901382446	6014252.986982234
0.8743556141853333	6478711.30110797
0.87762451171875	6934353.065157031
0.8809124231338501	7321316.83003855
0.8842192888259888	7611886.15881796
0.8875449895858765	7751549.733649882
0.8908893465995789	7376432.35038771
0.894252359867096	6768479.237235574
0.8976338505744934	7567906.082687366
0.9010337591171265	9899255.685211545
0.9044519662857056	12058523.86954831
0.9078882932662964	13393371.413743919
0.9113426208496094	13990664.562519955
0.914814829826355	13967784.056651255
0.9183048605918884	14006279.639546907
0.9218124747276306	13277924.472251773
0.925337553024292	10146128.851584818
0.9288799166679382	7564696.764569058
0.9324395060539246	7469909.357754447
0.9360161423683167	7722245.42990337
0.9396095871925354	7524602.849499073
0.943219780921936	7209053.067898725
0.9468464851379395	6513380.990025858
0.9504896402359009	7255984.94097185
0.9541489481925964	10320379.737172754
0.9578243494033813	10991142.485536247
0.9615156054496765	8180088.536530183
0.9652225375175476	6021965.212872605
0.9689450263977051	7945415.316441612
0.9726828336715698	12707057.140872747
0.9764357805252075	15102616.643198695
0.9802037477493286	16006564.735422665
0.983986496925354	19383928.002685938
0.9877838492393494	23010570.489008714
0.9915955662727356	24568821.69562782
0.9954215884208679	24805615.637056388
0.9992615580558777	23225154.013346687
1.0031154155731201	21551777.69641638
1.0069829225540161	23054337.3412515
1.0108637809753418	27535509.2571863
1.0147579908370972	32694685.063160647
1.018665075302124	36030333.05502498
1.022585153579712	36544475.19334304
1.0265177488327026	37407210.674986
1.0304628610610962	41213587.04315727
1.0344202518463135	45436973.45046132
1.0383895635604858	48226879.30889077
1.0423706769943237	50306789.14856566
1.0463634729385376	51343328.38946242
1.0503677129745483	52149423.8770759
1.0543830394744873	55631896.55372971
1.058409333229065	60112916.63452264
1.0624464750289917	62655796.329754256
1.0664942264556885	63430814.63856066
1.0705522298812866	63504482.669734426
1.0746204853057861	64054196.222385235
1.0786986351013184	64242616.45296646
1.0827864408493042	64297833.73134653
1.086883783340454	59365388.60451649
1.0909905433654785	45530478.801822186
1.0951062440872192	33286370.649697986
1.0992310047149658	23727786.5206201
1.10336434841156	12311433.84817916
1.1075061559677124	6675922.3177335495
1.1116561889648438	5684313.989729508
1.115814208984375	3977812.537350639
1.1199802160263062	3378755.1899433015
1.124153733253479	3662028.624439312
1.1283347606658936	3004328.509901449
1.1325229406356812	2374456.498467678
1.1367181539535522	4435092.638376015
1.1409201622009277	8443050.396032376
1.145128846168518	10441348.658278707
1.1493438482284546	8539541.509884184
1.1535650491714478	5255341.668801478
1.1577922105789185	3784671.830896417
1.1620250940322876	4227245.1291322205
1.1662636995315552	6557566.943032109
1.170507550239563	9620376.949235313
1.174756646156311	13440277.986880627
1.1790107488632202	19065159.77679673
1.1832695007324219	21342762.679741185
1.1875330209732056	19132038.17821671
1.191800832748413	23715149.431177482
1.1960728168487549	35143877.74168625
1.2003488540649414	41949405.49882742
1.2046287059783936	44186547.74768736
1.2089121341705322	45183657.44139133
1.2131990194320679	48001187.39681715
1.2174891233444214	54881393.36837185
1.2217823266983032	60422583.81184412
1.2260783910751343	63826204.42846716
1.230377197265625	68545442.83958764
1.2346785068511963	71994820.46476942
1.238982081413269	71690535.54959333
1.2432878017425537	71094635.68696184
1.2475954294204712	72087060.40939867
1.2519049644470215	72816439.24755338
1.256216049194336	80192886.0819987
1.2605286836624146	86116472.2940096
1.2648425102233887	81385502.11114521
1.2691574096679688	81129429.61682333
1.2734732627868652	87757307.07802135
1.2777899503707886	86238271.86760384
1.2821072340011597	76480622.72976735
1.2864248752593994	73150376.42051339
1.2907428741455078	74263986.58911675
1.2950609922409058	72119628.79892677
1.2993791103363037	59516366.0619678
1.303696870803833	46194212.05596097
1.3080145120620728	44050093.645631455
1.3123314380645752	46401135.76277466
1.3166478872299194	50043148.61132087
1.3209635019302368	44425191.753648795
1.3252781629562378	32013552.15975165
1.3295916318893433	21392758.691340856
1.3339040279388428	10051989.694027316
1.3382149934768677	2759227.5349292564
1.3425244092941284	1121565.1077189075
1.3468321561813354	816345.3361583924
1.3511382341384888	667366.1283646461
1.3554422855377197	471301.2167448148
1.3597444295883179	500921.30345520395
1.3640443086624146	722160.0891650773
1.3683418035507202	649026.9972628818
1.3726370334625244	466690.59828389727
1.3769296407699585	605658.0456597251
1.381219506263733	617613.9157138906
1.3855066299438477	346571.49268210464
1.3897908926010132	420058.67007377814
1.3940720558166504	808833.4893918098
1.3983501195907593	746368.8835224361
1.4026249647140503	564644.2657966206
1.4068963527679443	665637.6792932057
1.4111642837524414	647773.952211807
1.4154287576675415	580112.0433150019
1.419689416885376	570905.3748051688
1.4239463806152344	612315.9934331393
1.4281994104385376	470244.2425207363
1.4324485063552856	285397.49085521157
1.436693549156189	505620.8280098044
1.440934419631958	1164964.0216689473
1.4451709985733032	2335864.8415594203
1.449403166770935	3593711.215369754
1.453631043434143	3595872.070222349
1.4578542709350586	3154041.5110998815
1.4620729684829712	4315412.977070767
1.4662868976593018	5652709.239527408
1.4704961776733398	4005002.4943655026
1.4747005701065063	1616434.4590280617
1.4788999557495117	2241903.238914474
1.4830944538116455	4540697.946580301
1.4872838258743286	5132174.689714261
1.491468071937561	3844298.4985932633
1.4956470727920532	3976670.863675185
1.4998208284378052	6345440.571641947
1.5039892196655273	7326149.929385274
1.5081522464752197	5804252.466399486
1.5123097896575928	6059941.49108081
1.5164618492126465	10263383.213551106
1.5206083059310913	14989212.779321143
1.5247491598129272	16320836.916196113
1.5288842916488647	16200582.244540608
1.5330137014389038	18018408.609200988
1.5371372699737549	19760813.069657337
1.541254997253418	19829100.281806186
1.545366883277893	21454674.790573988
1.5494728088378906	23673910.77291464
1.5535727739334106	24462354.290155046
1.5576666593551636	25945313.109302282
1.561754584312439	29114651.97912281
1.5658363103866577	32948331.456416517
1.5699119567871094	34814720.84880259
1.5739814043045044	34240734.399806246
1.5780447721481323	35078954.714659005
1.582101821899414	38612101.42264354
1.5861525535583496	41685314.766897686
1.5901970863342285	40716724.78669649
1.5942351818084717	36510143.07333411
1.5982669591903687	34609681.274853684
1.6022924184799194	34184030.389751285
1.606311559677124	31749689.238007493
1.6103241443634033	30745202.568588097
1.6143304109573364	29205082.7517359
1.6183301210403442	24558594.026047498
1.6223233938217163	21236327.378337465
1.6263102293014526	19980294.000324
1.6302905082702637	21089292.72705818
1.634264349937439	25370949.060139176
1.638231635093689	30172644.00860527
1.6421923637390137	31145811.41402754
1.646146535873413	25073279.835733518
1.6500942707061768	19300516.083610695
1.6540353298187256	20399660.638314318
1.6579699516296387	22286649.63919175
1.661897897720337	20995888.655027743
1.6658192873001099	14985429.03610389
1.6697341203689575	9292382.010595974
1.6736423969268799	10375820.818897434
1.677544116973877	12325079.124508502
1.6814392805099487	12054580.542981569
1.6853278875350952	10780355.202514382
1.6892099380493164	8709119.577868389
1.6930854320526123	7155843.285832162
1.696954369544983	6039731.985777122
1.7008168697357178	5428029.148223993
1.7046726942062378	5468218.692279083
1.708522081375122	6496224.289517408
1.712364912033081	7378143.175021498
1.7162011861801147	7695557.532920579
1.7200311422348022	8850754.65700852
1.723854422569275	9066116.079993155
1.7276713848114014	7569118.855293297
1.731481909751892	6445125.714372418
1.7352858781814575	6412402.771041452
1.7390835285186768	7078324.670451014
1.7428747415542603	7388626.881483043
1.7466596364974976	6059021.312944999
1.7504380941390991	4377658.102184447
1.7542102336883545	4785504.026443005
1.7579760551452637	6605059.001158904
1.7617355585098267	8024641.409074289
1.7654887437820435	7886719.616304129
1.7692357301712036	5857598.47981817
1.7729763984680176	3727260.4692923357
1.776710867881775	2311969.9273433974
1.7804391384124756	1638579.815151083
1.7841613292694092	1636810.27714451
1.7878772020339966	1789922.161934785
1.7915871143341064	2722225.8400877444
1.7952908277511597	3542402.6329010604
1.7989884614944458	3130418.655514308
1.8026801347732544	2336981.517889619
1.806365728378296	1873677.465991564
1.8100452423095703	1674387.2329617657
1.8137187957763672	1378045.733974432
1.817386507987976	993896.4312618877
1.8210482597351074	1950899.8127453858
1.8247040510177612	3670209.6716027986
1.828354001045227	3231236.384094599
1.8319982290267944	1514952.2189440045
1.8356364965438843	1428602.967121118
1.8392690420150757	2569395.0894961725
1.8428958654403687	3030210.90098778
1.8465168476104736	2505091.3864303017
1.8501322269439697	1785644.0584425882
1.8537418842315674	1472751.0904237572
1.8573459386825562	1674868.3010809955
1.860944390296936	1364049.357451062
1.864537239074707	541647.071324119
1.8681244850158691	219219.0330593051
1.871706247329712	469347.7339044872
1.8752825260162354	988964.1656101614
1.8788533210754395	1312003.3328985684
1.8824186325073242	1719536.6818064302
1.8859784603118896	3251668.213906941
1.8895330429077148	4620236.136849211
1.8930821418762207	3522635.9794942182
1.8966259956359863	2054995.9080061137
1.9001644849777222	1987635.147666747
1.9036977291107178	1737503.9906982905
1.9072256088256836	2085319.8731608107
1.9107483625411987	2752828.701408988
1.9142658710479736	1955653.556222244
1.9177782535552979	1401898.1558626024
1.9212853908538818	1338088.1174222855
1.9247875213623047	654960.4815327172
1.9282845258712769	337437.61321561673
1.9317764043807983	1164139.6418661454
1.9352631568908691	2728832.2517212443
1.9387450218200684	2930530.840321405
1.942221760749817	1542262.405117339
1.9456936120986938	648468.4664671271
1.9491604566574097	538437.6214595857
1.952622413635254	861782.4941158828
1.956079363822937	1996809.7716304949
1.959531545639038	3306346.3405208467
1.962978720664978	3017128.049425748
1.966421127319336	2070516.5999234025
1.9698586463928223	2358119.392109532
1.9732913970947266	2843182.285097178
1.9767193794250488	3094314.1006046333
1.9801424741744995	3502691.7330067065
1.9835609197616577	3666723.9872045578
1.9869745969772339	4420143.2686209865
1.990383505821228	5234711.558196263
1.9937876462936401	5094501.822018168
1.9971871376037598	4177878.0286883954
2.000581979751587	3154834.3190508466
2.003972291946411	3817715.5167520246
2.007357597351074	5255324.596702687
2.0107386112213135	5872638.510271339
2.0141148567199707	5540888.648514896
2.017486572265625	4604930.22372054
2.0208535194396973	4631603.221059188
2.0242159366607666	5415531.767122585
2.027573823928833	5642617.693798489
2.0309269428253174	5599189.869524507
2.034275770187378	6565740.96970497
2.0376198291778564	8952671.55869218
2.040959596633911	11094870.798638312
2.044294595718384	11738844.097174227
2.0476250648498535	11466773.600538658
2.0509510040283203	10356515.489045281
2.054272413253784	9207033.287336525
2.057589530944824	9759336.424434666
2.0609018802642822	11476087.833572362
2.0642096996307373	12745592.406419499
2.0675129890441895	13259183.73366185
2.0708119869232178	13239052.150529025
2.074106216430664	12873400.280274205
2.0773961544036865	12953637.230671875
2.080681324005127	13387510.47901409
2.0839622020721436	13313228.899855781
2.087238311767578	12820063.418846134
2.090510129928589	12504802.187802857
2.0937774181365967	12565390.129524698
2.0970399379730225	12446089.406977378
2.1002981662750244	11696572.74585454
2.1035518646240234	11136964.361778265
2.1068007946014404	11246843.493771432
2.1100454330444336	11343373.122349324
2.1132853031158447	10983607.12761602
2.116520881652832	10105502.370603578
2.1197516918182373	9205644.210481055
2.1229779720306396	8748719.06548437
2.12619948387146	8463957.047898967
2.1294167041778564	8402260.804446938
2.132629156112671	8606712.282097366
2.1358368396759033	8216769.247428648
2.139039993286133	7456732.1050649155
2.1422386169433594	6879144.684813203
2.145432472229004	6293195.603849821
2.1486217975616455	5836107.226271714
2.151806354522705	5312778.334997676
2.1549863815307617	5251714.476590563
2.1581614017486572	5818270.137647504
2.16133189201355	6112816.626245217
2.1644976139068604	5933993.371438077
2.167658567428589	5241427.88694455
2.1708147525787354	4651059.456647433
2.173966407775879	4911367.200885492
2.1771130561828613	5517404.002698028
2.1802549362182617	5533858.495520595
2.183391809463501	4880465.433750126
2.1865241527557373	4253997.939664972
2.1896514892578125	3859865.7261931044
2.1927738189697266	3233398.274406058
2.1958916187286377	2147911.591013641
2.1990041732788086	1097224.6270208943
2.2021119594573975	622077.3557533284
2.2052149772644043	653721.8190981406
2.208312749862671	896676.209289303
2.2114057540893555	1256371.2244455328
2.214493751525879	1510461.4453765657
2.217576742172241	1317664.3124130752
2.2206547260284424	940428.0341291117
2.2237277030944824	741133.1361183812
2.2267956733703613	605279.5872897597
2.2298583984375	488472.5095205203
2.2329163551330566	448120.7146889216
2.235969066619873	480228.1966174603
2.2390167713165283	486554.7495933591
2.2420592308044434	414641.5898622917
2.2450966835021973	344364.75110437244
2.248128890991211	326051.02430955996
2.2511560916900635	353076.4925676158
2.254178285598755	467882.3214772702
2.257194995880127	704125.9319979008
2.260206699371338	734137.6900816608
2.2632133960723877	425723.6309422192
2.266214609146118	278033.16961805784
2.2692108154296875	507058.5540150349
2.2722020149230957	747506.583808252
2.2751877307891846	697870.2059712317
2.278168201446533	537755.5647650852
2.2811436653137207	508582.4281487775
2.284113883972168	501462.0536432118
2.287078857421875	391513.6127705817
2.290038824081421	289676.74249638466
2.2929933071136475	281079.19499569683
2.295942783355713	295902.8650220638
2.298887014389038	318137.7629113087
2.301826238632202	400645.94054319256
2.304760217666626	582207.4450176113
2.3076889514923096	865911.7710551076
2.310612440109253	1217481.844153897
2.3135311603546143	1563037.6615917094
2.3164443969726562	1493421.0360208596
2.319352865219116	845370.9303256443
2.322256088256836	325801.1654428468
2.3251543045043945	226808.65518815248
2.328047275543213	215320.211176624
2.330935478210449	196975.74594016274
2.3338186740875244	172805.00342837189
2.3366971015930176	140493.20961075954
2.3395702838897705	117970.02201159316
2.3424389362335205	108204.54917758558
2.3453025817871094	100698.17195781476
2.348161458969116	98808.95443742105
2.351015567779541	159589.78654572795
2.353865146636963	350126.8182656954
2.3567099571228027	612804.5805523744
2.3595502376556396	808251.6469420589
2.3623859882354736	806034.4008529476
2.3652172088623047	557833.5084037681
2.368043899536133	258893.0659140084
2.370866537094116	113689.19622997259
2.3736846446990967	99237.67940051713
2.3764986991882324	114987.23237126667
2.3793084621429443	131356.367271933
2.3821144104003906	183361.41278624436
2.384916305541992	273545.72071542713
2.387714147567749	321607.8545375286
2.3905084133148193	282561.26686299534
2.393299102783203	231389.92604892232
2.3960859775543213	202855.0573709721
2.398869514465332	207859.13699100137
2.4016497135162354	302869.2064302769
2.4044265747070312	497994.7268684387
2.407200336456299	651233.7059707815
2.409970998764038	634091.6080769158
2.4127390384674072	551702.2948240069
2.415503978729248	550981.0345933978
2.418266534805298	637900.8534296212
2.4210267066955566	703318.5359227794
2.4237842559814453	660529.7571006047
2.426539897918701	639534.0275836557
2.429293394088745	804908.0903368811
2.4320452213287354	980637.2526159642
2.4347951412200928	944137.8633392964
2.4375438690185547	859694.5336400369
2.440291166305542	901606.8505899772
2.443037271499634	926367.5520600588
2.445782423019409	865535.6153373212
2.4485268592834473	862838.2306130178
2.451270818710327	979408.3911739396
2.454014539718628	1129615.5405456938
2.4567582607269287	1202223.697707544
2.4595019817352295	1239872.8766660255
2.4622461795806885	1431175.134072122
2.4649908542633057	1688611.2252228134
2.4677364826202393	1669622.906158463
2.4704833030700684	1306281.37250184
2.473231554031372	858039.3432304949
2.4759814739227295	557407.6151622972
2.4787333011627197	415078.60228251567
2.481487512588501	345644.4659937404
2.4842441082000732	311378.76303845685
