#wavelength	surface flux
0.6450077295303345	204.91563970374023
0.6472567915916443	310.59268406000575
0.6494921445846558	377.9811352631806
0.6517150402069092	400.2207714759521
0.6539263725280762	420.5757220320934
0.6561272740364075	441.61848036971156
0.6583186388015747	463.476192241897
0.6605015397071838	486.23802961806774
0.6626768708229065	509.8910193210684
0.6648455858230591	534.4084594818779
0.6670085787773132	559.7460176319794
0.6691668033599854	585.7960440738624
0.6713210344314575	612.9614666138217
0.6734722256660461	641.6110462265611
0.6756211519241333	671.3081759856265
0.6777685880661011	701.8862747959365
0.6799154281616211	733.5798710925454
0.6820623278617859	766.4727453535746
0.6842101216316223	800.6112715463236
0.6863595843315125	836.0335299283106
0.688511312007904	872.6797750278275
0.6906660795211792	910.2177814107466
0.6928245425224304	949.0755249654319
0.6949873566627502	990.468935206617
0.6971551775932312	1033.8749353121627
0.6993286609649658	1078.2729189730228
0.7015084028244019	1124.0390427755153
0.7036949396133423	1171.974388131156
0.7058889269828796	1222.1314402344722
0.7080909013748169	1273.9329727557788
0.710301399230957	1327.6458276149353
0.712520956993103	1383.4679338433218
0.7147500514984131	1440.4474465800254
0.7169892191886902	1498.8030564058292
0.7192389369010925	1560.7393142985816
0.7214996814727783	1625.6180878991538
0.723771870136261	1691.7295551655166
0.7260559797286987	1760.2266373297132
0.7283523678779602	1831.9815464937064
0.7306615710258484	1908.0162181769579
0.7329838871955872	1988.866106321556
0.7353196740150452	2072.5060730872524
0.7376693487167358	2158.8327396019868
0.7400332689285278	2248.567646615655
0.7424117922782898	2340.983036665204
0.7448052167892456	2436.8942603965043
0.7472138404846191	2536.37534041147
0.7496379613876343	2638.3920217365
0.7520779371261597	2741.9634667132523
0.7545340061187744	2844.8857929990927
0.7570064663887024	2941.1740642938507
0.7594954967498779	3004.9496834951615
0.7620013952255249	2881.5182646647513
0.7645244002342224	2286.6485589366166
0.7670646905899048	1512.8678371038002
0.7696225643157959	1460.4381732714032
0.7721980810165405	2431.406033420865
0.7747915983200073	3505.505745199041
0.7774031162261963	4001.5067479913905
0.7800329327583313	4226.455717360615
0.7826811671257019	4428.046230784099
0.7853479981422424	4629.093669102511
0.7880334854125977	4828.321795312875
0.7907378077507019	5004.597270015046
0.7934610247612	5126.058336600915
0.7962033748626709	5313.565330457849
0.7989648580551147	5624.314263458066
0.801745593547821	5914.021071291823
0.8045456409454346	6158.697333782954
0.8073651194572449	6406.0851193072085
0.8102040886878967	6655.691291822708
0.8130625486373901	6917.991585742201
0.8159406185150146	7206.280030728144
0.8188382983207703	7508.533969740077
0.8217556476593018	7812.132060661323
0.8246926665306091	8126.83297466285
0.8276493549346924	8454.958496277435
0.8306257724761963	8791.680143903579
0.8336219191551208	9142.667851723229
0.8366377949714661	9507.416449937722
0.8396733403205872	9893.052469245227
0.8427285552024841	10306.182749194197
0.8458034992218018	10732.746696329725
0.8488980531692505	11168.014095712784
0.8520121574401855	11617.512022389794
0.8551458716392517	12083.036738767565
0.8582990765571594	12564.003731484649
0.8614717125892639	13060.265918538727
0.8646637797355652	13575.274545347798
0.8678751587867737	14112.40268678885
0.8711057901382446	14670.924025593766
0.8743556141853333	15243.897823702604
0.87762451171875	15826.065186837932
0.8809124231338501	16421.60015593822
0.8842192888259888	17037.36785766143
0.8875449895858765	17674.135126080415
0.8908893465995789	18315.488397727597
0.894252359867096	18975.30538599676
0.8976338505744934	19725.505496593443
0.9010337591171265	20556.84669581361
0.9044519662857056	21390.74249506181
0.9078882932662964	22219.75238508459
0.9113426208496094	23064.911406011317
0.914814829826355	23906.12732573716
0.9183048605918884	24779.910427605864
0.9218124747276306	25684.02463545077
0.925337553024292	26331.42948663738
0.9288799166679382	26654.650927507482
0.9324395060539246	27264.145869615943
0.9360161423683167	28471.815136363726
0.9396095871925354	29846.106256534295
0.943219780921936	30835.44151780901
0.9468464851379395	31689.154539859617
0.9504896402359009	32927.18252458371
0.9541489481925964	34368.71966168304
0.9578243494033813	35629.78088982114
0.9615156054496765	36642.34646977477
0.9652225375175476	37861.62730720266
0.9689450263977051	39579.40752819172
0.9726828336715698	41557.645034185894
0.9764357805252075	43359.026459559056
0.9802037477493286	45001.98609561461
0.983986496925354	46713.13096651448
0.9877838492393494	48489.97158991613
0.9915955662727356	50329.26901115894
0.9954215884208679	52185.42848811172
0.9992615580558777	54044.6741958342
1.0031154155731201	55923.17544924865
1.0069829225540161	57851.021160081706
1.0108637809753418	59842.215780056795
1.0147579908370972	61888.90377340507
1.018665075302124	63965.873700415716
1.022585153579712	66032.92175592312
1.0265177488327026	68103.90134575279
1.0304628610610962	70289.36579324474
1.0344202518463135	72676.74670305233
1.0383895635604858	75137.12206017705
1.0423706769943237	77575.73068599094
1.0463634729385376	80037.60047958362
1.0503677129745483	82543.6025728783
1.0543830394744873	85138.72153999841
1.058409333229065	87824.14292161698
1.0624464750289917	90561.44632966889
1.0664942264556885	93339.26573436135
1.0705522298812866	96170.61977645311
1.0746204853057861	99084.29991491055
1.0786986351013184	102078.7607709015
1.0827864408493042	105130.25094623773
1.086883783340454	108189.99308639714
1.0909905433654785	111222.9260709702
1.0951062440872192	114044.36174211463
1.0992310047149658	115752.96057741962
1.10336434841156	116465.06040480967
1.1075061559677124	118400.79401130027
1.1116561889648438	120448.05082687162
1.115814208984375	120812.7783775128
1.1199802160263062	121755.31596152412
1.124153733253479	125443.87090679462
1.1283347606658936	129879.41274659112
1.1325229406356812	131483.63471494988
1.1367181539535522	135652.94825762245
1.1409201622009277	144392.95548051476
1.145128846168518	150640.60648505468
1.1493438482284546	149474.21912087733
1.1535650491714478	144606.89253804533
1.1577922105789185	146510.2622644903
1.1620250940322876	155804.30369774398
1.1662636995315552	166633.50207239226
1.170507550239563	175349.6522138355
1.174756646156311	183071.4373925971
1.1790107488632202	191200.43829808288
1.1832695007324219	198067.70730645853
1.1875330209732056	203925.7047382714
1.191800832748413	209722.32187980326
1.1960728168487549	215673.58949188882
1.2003488540649414	221372.0033484516
1.2046287059783936	226852.84253024712
1.2089121341705322	232425.43690449774
1.2131990194320679	238103.18857257513
1.2174891233444214	243889.05364706623
1.2217823266983032	249802.411947427
1.2260783910751343	255778.92888386207
1.230377197265625	261737.58391154587
1.2346785068511963	267725.192011064
1.238982081413269	273873.5888390986
1.2432878017425537	280100.10255069885
1.2475954294204712	286343.359370875
1.2519049644470215	292682.7045785621
1.256216049194336	299111.2301246245
1.2605286836624146	305539.25102104223
1.2648425102233887	312002.5994969891
1.2691574096679688	318544.66986139904
1.2734732627868652	325205.61458409845
1.2777899503707886	331940.01840451267
1.2821072340011597	338614.6220694834
1.2864248752593994	345070.3071693576
1.2907428741455078	351330.28739284165
1.2950609922409058	357964.1584435737
1.2993791103363037	364702.3620297772
1.303696870803833	371046.70459984924
1.3080145120620728	377444.6892516112
1.3123314380645752	384456.074975176
1.3166478872299194	392479.94774761825
1.3209635019302368	399028.0774237111
1.3252781629562378	401503.50883380644
1.3295916318893433	396472.38863485504
1.3339040279388428	373213.6833019105
1.3382149934768677	323457.43411570636
1.3425244092941284	288791.73176929756
1.3468321561813354	288239.7420958295
1.3511382341384888	256953.10010641516
1.3554422855377197	210811.3317851962
1.3597444295883179	198345.8678578087
1.3640443086624146	209853.79910722363
1.3683418035507202	244237.1695399212
1.3726370334625244	307074.94395624247
1.3769296407699585	351533.4365958107
1.381219506263733	298462.6877790612
1.3855066299438477	219254.2728285855
1.3897908926010132	203532.02238976574
1.3940720558166504	211017.10809099503
1.3983501195907593	231868.24017205765
1.4026249647140503	296479.7339179251
1.4068963527679443	346605.84328886226
1.4111642837524414	313247.44468088145
1.4154287576675415	292408.69529898406
1.419689416885376	313294.6314588942
1.4239463806152344	314700.6246652457
1.4281994104385376	335468.5886845825
1.4324485063552856	353971.407075807
1.436693549156189	359820.19960081525
1.440934419631958	401378.47560138325
1.4451709985733032	474170.55484007666
1.449403166770935	546170.5104477266
1.453631043434143	586581.2236562336
1.4578542709350586	604470.2959338003
1.4620729684829712	620430.0211877093
1.4662868976593018	626372.5162744086
1.4704961776733398	621272.2323049656
1.4747005701065063	621273.7924553001
1.4788999557495117	634144.5850485895
1.4830944538116455	664886.003574776
1.4872838258743286	700029.2481723957
1.491468071937561	717818.4486180876
1.4956470727920532	722514.5831089003
1.4998208284378052	734078.3447356911
1.5039892196655273	752472.301544224
1.5081522464752197	765738.535396454
1.5123097896575928	780173.2222280413
1.5164618492126465	798944.9967800033
1.5206083059310913	818061.1380713489
1.5247491598129272	834308.3877375588
1.5288842916488647	846315.3099898045
1.5330137014389038	858495.4841810977
1.5371372699737549	871681.5731132405
1.541254997253418	882921.9706663183
1.545366883277893	894018.6642862242
1.5494728088378906	906270.130735378
1.5535727739334106	917100.6687465446
1.5576666593551636	925840.3899420265
1.561754584312439	936466.7847091277
1.5658363103866577	950347.8303232465
1.5699119567871094	962766.0326035826
1.5739814043045044	968279.030695233
1.5780447721481323	968014.9503735786
1.582101821899414	978512.2294211359
1.5861525535583496	1001496.4775564014
1.5901970863342285	1018206.5191058025
1.5942351818084717	1026690.1581910484
1.5982669591903687	1032765.1896911934
1.6022924184799194	1040168.3259063093
1.606311559677124	1051210.8808361518
1.6103241443634033	1060456.2951386096
1.6143304109573364	1065853.917058005
1.6183301210403442	1068997.116773165
1.6223233938217163	1068902.6373529187
1.6263102293014526	1065489.1595180891
1.6302905082702637	1062022.426759953
1.634264349937439	1077940.4180650217
1.638231635093689	1115448.2176443667
1.6421923637390137	1139600.1017643602
1.646146535873413	1133933.427628313
1.6500942707061768	1127276.2664459574
1.6540353298187256	1147218.5184297794
1.6579699516296387	1171895.6886465275
1.661897897720337	1162730.9277722589
1.6658192873001099	1115709.6036090238
1.6697341203689575	1108792.867758508
1.6736423969268799	1165143.3297850254
1.677544116973877	1199037.0714070455
1.6814392805099487	1202176.6892985038
1.6853278875350952	1206902.5615229015
1.6892099380493164	1208220.6109336296
1.6930854320526123	1194211.2617257223
1.696954369544983	1171434.1201173456
1.7008168697357178	1169618.0651145533
1.7046726942062378	1190473.8319958237
1.708522081375122	1222714.7528099339
1.712364912033081	1257385.9810631403
1.7162011861801147	1288466.2425411711
1.7200311422348022	1315448.210063604
1.723854422569275	1329348.8029854868
1.7276713848114014	1333994.5693319337
1.731481909751892	1336540.5796831937
1.7352858781814575	1340375.6144608099
1.7390835285186768	1350289.1165576933
1.7428747415542603	1360173.943304613
1.7466596364974976	1361373.1611041299
1.7504380941390991	1352680.2704761948
1.7542102336883545	1347247.3481943116
1.7579760551452637	1373052.8504609624
1.7617355585098267	1401583.9761169024
1.7654887437820435	1393188.2032714568
1.7692357301712036	1353004.3467955538
1.7729763984680176	1263423.165402872
1.776710867881775	1140137.5762940478
1.7804391384124756	1087751.493351211
1.7841613292694092	1083478.5808418945
1.7878772020339966	1045931.5874494235
1.7915871143341064	1062573.9820241844
1.7952908277511597	1099113.5512524222
1.7989884614944458	1009829.6786674669
1.8026801347732544	806217.6222046888
1.806365728378296	608533.2787118964
1.8100452423095703	599495.6555418636
1.8137187957763672	683912.5287971218
1.817386507987976	651099.8972734555
1.8210482597351074	728259.0558835617
1.8247040510177612	783305.2005698676
1.828354001045227	599080.4889312303
1.8319982290267944	578639.365807211
1.8356364965438843	763605.1757877702
1.8392690420150757	919286.8233980702
1.8428958654403687	1004381.4133994662
1.8465168476104736	1029260.4645647301
1.8501322269439697	970563.0179069119
1.8537418842315674	788926.5376868615
1.8573459386825562	727750.1382807571
1.860944390296936	751353.7254896801
1.864537239074707	645077.1369193397
1.8681244850158691	661797.475339516
1.871706247329712	883539.0600139566
1.8752825260162354	1103577.0200921088
1.8788533210754395	1286165.6451119222
1.8824186325073242	1426104.6394118764
1.8859784603118896	1398455.742216447
1.8895330429077148	1290540.5977124672
1.8930821418762207	1323102.1473808608
1.8966259956359863	1268743.629120762
1.9001644849777222	911617.0964618657
1.9036977291107178	621046.6651309715
1.9072256088256836	656192.7411303865
1.9107483625411987	670798.0284729546
1.9142658710479736	513466.8436494646
1.9177782535552979	534073.1978258878
1.9212853908538818	706225.7295306686
1.9247875213623047	738529.7689762906
1.9282845258712769	771785.809559809
1.9317764043807983	936744.4846840977
1.9352631568908691	1024151.2990359962
1.9387450218200684	1013182.3245113594
1.942221760749817	1080399.6428568745
1.9456936120986938	1146116.3407238212
1.9491604566574097	1139077.1629162224
1.952622413635254	1083141.2372952856
1.956079363822937	1040101.8758917827
1.959531545639038	1118970.834077639
1.962978720664978	1215927.9479865127
1.966421127319336	1348180.1185667403
1.9698586463928223	1549921.526561156
1.9732913970947266	1662295.2125545258
1.9767193794250488	1707307.2414312835
1.9801424741744995	1792644.9445137277
1.9835609197616577	1867598.5539997595
1.9869745969772339	1864765.3983058245
1.990383505821228	1809431.1205642421
1.9937876462936401	1813728.3616122361
1.9971871376037598	1843960.469633972
2.000581979751587	1870682.8006393781
2.003972291946411	1962683.752799423
2.007357597351074	2049290.610451157
2.0107386112213135	2098549.1807091916
2.0141148567199707	2111336.058182365
2.017486572265625	2090645.01203904
2.0208535194396973	2116427.9420211134
2.0242159366607666	2174014.0274423715
2.027573823928833	2201904.666302624
2.0309269428253174	2219125.94906236
2.034275770187378	2244535.5872447686
2.0376198291778564	2267061.643759265
2.040959596633911	2284754.8730403124
2.044294595718384	2304581.409826898
2.0476250648498535	2323250.5584069747
2.0509510040283203	2330704.4094545543
2.054272413253784	2334273.7149127536
2.057589530944824	2347140.053239984
2.0609018802642822	2363441.9937756476
2.0642096996307373	2376452.3926490103
2.0675129890441895	2387822.472823184
2.0708119869232178	2398959.2767435405
2.074106216430664	2408449.019958723
2.0773961544036865	2416515.2256824533
2.080681324005127	2425878.86189601
2.0839622020721436	2434545.110974975
2.087238311767578	2442541.591208069
2.090510129928589	2450900.945261119
2.0937774181365967	2457949.442833834
2.0970399379730225	2465158.1041475656
2.1002981662750244	2472354.9999886234
2.1035518646240234	2478038.780973777
2.1068007946014404	2483241.2584212427
2.1100454330444336	2489772.8213409483
2.1132853031158447	2494850.4240242983
2.116520881652832	2495186.5976661625
2.1197516918182373	2495877.2593639777
2.1229779720306396	2501242.165191985
2.12619948387146	2509662.227945627
2.1294167041778564	2517796.7875230103
2.132629156112671	2525069.297896868
2.1358368396759033	2526490.606820611
2.139039993286133	2521959.5242856517
2.1422386169433594	2515047.429098047
2.145432472229004	2507872.473968034
2.1486217975616455	2503121.9552623304
2.151806354522705	2495431.548206572
2.1549863815307617	2500863.8464358523
2.1581614017486572	2511262.249384829
2.16133189201355	2502901.530444359
2.1644976139068604	2498135.5857739695
2.167658567428589	2508822.476667394
2.1708147525787354	2529791.1874668375
2.173966407775879	2551368.850420993
2.1771130561828613	2561796.7926605577
2.1802549362182617	2559631.757831582
2.183391809463501	2547534.238606592
2.1865241527557373	2530145.5908116763
2.1896514892578125	2499163.0876144622
2.1927738189697266	2416009.2602025536
2.1958916187286377	2259743.7880745754
2.1990041732788086	2090340.209036506
2.2021119594573975	2001946.964939575
2.2052149772644043	2012268.065164229
2.208312749862671	2079711.9062870615
2.2114057540893555	2160370.510269747
2.214493751525879	2202363.9886704353
2.217576742172241	2183519.8522083336
2.2206547260284424	2151730.236335287
2.2237277030944824	2129509.3413270097
2.2267956733703613	2059579.9533659618
2.2298583984375	1945357.6637182992
2.2329163551330566	1861655.9086097437
2.235969066619873	1831301.6458512996
2.2390167713165283	1799027.5286774684
2.2420592308044434	1706827.560822747
2.2450966835021973	1608002.7045209445
2.248128890991211	1634748.258636077
2.2511560916900635	1749193.1920079687
2.254178285598755	1812739.6710233593
2.257194995880127	1846625.2683033955
2.260206699371338	1844829.3192424432
2.2632133960723877	1754247.9440917096
2.266214609146118	1648287.544816709
2.2692108154296875	1622555.7050588555
2.2722020149230957	1702431.1431081085
2.2751877307891846	1796142.240053232
2.278168201446533	1799878.3071229467
2.2811436653137207	1746863.3469155768
2.284113883972168	1706985.6374101315
2.287078857421875	1663067.8029167154
2.290038824081421	1612180.3335846018
2.2929933071136475	1608689.5745445902
2.295942783355713	1647148.0250892355
2.298887014389038	1685184.1765718095
2.301826238632202	1734719.0394921885
2.304760217666626	1846452.8200187974
2.3076889514923096	2015741.1809871017
2.310612440109253	2138254.04195832
2.3135311603546143	2048665.6003391638
2.3164443969726562	1714541.7119816788
2.319352865219116	1423868.8521143328
2.322256088256836	1384326.356020979
2.3251543045043945	1424778.7757851419
2.328047275543213	1419295.362668385
2.330935478210449	1421599.688921886
2.3338186740875244	1427550.840320713
2.3366971015930176	1414516.8133056182
2.3395702838897705	1398025.2317604248
2.3424389362335205	1359199.7622347719
2.3453025817871094	1292852.5695442532
2.348161458969116	1264153.5706701113
2.351015567779541	1351612.877840389
2.353865146636963	1529919.3461628817
2.3567099571228027	1674896.2630104348
2.3595502376556396	1762070.1467734363
2.3623859882354736	1831271.841056219
2.3652172088623047	1776930.0662768362
2.368043899536133	1490135.0775901787
2.370866537094116	1164811.0574883483
2.3736846446990967	1113425.9081467506
2.3764986991882324	1247415.5039828129
2.3793084621429443	1345844.2218404296
2.3821144104003906	1439490.806193139
2.384916305541992	1583990.0864721995
2.387714147567749	1697651.5565824537
2.3905084133148193	1695121.2487335084
2.393299102783203	1664192.4190051502
2.3960859775543213	1680958.6555295798
2.398869514465332	1722485.6976139129
2.4016497135162354	1725223.6975606163
2.4044265747070312	1702632.7746302984
2.407200336456299	1782481.7461303798
2.409970998764038	1951971.5495962356
2.4127390384674072	2059997.241609966
2.415503978729248	2095113.229333869
2.418266534805298	2168597.540292728
2.4210267066955566	2238141.2575832373
2.4237842559814453	2175990.479056457
2.426539897918701	2085268.9346539893
2.429293394088745	2155805.9927762463
2.4320452213287354	2311702.081793579
2.4347951412200928	2368426.2055273857
2.4375438690185547	2347947.2689653295
2.440291166305542	2356098.0249202624
2.443037271499634	2347702.313290152
2.445782423019409	2236636.232873026
2.4485268592834473	2074808.340766903
2.451270818710327	2030530.0000116853
2.454014539718628	2169098.1579021313
2.4567582607269287	2288005.0092430008
2.4595019817352295	2271790.008587345
2.4622461795806885	2317473.3032219857
2.4649908542633057	2356910.6275511817
2.4677364826202393	2165125.507484765
2.4704833030700684	1861238.8498326603
2.473231554031372	1590827.2337657243
2.4759814739227295	1373575.2971425147
