#wavelength	surface flux
0.6450077295303345	1653.6324942380727
0.6472567915916443	2569.603958834877
0.6494921445846558	3291.864369504412
0.6517150402069092	3714.9631726681046
0.6539263725280762	4135.521132091554
0.6561272740364075	4570.93069334442
0.6583186388015747	5031.16697089559
0.6605015397071838	5525.385388689355
0.6626768708229065	6058.101103071957
0.6648455858230591	6629.40146072164
0.6670085787773132	7156.852708197937
0.6691668033599854	7452.094327512851
0.6713210344314575	7882.530832588475
0.6734722256660461	8878.416501193095
0.6756211519241333	9947.584063441376
0.6777685880661011	10785.22988572497
0.6799154281616211	11586.27893166123
0.6820623278617859	12400.880204643094
0.6842101216316223	13230.414823893829
0.6863595843315125	14069.21432153721
0.688511312007904	14881.374769128035
0.6906660795211792	15549.357121687137
0.6928245425224304	16092.35772555903
0.6949873566627502	16870.271101049486
0.6971551775932312	17845.41681988745
0.6993286609649658	18664.04429438764
0.7015084028244019	19392.588497116303
0.7036949396133423	20068.195704111033
0.7058889269828796	20594.236819705427
0.7080909013748169	20995.94647110355
0.710301399230957	21344.96913568428
0.712520956993103	21582.635365323804
0.7147500514984131	21517.604072286933
0.7169892191886902	21134.245753069765
0.7192389369010925	20615.3428301457
0.7214996814727783	19934.257843317166
0.723771870136261	18921.122806196177
0.7260559797286987	17753.94563741317
0.7283523678779602	16610.90432137863
0.7306615710258484	15955.352103349254
0.7329838871955872	15926.624236528683
0.7353196740150452	15431.685614340022
0.7376693487167358	14232.820553007767
0.7400332689285278	12910.076834248408
0.7424117922782898	11595.313437180224
0.7448052167892456	10368.345469837584
0.7472138404846191	9153.711095713374
0.7496379613876343	7879.133723459996
0.7520779371261597	6605.940006923517
0.7545340061187744	5365.412600315246
0.7570064663887024	4181.073337322391
0.7594954967498779	3062.276835659954
0.7620013952255249	1995.082020420761
0.7645244002342224	1048.0202666782582
0.7670646905899048	473.7133948775589
0.7696225643157959	501.994938594716
0.7721980810165405	1272.2456449430763
0.7747915983200073	2686.814926862722
0.7774031162261963	4325.38600072183
0.7800329327583313	6182.315399705539
0.7826811671257019	8810.550147674403
0.7853479981422424	12166.874910496424
0.7880334854125977	15793.903992363084
0.7907378077507019	18401.91086623985
0.7934610247612	19073.079942015327
0.7962033748626709	23521.836529090404
0.7989648580551147	33766.369644465565
0.801745593547821	43565.297140245406
0.8045456409454346	51862.855747933056
0.8073651194572449	60041.38681104537
0.8102040886878967	67620.56485180378
0.8130625486373901	76822.5955679097
0.8159406185150146	89996.01455015065
0.8188382983207703	106282.98370560551
0.8217556476593018	124441.39782052068
0.8246926665306091	142725.67295890147
0.8276493549346924	159955.4659153607
0.8306257724761963	179861.5132393203
0.8336219191551208	205716.83910671782
0.8366377949714661	232716.80700890283
0.8396733403205872	259961.84983018177
0.8427285552024841	292535.65751878446
0.8458034992218018	328353.6033710109
0.8488980531692505	348122.3396115558
0.8520121574401855	361771.1711850574
0.8551458716392517	424942.43352387677
0.8582990765571594	517406.91219254636
0.8614717125892639	588903.3330810643
0.8646637797355652	654447.4098877579
0.8678751587867737	730972.8673727798
0.8711057901382446	816927.3964635216
0.8743556141853333	904341.0720900482
0.87762451171875	984048.444934279
0.8809124231338501	1042948.939261879
0.8842192888259888	1086183.838853236
0.8875449895858765	1121197.9711785428
0.8908893465995789	1082148.6987493304
0.894252359867096	1001880.8041020214
0.8976338505744934	1163253.8466624315
0.9010337591171265	1585914.7754202639
0.9044519662857056	1976188.8544100886
0.9078882932662964	2220117.647449107
0.9113426208496094	2342380.512405162
0.914814829826355	2372365.9087416395
0.9183048605918884	2441152.2651303597
0.9218124747276306	2430793.342764961
0.925337553024292	1885151.8341303892
0.9288799166679382	1178755.6863565708
0.9324395060539246	977019.9748114144
0.9360161423683167	1117649.283672074
0.9396095871925354	1261767.438197483
0.943219780921936	1204102.1216118413
0.9468464851379395	944856.8666220232
0.9504896402359009	1066901.7640650505
0.9541489481925964	1719268.803967117
0.9578243494033813	1931058.9227173796
0.9615156054496765	1433884.3626650136
0.9652225375175476	1103606.2110643648
0.9689450263977051	1714175.1784428295
0.9726828336715698	2890124.1261532065
0.9764357805252075	3513242.655313441
0.9802037477493286	3862004.739616587
0.983986496925354	4701120.153576461
0.9877838492393494	5621715.082791765
0.9915955662727356	6344181.899370732
0.9954215884208679	6973757.710116296
0.9992615580558777	7293908.073050434
1.0031154155731201	7489000.051195421
1.0069829225540161	8195711.633724934
1.0108637809753418	9390542.58113773
1.0147579908370972	10596893.787081826
1.018665075302124	11445520.357902335
1.022585153579712	11834907.626032809
1.0265177488327026	12196810.360249357
1.0304628610610962	12904034.3376908
1.0344202518463135	13747055.018141642
1.0383895635604858	14429532.244641878
1.0423706769943237	14896551.784699064
1.0463634729385376	15087248.6323982
1.0503677129745483	15252079.42671064
1.0543830394744873	15810231.589290788
1.058409333229065	16484785.587637912
1.0624464750289917	16861441.884407703
1.0664942264556885	16757659.551802536
1.0705522298812866	16381770.172420058
1.0746204853057861	16236685.905486083
1.0786986351013184	16134112.604982708
1.0827864408493042	16004024.798071153
1.086883783340454	15036379.132731643
1.0909905433654785	12273685.4705093
1.0951062440872192	9174019.953878215
1.0992310047149658	6110177.798824103
1.10336434841156	2959071.489316469
1.1075061559677124	1457924.3177635518
1.1116561889648438	1105333.449527217
1.115814208984375	694778.3190246399
1.1199802160263062	555332.9692381284
1.124153733253479	593891.8262742806
1.1283347606658936	511579.95911656285
1.1325229406356812	440802.0119616884
1.1367181539535522	848594.56640181
1.1409201622009277	1575152.7079564445
1.145128846168518	1853847.3911983361
1.1493438482284546	1426634.55892914
1.1535650491714478	735563.086135639
1.1577922105789185	425190.26794447313
1.1620250940322876	556231.9031605631
1.1662636995315552	1011826.2029022167
1.170507550239563	1766756.8000549327
1.174756646156311	2983876.2780212937
1.1790107488632202	4674823.585471929
1.1832695007324219	5731603.878038283
1.1875330209732056	5911539.973384059
1.191800832748413	7772642.643099235
1.1960728168487549	11281886.724178579
1.2003488540649414	13655600.325162897
1.2046287059783936	14946207.497240903
1.2089121341705322	15708241.561788565
1.2131990194320679	16513762.546360971
1.2174891233444214	18288753.491585687
1.2217823266983032	20135168.196857743
1.2260783910751343	21606970.743051786
1.230377197265625	23094133.689140525
1.2346785068511963	24314542.419269968
1.238982081413269	25250701.37913052
1.2432878017425537	26296319.09811237
1.2475954294204712	27305683.692295987
1.2519049644470215	28043670.109895114
1.256216049194336	29587055.254081976
1.2605286836624146	30663000.717786826
1.2648425102233887	30041618.934354465
1.2691574096679688	30193535.868708774
1.2734732627868652	31557259.882291555
1.2777899503707886	30992161.805860814
1.2821072340011597	28293748.02171778
1.2864248752593994	26790576.958075237
1.2907428741455078	26092516.92709741
1.2950609922409058	24674453.394379195
1.2993791103363037	20664990.369193878
1.303696870803833	16866050.964949585
1.3080145120620728	15968613.279957242
1.3123314380645752	16188319.435420288
1.3166478872299194	17638782.43687045
1.3209635019302368	15986240.532855459
1.3252781629562378	11125829.629563399
1.3295916318893433	6675246.955095846
1.3339040279388428	2741395.191031967
1.3382149934768677	604848.1473599407
1.3425244092941284	163743.89370464883
1.3468321561813354	84988.24379577435
1.3511382341384888	53396.4767432545
1.3554422855377197	31728.451382744024
1.3597444295883179	32563.14331454083
1.3640443086624146	46939.788178016126
1.3683418035507202	45434.34817433488
1.3726370334625244	35009.69991757672
1.3769296407699585	43133.35031455618
1.381219506263733	43050.39821655921
1.3855066299438477	24927.75830998864
1.3897908926010132	30995.4625182038
1.3940720558166504	57631.46833977569
1.3983501195907593	55126.119166526405
1.4026249647140503	50963.52184612003
1.4068963527679443	61154.263756178865
1.4111642837524414	45723.995871235435
1.4154287576675415	29032.85283242015
1.419689416885376	28273.551889076567
1.4239463806152344	29778.744014544303
1.4281994104385376	23194.716149609932
1.4324485063552856	20722.993175089756
1.436693549156189	58482.26035690549
1.440934419631958	175531.83090971937
1.4451709985733032	415215.0344517696
1.449403166770935	712893.6154362669
1.453631043434143	812929.3520578716
1.4578542709350586	852404.150035061
1.4620729684829712	1153410.3300861465
1.4662868976593018	1376429.740571766
1.4704961776733398	908098.8872269774
1.4747005701065063	310227.76164615
1.4788999557495117	432514.6293349283
1.4830944538116455	931605.3893149142
1.4872838258743286	1038082.176727263
1.491468071937561	755379.0687964224
1.4956470727920532	928707.394202558
1.4998208284378052	1807646.6924246475
1.5039892196655273	2222580.8237814843
1.5081522464752197	1744737.4268849993
1.5123097896575928	1687198.5906600244
1.5164618492126465	2741896.37898077
1.5206083059310913	4274570.658378099
1.5247491598129272	5312139.844526009
1.5288842916488647	5751080.045654738
1.5330137014389038	6274250.365106476
1.5371372699737549	6873747.993131638
1.541254997253418	7076362.746055368
1.545366883277893	7504642.580221574
1.5494728088378906	8384706.33975798
1.5535727739334106	9280284.90488773
1.5576666593551636	10275277.8137913
1.561754584312439	11578684.87509425
1.5658363103866577	12954174.079274654
1.5699119567871094	13566394.58224311
1.5739814043045044	13190220.082679067
1.5780447721481323	13013507.880485784
1.582101821899414	13675428.275435986
1.5861525535583496	14249936.687212532
1.5901970863342285	13791501.061219096
1.5942351818084717	12421833.010887055
1.5982669591903687	11293300.33922538
1.6022924184799194	10437411.277080782
1.606311559677124	9470530.255224908
1.6103241443634033	9043429.604319237
1.6143304109573364	8126134.3585184375
1.6183301210403442	6316613.878289753
1.6223233938217163	4956143.516976709
1.6263102293014526	4205825.3719072705
1.6302905082702637	4370172.777110641
1.634264349937439	5596528.917913836
1.638231635093689	6905045.699090748
1.6421923637390137	6965789.843963633
1.646146535873413	5053835.864251481
1.6500942707061768	3453684.8460543766
1.6540353298187256	3866526.7555258544
1.6579699516296387	4486452.964258047
1.661897897720337	4258187.20164137
1.6658192873001099	2930174.4072193303
1.6697341203689575	1641840.8596324758
1.6736423969268799	1661243.6136042147
1.677544116973877	1764351.8152121515
1.6814392805099487	1560494.426991932
1.6853278875350952	1368712.3648053624
1.6892099380493164	1131763.1895665294
1.6930854320526123	995497.5511417381
1.696954369544983	781418.675770829
1.7008168697357178	563917.0292803108
1.7046726942062378	530763.6365312306
1.708522081375122	752908.5763290093
1.712364912033081	1021814.569046192
1.7162011861801147	1204626.2144572244
1.7200311422348022	1486267.5588952794
1.723854422569275	1467154.885610812
1.7276713848114014	1098824.6026239723
1.731481909751892	962838.5014988417
1.7352858781814575	1074483.5739651269
1.7390835285186768	1243172.074377212
1.7428747415542603	1346143.333994679
1.7466596364974976	1134290.5610882952
1.7504380941390991	795382.5075335385
1.7542102336883545	831787.3311045825
1.7579760551452637	1108670.7153155098
1.7617355585098267	1153551.5867670323
1.7654887437820435	944051.8779035712
1.7692357301712036	670609.8314135148
1.7729763984680176	446492.80522703734
1.776710867881775	295583.6439326002
1.7804391384124756	241188.47523346834
1.7841613292694092	247711.4090207018
1.7878772020339966	257915.07720206867
1.7915871143341064	357540.3565441992
1.7952908277511597	421668.5752319497
1.7989884614944458	329632.94665687945
1.8026801347732544	218172.8439504155
1.806365728378296	194789.90443393352
1.8100452423095703	189139.24271426065
1.8137187957763672	133670.29932020183
1.817386507987976	77724.94030587935
1.8210482597351074	129210.4140125019
1.8247040510177612	247580.06522373398
1.828354001045227	240615.5592279693
1.8319982290267944	128921.72883877973
1.8356364965438843	108581.63682510743
1.8392690420150757	227053.01583963222
1.8428958654403687	356579.10557774885
1.8465168476104736	344924.4632251772
1.8501322269439697	218960.3816906245
1.8537418842315674	157325.596449034
1.8573459386825562	192937.26967660175
1.860944390296936	158691.18079164636
1.864537239074707	58888.694259543314
1.8681244850158691	16731.942974681016
1.871706247329712	31000.496356027168
1.8752825260162354	84802.30657587026
1.8788533210754395	161366.8367726076
1.8824186325073242	252220.031426976
1.8859784603118896	390227.05342887505
1.8895330429077148	480535.5201422337
1.8930821418762207	352162.35454172385
1.8966259956359863	178737.53322996874
1.9001644849777222	136157.7018558652
1.9036977291107178	123475.82935931123
1.9072256088256836	186210.10726631465
1.9107483625411987	256949.37846294208
1.9142658710479736	171268.66273200157
1.9177782535552979	99889.2890162456
1.9212853908538818	93051.01229857455
1.9247875213623047	48085.9277141124
1.9282845258712769	30106.211953209444
1.9317764043807983	96275.90785182323
1.9352631568908691	212971.74213851488
1.9387450218200684	231575.02191303307
1.942221760749817	142719.2054799128
1.9456936120986938	81426.50656987795
1.9491604566574097	64285.03762054913
1.952622413635254	70693.17328365508
1.956079363822937	127691.03872288042
1.959531545639038	242937.97719611225
1.962978720664978	283405.8958420002
1.966421127319336	248060.42744999082
1.9698586463928223	290099.2445487261
1.9732913970947266	361871.97448651254
1.9767193794250488	419189.9046887349
1.9801424741744995	495664.24080629
1.9835609197616577	545555.412755104
1.9869745969772339	605835.0515549349
1.990383505821228	652843.7555705097
1.9937876462936401	612810.5559703804
1.9971871376037598	465205.37967351865
2.000581979751587	344826.1330827219
2.003972291946411	485136.4896318664
2.007357597351074	750975.6402591643
2.0107386112213135	887825.9821693787
2.0141148567199707	850300.4923037597
2.017486572265625	725513.6496903499
2.0208535194396973	633962.3062281768
2.0242159366607666	602986.7072606067
2.027573823928833	620698.134361583
2.0309269428253174	642529.1431047685
2.034275770187378	760668.9381622751
2.0376198291778564	1017712.4519410724
2.040959596633911	1181944.6344169409
2.044294595718384	1212491.8036766262
2.0476250648498535	1184054.5890982924
2.0509510040283203	1094461.2805910166
2.054272413253784	1050178.30012117
2.057589530944824	1106100.3416189854
2.0609018802642822	1169661.8444877567
2.0642096996307373	1196848.1455919484
2.0675129890441895	1197260.4969985825
2.0708119869232178	1175337.7459129312
2.074106216430664	1149040.468151424
2.0773961544036865	1141428.4828748342
2.080681324005127	1140866.0069576977
2.0839622020721436	1124462.400147821
2.087238311767578	1102306.507450237
2.090510129928589	1090304.4755322349
2.0937774181365967	1082376.10348797
2.0970399379730225	1060390.3966488754
2.1002981662750244	1017791.7721752728
2.1035518646240234	988561.2850886886
2.1068007946014404	988249.5656983493
2.1100454330444336	985560.9846711518
2.1132853031158447	958050.9495478453
2.116520881652832	898209.7145099968
2.1197516918182373	829074.7194562033
2.1229779720306396	778792.8122975046
2.12619948387146	742386.4199724558
2.1294167041778564	732014.6990664712
2.132629156112671	747226.0725715434
2.1358368396759033	717319.2982041163
2.139039993286133	657658.2179248638
2.1422386169433594	607092.2494078525
2.145432472229004	551418.2089040423
2.1486217975616455	497042.5741826281
2.151806354522705	428673.9844758863
2.1549863815307617	422041.05664144154
2.1581614017486572	489850.6598883774
2.16133189201355	523213.3250079916
2.1644976139068604	501174.55897406855
2.167658567428589	426709.7019634749
2.1708147525787354	383057.9022526871
2.173966407775879	460047.85668317793
2.1771130561828613	573810.6216132962
2.1802549362182617	598678.9744968499
2.183391809463501	531369.0968427478
2.1865241527557373	460113.4031077447
2.1896514892578125	419512.0127509507
2.1927738189697266	351812.42073823983
2.1958916187286377	220964.5904030793
2.1990041732788086	94373.22511549488
2.2021119594573975	40291.91900925102
2.2052149772644043	52045.65853139382
2.208312749862671	98826.68634744477
2.2114057540893555	154176.26498444704
2.214493751525879	179739.0741279483
2.217576742172241	140366.166728452
2.2206547260284424	76362.31117434164
2.2237277030944824	46056.01075223123
2.2267956733703613	37751.86519044431
2.2298583984375	31773.255954006803
2.2329163551330566	28349.10525379771
2.235969066619873	30016.151255300607
2.2390167713165283	30233.700892111025
2.2420592308044434	24472.688158020137
2.2450966835021973	18951.03554776211
2.248128890991211	17430.626272642065
2.2511560916900635	19446.597415971228
2.254178285598755	30639.90860766012
2.257194995880127	57082.41384194975
2.260206699371338	64221.52617249952
2.2632133960723877	34053.90899153524
2.266214609146118	18750.267717846124
2.2692108154296875	46649.055954213836
2.2722020149230957	77255.9315843394
2.2751877307891846	67891.76973417948
2.278168201446533	40951.564520963206
2.2811436653137207	35547.75923685441
2.284113883972168	39009.23129778286
2.287078857421875	28959.16297128733
2.290038824081421	16311.721376499227
2.2929933071136475	13491.734982815604
2.295942783355713	13795.822654577774
2.298887014389038	13579.925718932178
2.301826238632202	17589.103344536274
2.304760217666626	31905.627877764156
2.3076889514923096	58213.910432350116
2.310612440109253	93269.0622313504
2.3135311603546143	134514.89744119399
2.3164443969726562	139711.58495457878
2.319352865219116	79487.38017387953
2.322256088256836	25151.23698033453
2.3251543045043945	14474.513386926244
2.328047275543213	12689.733724198564
2.330935478210449	9511.08738353753
2.3338186740875244	7303.227342491612
2.3366971015930176	5460.20346657521
2.3395702838897705	4138.976550021292
2.3424389362335205	3449.9910931995796
2.3453025817871094	2928.6606681876588
2.348161458969116	2981.203413249747
2.351015567779541	7534.959972085192
2.353865146636963	22484.931770432562
2.3567099571228027	45524.266869578576
2.3595502376556396	67054.28311821341
2.3623859882354736	70621.00084403585
2.3652172088623047	45626.54613017221
2.368043899536133	16051.828195349812
2.370866537094116	4100.349563878143
2.3736846446990967	2858.5729971594187
2.3764986991882324	3478.3417373714865
2.3793084621429443	4871.119990872961
2.3821144104003906	9787.92440297779
2.384916305541992	17621.03985313319
2.387714147567749	20413.008522981294
2.3905084133148193	15268.427578549265
2.393299102783203	10473.816992549242
2.3960859775543213	8750.476325643991
2.398869514465332	9647.301255837385
2.4016497135162354	20449.58775373248
2.4044265747070312	46486.1971755607
2.407200336456299	67970.99855962946
2.409970998764038	63453.94595110132
2.4127390384674072	48300.03370613678
2.415503978729248	46379.62769844181
2.418266534805298	59758.4519982579
2.4210267066955566	71161.00882127114
2.4237842559814453	65243.11975857515
2.426539897918701	59274.06252833343
2.429293394088745	78270.42218482906
2.4320452213287354	101821.30973405686
2.4347951412200928	100861.0018866989
2.4375438690185547	98826.68198209778
2.440291166305542	118224.41607998718
2.443037271499634	125280.4456481563
2.445782423019409	105502.18668817914
2.4485268592834473	96713.37740235472
2.451270818710327	129357.96843645528
2.454014539718628	183024.4642678009
2.4567582607269287	213245.69355578235
2.4595019817352295	226057.26266745004
2.4622461795806885	255084.01615740763
2.4649908542633057	300347.69775866205
2.4677364826202393	324341.141174615
2.4704833030700684	288069.3554251236
2.473231554031372	205904.7230745963
2.4759814739227295	131395.9355514387
2.4787333011627197	85759.89887224545
2.481487512588501	55060.47294437945
