#wavelength	surface flux
0.6450077295303345	64562.64442828245
0.6472567915916443	100966.24012879057
0.6494921445846558	130330.84988274686
0.6517150402069092	147903.6806191017
0.6539263725280762	165460.64440314652
0.6561272740364075	183667.7732364442
0.6583186388015747	202954.81493616375
0.6605015397071838	223561.21829417016
0.6626768708229065	244678.8030950069
0.6648455858230591	263289.64414131874
0.6670085787773132	264844.0520180762
0.6691668033599854	230637.83711837302
0.6713210344314575	216633.0227720616
0.6734722256660461	284016.9159350892
0.6756211519241333	369018.2349483446
0.6777685880661011	419170.8995100834
0.6799154281616211	454326.2451427577
0.6820623278617859	486145.2785324973
0.6842101216316223	516586.68596922996
0.6863595843315125	545682.0340318234
0.688511312007904	571054.4599310706
0.6906660795211792	586404.2496938248
0.6928245425224304	600482.1231576686
0.6949873566627502	631347.0469001068
0.6971551775932312	666507.1972533982
0.6993286609649658	689026.0446182226
0.7015084028244019	703521.9009656907
0.7036949396133423	718885.286781707
0.7058889269828796	734957.8412017841
0.7080909013748169	743661.2082970638
0.710301399230957	747217.0975289815
0.712520956993103	746933.5288459694
0.7147500514984131	731028.3077376642
0.7169892191886902	702025.5443197651
0.7192389369010925	682624.7309823659
0.7214996814727783	667440.4130287708
0.723771870136261	638927.619897183
0.7260559797286987	603700.7746166663
0.7283523678779602	567904.6715331667
0.7306615710258484	533247.895568719
0.7329838871955872	501575.3938141901
0.7353196740150452	466731.1510315904
0.7376693487167358	426841.6998341525
0.7400332689285278	384285.59890152764
0.7424117922782898	337595.6173908185
0.7448052167892456	289960.173421992
0.7472138404846191	243154.2572125776
0.7496379613876343	196538.82718145978
0.7520779371261597	151559.08075945915
0.7545340061187744	109829.1688561631
0.7570064663887024	73069.14749765997
0.7594954967498779	42916.228787603795
0.7620013952255249	20759.93276402055
0.7645244002342224	7405.341044963698
0.7670646905899048	1962.2180584519256
0.7696225643157959	2295.4623074223637
0.7721980810165405	9849.473450242227
0.7747915983200073	28491.822185090412
0.7774031162261963	56221.66816923646
0.7800329327583313	96122.85507316518
0.7826811671257019	162620.58058418793
0.7853479981422424	251235.20013330007
0.7880334854125977	345033.6912297558
0.7907378077507019	399805.0221916462
0.7934610247612	390692.56221680116
0.7962033748626709	502681.2154900083
0.7989648580551147	787465.2517264854
0.801745593547821	1044729.5186016234
0.8045456409454346	1243591.6670406044
0.8073651194572449	1425234.7699945185
0.8102040886878967	1578150.490554723
0.8130625486373901	1763442.172957082
0.8159406185150146	2035016.2479422956
0.8188382983207703	2327669.236604984
0.8217556476593018	2617129.347299083
0.8246926665306091	2946721.305841747
0.8276493549346924	3272703.5841118325
0.8306257724761963	3569747.4450908313
0.8336219191551208	3881690.074436816
0.8366377949714661	4188977.684123465
0.8396733403205872	4601644.316161131
0.8427285552024841	5201822.226951836
0.8458034992218018	5726909.511647346
0.8488980531692505	5774316.857497015
0.8520121574401855	5708097.913179316
0.8551458716392517	6564671.148897161
0.8582990765571594	7660638.12779642
0.8614717125892639	7751408.572991884
0.8646637797355652	7629168.938028145
0.8678751587867737	8142436.045759877
0.8711057901382446	8848079.097080471
0.8743556141853333	9426537.271826638
0.87762451171875	9857188.531354778
0.8809124231338501	10147331.83635841
0.8842192888259888	10573028.73794638
0.8875449895858765	10698503.275946833
0.8908893465995789	9742937.186783455
0.894252359867096	8944229.172989557
0.8976338505744934	10268817.999279182
0.9010337591171265	12784957.89612774
0.9044519662857056	14690783.616264563
0.9078882932662964	15878959.910973363
0.9113426208496094	16414506.040293567
0.914814829826355	15931400.297283972
0.9183048605918884	15553046.838299569
0.9218124747276306	15342918.165259877
0.925337553024292	12084873.895011313
0.9288799166679382	7153044.063403062
0.9324395060539246	5050842.614410964
0.9360161423683167	5617579.262880022
0.9396095871925354	6982523.374886536
0.943219780921936	6973887.8241554955
0.9468464851379395	5983949.166953402
0.9504896402359009	6418272.787978385
0.9541489481925964	7850994.004444773
0.9578243494033813	7856186.039192881
0.9615156054496765	5893704.08938534
0.9652225375175476	4750682.892664982
0.9689450263977051	6220122.463240156
0.9726828336715698	9576138.690291574
0.9764357805252075	12150730.138350058
0.9802037477493286	13521479.282389212
0.983986496925354	15015422.920885256
0.9877838492393494	17070036.839281518
0.9915955662727356	19534919.382650744
0.9954215884208679	21079871.20942548
0.9992615580558777	21491677.836965535
1.0031154155731201	22101872.980922908
1.0069829225540161	24027517.35852898
1.0108637809753418	27059481.8889691
1.0147579908370972	30355465.436981242
1.018665075302124	32539941.614028763
1.022585153579712	32691630.96012006
1.0265177488327026	32283062.350496754
1.0304628610610962	33763077.76842754
1.0344202518463135	37017982.85800055
1.0383895635604858	39519743.27185531
1.0423706769943237	40639630.35570264
1.0463634729385376	41201376.28587363
1.0503677129745483	41641942.16007003
1.0543830394744873	42830071.8260894
1.058409333229065	44282817.12767387
1.0624464750289917	44965201.46558427
1.0664942264556885	45031344.24149398
1.0705522298812866	45001845.60235154
1.0746204853057861	45526365.11244828
1.0786986351013184	46323811.82803254
1.0827864408493042	46470074.09280352
1.086883783340454	43991680.096096285
1.0909905433654785	37903547.11413246
1.0951062440872192	30840718.2976688
1.0992310047149658	21496181.793679398
1.10336434841156	11146806.09929961
1.1075061559677124	7346379.186145319
1.1116561889648438	7072894.313143472
1.115814208984375	5412568.994548271
1.1199802160263062	4120340.7822476956
1.124153733253479	3926199.924249973
1.1283347606658936	4137789.8028414487
1.1325229406356812	4011681.985701152
1.1367181539535522	4951630.468448652
1.1409201622009277	6781671.2706703255
1.145128846168518	8084772.556717425
1.1493438482284546	6992791.868692009
1.1535650491714478	3569104.335603676
1.1577922105789185	1818095.063671221
1.1620250940322876	2663001.76316296
1.1662636995315552	4297947.206685944
1.170507550239563	5498316.778295452
1.174756646156311	7802679.486312287
1.1790107488632202	12699635.28963352
1.1832695007324219	18230293.280729122
1.1875330209732056	21990464.316712502
1.191800832748413	26605715.421047833
1.1960728168487549	33028725.363222424
1.2003488540649414	37227399.96278534
1.2046287059783936	38656556.75931921
1.2089121341705322	39407243.2001008
1.2131990194320679	42056291.39559978
1.2174891233444214	47234314.91226735
1.2217823266983032	52372283.62114165
1.2260783910751343	56249263.41486388
1.230377197265625	58804714.03215994
1.2346785068511963	60565659.48907806
1.238982081413269	62314324.61783473
1.2432878017425537	63317197.71750076
1.2475954294204712	62389364.198150456
1.2519049644470215	60576285.88459345
1.256216049194336	63564551.73238044
1.2605286836624146	67263764.74960111
1.2648425102233887	66386225.55039519
1.2691574096679688	64860456.29582544
1.2734732627868652	64109508.16435913
1.2777899503707886	63157898.23637207
1.2821072340011597	60986836.42362638
1.2864248752593994	57112943.50061727
1.2907428741455078	51322482.26657226
1.2950609922409058	48484495.6496233
1.2993791103363037	47139819.899817064
1.303696870803833	42557032.30978283
1.3080145120620728	39595311.830136016
1.3123314380645752	40193123.09670914
1.3166478872299194	41994345.12937651
1.3209635019302368	37589397.119687684
1.3252781629562378	25343253.998536732
1.3295916318893433	14205654.67306428
1.3339040279388428	6321058.639881514
1.3382149934768677	1660995.8303202586
1.3425244092941284	438654.1251638756
1.3468321561813354	319662.8726196874
1.3511382341384888	240942.08936791337
1.3554422855377197	138971.1933412509
1.3597444295883179	113350.88148101523
1.3640443086624146	112467.66869762047
1.3683418035507202	165906.8913893096
1.3726370334625244	404076.9833248104
1.3769296407699585	694304.5673652964
1.381219506263733	558389.6315204736
1.3855066299438477	197299.1185677698
1.3897908926010132	71576.0743193109
1.3940720558166504	91343.22251371351
1.3983501195907593	154961.1878341648
1.4026249647140503	312885.06952918426
1.4068963527679443	425495.7975915539
1.4111642837524414	312347.820281311
1.4154287576675415	205465.5374964791
1.419689416885376	193268.74518699414
1.4239463806152344	178569.57999412587
1.4281994104385376	250517.1819769084
1.4324485063552856	361746.1536069486
1.436693549156189	428817.6861609396
1.440934419631958	535544.478641653
1.4451709985733032	927367.7443928812
1.449403166770935	1704904.0917103398
1.453631043434143	2286673.4676271197
1.4578542709350586	2598612.7782604937
1.4620729684829712	3026172.214353713
1.4662868976593018	3065529.3620989216
1.4704961776733398	2592437.5698964386
1.4747005701065063	2257655.8773311945
1.4788999557495117	2474228.7356860577
1.4830944538116455	3555472.101459115
1.4872838258743286	4802181.24606847
1.491468071937561	5167492.496297055
1.4956470727920532	5059540.589795833
1.4998208284378052	5792897.613135764
1.5039892196655273	6927272.170727833
1.5081522464752197	7188114.747665292
1.5123097896575928	7764731.996707848
1.5164618492126465	9863317.931005657
1.5206083059310913	13431732.03672135
1.5247491598129272	16169691.874835737
1.5288842916488647	16409688.406408926
1.5330137014389038	17421734.029492814
1.5371372699737549	19618115.28788561
1.541254997253418	20954820.728831965
1.545366883277893	22957531.33422103
1.5494728088378906	25706129.376806498
1.5535727739334106	27086472.96108449
1.5576666593551636	27262476.658564422
1.561754584312439	29474529.89235605
1.5658363103866577	33920713.951213285
1.5699119567871094	36162272.54079092
1.5739814043045044	34567720.41290283
1.5780447721481323	32750527.175740097
1.582101821899414	35578753.98087486
1.5861525535583496	40987940.64652276
1.5901970863342285	42762149.19659338
1.5942351818084717	40720310.68466891
1.5982669591903687	38093290.471759126
1.6022924184799194	36678363.35023462
1.606311559677124	35921301.775904864
1.6103241443634033	34748341.548187055
1.6143304109573364	32495153.46642475
1.6183301210403442	29080376.84577871
1.6223233938217163	25389959.34637512
1.6263102293014526	21925012.708372883
1.6302905082702637	19224561.417254232
1.634264349937439	22391805.808973927
1.638231635093689	31961947.831941385
1.6421923637390137	36655614.947694585
1.646146535873413	31386267.780351218
1.6500942707061768	25116182.919359453
1.6540353298187256	25962870.32296084
1.6579699516296387	28595406.561244026
1.661897897720337	25591545.102071077
1.6658192873001099	17385500.850381423
1.6697341203689575	12953166.51142283
1.6736423969268799	17643078.375161618
1.677544116973877	21039106.748721134
1.6814392805099487	19321872.459085327
1.6853278875350952	17445466.592478894
1.6892099380493164	14919118.69888129
1.6930854320526123	11137620.395991858
1.696954369544983	7893085.932981196
1.7008168697357178	7203215.377996792
1.7046726942062378	8448949.959191773
1.708522081375122	9945619.650623744
1.712364912033081	11065307.962873107
1.7162011861801147	12518780.138432125
1.7200311422348022	14319906.60334624
1.723854422569275	14441478.20113838
1.7276713848114014	12911105.203071991
1.731481909751892	10960011.648398945
1.7352858781814575	9235010.063105755
1.7390835285186768	8440653.86667354
1.7428747415542603	7901806.959866386
1.7466596364974976	6876269.993309245
1.7504380941390991	5766084.981665552
1.7542102336883545	5388546.537708359
1.7579760551452637	6877782.472243764
1.7617355585098267	8473882.281031458
1.7654887437820435	7391135.089464933
1.7692357301712036	4767819.921317934
1.7729763984680176	2656242.9303767756
1.776710867881775	1400199.7042672047
1.7804391384124756	986854.2710756012
1.7841613292694092	1016359.9859501927
1.7878772020339966	899339.3410059726
1.7915871143341064	1029592.0976531949
1.7952908277511597	1779369.5040614924
1.7989884614944458	2219873.211114533
1.8026801347732544	1420157.4763497992
1.806365728378296	478530.54606654396
1.8100452423095703	429042.10675897286
1.8137187957763672	577598.1142839697
1.817386507987976	480563.3230251029
1.8210482597351074	579604.4094625326
1.8247040510177612	637954.2992312345
1.828354001045227	325680.8469061273
1.8319982290267944	200892.06544174015
1.8356364965438843	428233.9160857106
1.8392690420150757	678328.5673893365
1.8428958654403687	681238.2154215615
1.8465168476104736	705387.4171909051
1.8501322269439697	909734.6412680135
1.8537418842315674	783286.3167164869
1.8573459386825562	479751.3987447301
1.860944390296936	354100.0418298616
1.864537239074707	218471.7455359297
1.8681244850158691	182363.36846784575
1.871706247329712	372824.4523245899
1.8752825260162354	775602.2049698111
1.8788533210754395	1606188.3188659989
1.8824186325073242	2273521.8641318334
1.8859784603118896	2023980.7372245952
1.8895330429077148	1762523.9928991508
1.8930821418762207	2429642.563843801
1.8966259956359863	2535386.00877604
1.9001644849777222	1194053.4082274623
1.9036977291107178	238141.8698838262
1.9072256088256836	191651.1363186231
1.9107483625411987	190796.4576282863
1.9142658710479736	107159.9834391541
1.9177782535552979	112090.3748042378
1.9212853908538818	182818.96898733018
1.9247875213623047	192693.60967532755
1.9282845258712769	208971.42955742098
1.9317764043807983	307738.6439501543
1.9352631568908691	372413.2517813007
1.9387450218200684	392491.44795398583
1.942221760749817	504392.7006708214
1.9456936120986938	662462.9396612502
1.9491604566574097	866022.4595474715
1.952622413635254	869418.6331636616
1.956079363822937	623093.3308069388
1.959531545639038	554577.8217454841
1.962978720664978	646796.6995633016
1.966421127319336	982097.2025978387
1.9698586463928223	1611687.1701630328
1.9732913970947266	1958848.0311497515
1.9767193794250488	2163825.9559241254
1.9801424741744995	2724801.273512712
1.9835609197616577	3367752.9451487656
1.9869745969772339	3467444.2236155467
1.990383505821228	2933750.6435432504
1.9937876462936401	2826444.3042303543
1.9971871376037598	2996928.9898189134
2.000581979751587	3354086.203335396
2.003972291946411	4515838.7914839545
2.007357597351074	5753242.8025393365
2.0107386112213135	6993320.841951513
2.0141148567199707	7250696.831067198
2.017486572265625	6212593.225924526
2.0208535194396973	6470050.338952344
2.0242159366607666	7927754.23933442
2.027573823928833	8948192.455728035
2.0309269428253174	9965493.71702078
2.034275770187378	11148895.755121544
2.0376198291778564	12265822.221939225
2.040959596633911	13821934.113347212
2.044294595718384	15926733.904270219
2.0476250648498535	18035174.39494678
2.0509510040283203	18278550.182998657
2.054272413253784	16783055.446547795
2.057589530944824	16920383.866499584
2.0609018802642822	18721469.284456287
2.0642096996307373	20315640.207199387
2.0675129890441895	21376740.273152016
2.0708119869232178	21734389.903877974
2.074106216430664	21256553.35916921
2.0773961544036865	20815736.441453993
2.080681324005127	21168545.371163677
2.0839622020721436	21617083.127315853
2.087238311767578	21831127.132521078
2.090510129928589	21676270.58606431
2.0937774181365967	21005044.92250859
2.0970399379730225	20574480.301197357
2.1002981662750244	20348412.442846045
2.1035518646240234	19788937.005567417
2.1068007946014404	19130358.42609996
2.1100454330444336	19149164.14461138
2.1132853031158447	19306193.860048104
2.116520881652832	18427777.20753892
2.1197516918182373	17486346.039131463
2.1229779720306396	17382162.920289226
2.12619948387146	17619146.59855796
2.1294167041778564	17672713.17225156
2.132629156112671	17566262.961538535
2.1358368396759033	16859270.772238296
2.139039993286133	15552975.10975785
2.1422386169433594	14265449.183112016
2.145432472229004	13092456.810798882
2.1486217975616455	12295345.93973561
2.151806354522705	11567952.217756497
2.1549863815307617	11478494.4944874
2.1581614017486572	11677040.639969481
2.16133189201355	10796835.857053706
2.1644976139068604	9914946.761760717
2.167658567428589	9740937.942106772
2.1708147525787354	9941893.375706792
2.173966407775879	10129593.655177489
2.1771130561828613	9900592.06788566
2.1802549362182617	9232080.233203039
2.183391809463501	8293556.58444432
2.1865241527557373	7339768.191345504
2.1896514892578125	6345606.160210294
2.1927738189697266	4942689.217303979
2.1958916187286377	3205691.9959306214
2.1990041732788086	1908433.6356741928
2.2021119594573975	1392828.782150856
2.2052149772644043	1369953.4990261258
2.208312749862671	1571451.0312896043
2.2114057540893555	1862357.6109936498
2.214493751525879	2051506.184980994
2.217576742172241	1966025.129097635
2.2206547260284424	1787282.9544226816
2.2237277030944824	1683256.4930577022
2.2267956733703613	1460245.7826186558
2.2298583984375	1132026.1661580617
2.2329163551330566	919088.4241591006
2.235969066619873	847823.2309173391
2.2390167713165283	793478.3606676221
2.2420592308044434	660751.9020148629
2.2450966835021973	517928.7947702562
2.248128890991211	542854.5386884096
2.2511560916900635	691037.1565171407
2.254178285598755	776846.1836181888
2.257194995880127	837752.438711669
2.260206699371338	848169.860182263
2.2632133960723877	719220.65242183
2.266214609146118	581842.2822658371
2.2692108154296875	553735.9449055897
2.2722020149230957	642016.2380050658
2.2751877307891846	747910.8539402405
2.278168201446533	747048.8482440503
2.2811436653137207	675601.1961627123
2.284113883972168	626953.40776609
2.287078857421875	583181.3421299839
2.290038824081421	530817.8026501306
2.2929933071136475	526920.5720412175
2.295942783355713	568099.3287666485
2.298887014389038	605130.6862310058
2.301826238632202	670670.2047311187
2.304760217666626	909010.009632189
2.3076889514923096	1360929.253220103
2.310612440109253	1756081.9737926307
2.3135311603546143	1641277.1606679368
2.3164443969726562	1004763.5294066068
2.319352865219116	499369.1627823999
2.322256088256836	415830.1557830284
2.3251543045043945	449053.13947237853
2.328047275543213	443909.71045112616
2.330935478210449	436488.07724341593
2.3338186740875244	428951.52715051436
2.3366971015930176	408436.2068242296
2.3395702838897705	387969.07070753817
2.3424389362335205	356779.38945736253
2.3453025817871094	311606.90837682004
2.348161458969116	294296.64848844876
2.351015567779541	354591.6207782681
2.353865146636963	481251.0093487175
2.3567099571228027	594886.6167985334
2.3595502376556396	680163.2793989128
2.3623859882354736	755199.7223708445
2.3652172088623047	713251.2753546147
2.368043899536133	500943.30408121523
2.370866537094116	294350.15729779383
2.3736846446990967	252410.09817718115
2.3764986991882324	311172.19414837216
2.3793084621429443	376412.45547025226
2.3821144104003906	453202.4012579932
2.384916305541992	559566.838004748
2.387714147567749	625896.7619701923
2.3905084133148193	590245.1485987515
2.393299102783203	549617.1979965863
2.3960859775543213	576014.4262316158
2.398869514465332	632371.2368999115
2.4016497135162354	642485.2822432935
2.4044265747070312	626053.044344055
2.407200336456299	727180.7604007287
2.409970998764038	938702.2177284624
2.4127390384674072	1076773.0163280866
2.415503978729248	1124778.8133446432
2.418266534805298	1265253.2605323442
2.4210267066955566	1415974.3527458375
2.4237842559814453	1299725.4661756048
2.426539897918701	1118951.8740244112
2.429293394088745	1284112.2335095564
2.4320452213287354	1617339.271374446
2.4347951412200928	1703137.6279838667
2.4375438690185547	1622023.3505680475
2.440291166305542	1652611.0961933467
2.443037271499634	1671492.4252911194
2.445782423019409	1458626.7987942542
2.4485268592834473	1157235.5605955373
2.451270818710327	1097307.0721242821
2.454014539718628	1358430.4627548843
2.4567582607269287	1591928.5651441584
2.4595019817352295	1624495.956836674
2.4622461795806885	1764068.4026653583
2.4649908542633057	1807396.86067393
2.4677364826202393	1425375.0288109824
2.4704833030700684	981361.2699030205
2.473231554031372	730225.8675899564
2.4759814739227295	593333.894084654
2.4787333011627197	536116.8167931555
2.481487512588501	581454.1146385646
2.4842441082000732	641799.2939751435
