#wavelength	surface flux
0.6450077295303345	62046.475041222046
0.6472567915916443	94248.22722937622
0.6494921445846558	115200.48059366347
0.6517150402069092	122511.34377737089
0.6539263725280762	128944.16731912218
0.6561272740364075	135267.08035242133
0.6583186388015747	141671.1220150821
0.6605015397071838	148272.49530600072
0.6626768708229065	154937.19310800443
0.6648455858230591	161281.33907076964
0.6670085787773132	163732.17450447552
0.6691668033599854	155772.98677672763
0.6713210344314575	153288.18306806718
0.6734722256660461	172743.80161474503
0.6756211519241333	193702.6928799876
0.6777685880661011	204205.57019459523
0.6799154281616211	212161.4790124068
0.6820623278617859	219920.1230229846
0.6842101216316223	227719.59116785423
0.6863595843315125	235520.6699486546
0.688511312007904	243019.66070617764
0.6906660795211792	249356.6804725158
0.6928245425224304	255708.1313994284
0.6949873566627502	264681.95055410004
0.6971551775932312	274588.9455907155
0.6993286609649658	283062.4139863377
0.7015084028244019	290842.0009183522
0.7036949396133423	299286.04789801635
0.7058889269828796	308381.0833799137
0.7080909013748169	316911.62382768944
0.710301399230957	325234.346251905
0.712520956993103	333527.876398513
0.7147500514984131	339741.0258310448
0.7169892191886902	344185.14453370374
0.7192389369010925	350796.1672571237
0.7214996814727783	358376.26666979986
0.723771870136261	363627.8281969439
0.7260559797286987	367822.01393824065
0.7283523678779602	371806.2813669998
0.7306615710258484	376173.26520043606
0.7329838871955872	381363.9469002193
0.7353196740150452	384837.8834082806
0.7376693487167358	385647.83491045266
0.7400332689285278	383541.51820107235
0.7424117922782898	376539.81105074927
0.7448052167892456	364645.4234429504
0.7472138404846191	346750.80005642737
0.7496379613876343	320329.6924776241
0.7520779371261597	283833.00731169025
0.7545340061187744	236473.98126278038
0.7570064663887024	179579.35483033088
0.7594954967498779	118155.74271537588
0.7620013952255249	61804.764960964254
0.7645244002342224	22507.00636023093
0.7670646905899048	5421.454576884315
0.7696225643157959	6435.272178952467
0.7721980810165405	29282.999538798373
0.7747915983200073	81942.31061182504
0.7774031162261963	151050.33219095206
0.7800329327583313	227868.42185177575
0.7826811671257019	327057.0145016142
0.7853479981422424	432135.4489900964
0.7880334854125977	515362.99533569964
0.7907378077507019	542721.8224606919
0.7934610247612	493938.6882764064
0.7962033748626709	533247.8232320804
0.7989648580551147	699563.7095063734
0.801745593547821	814871.3121045206
0.8045456409454346	866279.7242369817
0.8073651194572449	905716.4035977536
0.8102040886878967	934402.4226573724
0.8130625486373901	966121.9701117359
0.8159406185150146	1014244.7037675224
0.8188382983207703	1063888.2597079973
0.8217556476593018	1103302.4588316174
0.8246926665306091	1142920.6176821615
0.8276493549346924	1182843.7340649671
0.8306257724761963	1217965.7724085723
0.8336219191551208	1253981.8492753278
0.8366377949714661	1289697.0664237074
0.8396733403205872	1333375.6243666946
0.8427285552024841	1392004.1492549174
0.8458034992218018	1448056.4598807262
0.8488980531692505	1489342.0314879457
0.8520121574401855	1527134.6225110223
0.8551458716392517	1581935.1107707596
0.8582990765571594	1640102.9655238457
0.8614717125892639	1679334.5456349647
0.8646637797355652	1717733.6272309732
0.8678751587867737	1770567.4868656313
0.8711057901382446	1826627.7661563214
0.8743556141853333	1875475.9810854078
0.87762451171875	1914961.9657795022
0.8809124231338501	1950329.0861357914
0.8842192888259888	1988322.013490533
0.8875449895858765	2018936.2311887643
0.8908893465995789	2021231.4329344588
0.894252359867096	2024490.8899154179
0.8976338505744934	2098639.8695529583
0.9010337591171265	2222590.4175908356
0.9044519662857056	2325019.8151800637
0.9078882932662964	2398231.413056101
0.9113426208496094	2455492.2913326668
0.914814829826355	2484480.2204551594
0.9183048605918884	2516982.18505179
0.9218124747276306	2544970.5460130326
0.925337553024292	2376500.497118664
0.9288799166679382	2034128.4793178828
0.9324395060539246	1887574.9526598933
0.9360161423683167	2031653.3026120593
0.9396095871925354	2238511.3486110023
0.943219780921936	2255979.34165331
0.9468464851379395	2179164.6779375714
0.9504896402359009	2259812.386892795
0.9541489481925964	2425581.362044711
0.9578243494033813	2463414.42148792
0.9615156054496765	2335757.8856575387
0.9652225375175476	2295064.8299119812
0.9689450263977051	2509793.911907583
0.9726828336715698	2886748.323943717
0.9764357805252075	3164668.401088895
0.9802037477493286	3313697.056361648
0.983986496925354	3464348.26482556
0.9877838492393494	3635626.9392407853
0.9915955662727356	3826070.8554584407
0.9954215884208679	3992233.8808652614
0.9992615580558777	4123122.5128915305
1.0031154155731201	4239039.698886846
1.0069829225540161	4371628.0051556565
1.0108637809753418	4524047.756580589
1.0147579908370972	4675442.222931666
1.018665075302124	4800580.815961381
1.022585153579712	4874522.343710064
1.0265177488327026	4917507.798716963
1.0304628610610962	5004859.889542387
1.0344202518463135	5179143.694933156
1.0383895635604858	5353815.926072671
1.0423706769943237	5476849.749939108
1.0463634729385376	5575382.319561796
1.0503677129745483	5665386.937062169
1.0543830394744873	5780384.89535067
1.058409333229065	5911084.590231295
1.0624464750289917	6027185.0540433675
1.0664942264556885	6127004.524708191
1.0705522298812866	6221012.454273179
1.0746204853057861	6329486.69433283
1.0786986351013184	6448096.15215548
1.0827864408493042	6554268.298321174
1.086883783340454	6602221.833420856
1.0909905433654785	6561153.619100531
1.0951062440872192	6385308.872510134
1.0992310047149658	5716403.639023255
1.10336434841156	4704439.977693498
1.1075061559677124	4305655.659220146
1.1116561889648438	4225334.240739257
1.115814208984375	3833950.591730148
1.1199802160263062	3518452.6977016656
1.124153733253479	3603498.403988068
1.1283347606658936	3791335.4658384696
1.1325229406356812	3609950.482296244
1.1367181539535522	3856291.7885989426
1.1409201622009277	4691771.556325101
1.145128846168518	5168628.398052889
1.1493438482284546	4568442.645797257
1.1535650491714478	3242270.860011394
1.1577922105789185	2742699.7541086227
1.1620250940322876	3355961.1537529062
1.1662636995315552	4329445.268906008
1.170507550239563	5041514.959754793
1.174756646156311	5823050.548492339
1.1790107488632202	6919576.249971889
1.1832695007324219	7758858.793994485
1.1875330209732056	8234792.465792781
1.191800832748413	8676143.139465606
1.1960728168487549	9195704.766499931
1.2003488540649414	9546128.345000496
1.2046287059783936	9726930.166404955
1.2089121341705322	9910332.19060023
1.2131990194320679	10144077.604739081
1.2174891233444214	10419253.496735446
1.2217823266983032	10693098.72924837
1.2260783910751343	10932323.652066704
1.230377197265625	11126318.832270967
1.2346785068511963	11293258.201273283
1.238982081413269	11482591.35154025
1.2432878017425537	11661355.63390979
1.2475954294204712	11784643.479044687
1.2519049644470215	11891245.810225466
1.256216049194336	12065529.0217019
1.2605286836624146	12227974.178952612
1.2648425102233887	12315213.292858493
1.2691574096679688	12393658.244915139
1.2734732627868652	12493939.796907727
1.2777899503707886	12588535.787523255
1.2821072340011597	12628742.218472319
1.2864248752593994	12566090.706675056
1.2907428741455078	12402434.390891071
1.2950609922409058	12370976.059129665
1.2993791103363037	12377350.868145024
1.303696870803833	12211851.53945178
1.3080145120620728	12122718.304869073
1.3123314380645752	12256610.827760566
1.3166478872299194	12542229.495044213
1.3209635019302368	12294991.674396379
1.3252781629562378	11074137.42073309
1.3295916318893433	8810130.04296805
1.3339040279388428	5487753.741021091
1.3382149934768677	2453281.0789793595
1.3425244092941284	1087610.4358634772
1.3468321561813354	936073.3139465336
1.3511382341384888	747484.7028840878
1.3554422855377197	467071.0913964377
1.3597444295883179	397450.6181426294
1.3640443086624146	420043.71815160004
1.3683418035507202	588375.6654821414
1.3726370334625244	1206543.2858814916
1.3769296407699585	1906659.8473452604
1.381219506263733	1514531.2564859844
1.3855066299438477	584123.041970261
1.3897908926010132	267584.0349662713
1.3940720558166504	331047.8453295374
1.3983501195907593	498360.0553081412
1.4026249647140503	922734.0504693986
1.4068963527679443	1241816.2379316608
1.4111642837524414	935687.6700899361
1.4154287576675415	644573.3953428537
1.419689416885376	620599.6667350219
1.4239463806152344	587518.4748763904
1.4281994104385376	785336.4124374036
1.4324485063552856	1024033.2185271616
1.436693549156189	1126960.3860876062
1.440934419631958	1381775.3971430182
1.4451709985733032	2164003.9947905787
1.449403166770935	3512797.7350359284
1.453631043434143	4472732.77276113
1.4578542709350586	4933414.44514081
1.4620729684829712	5498804.01104988
1.4662868976593018	5543766.589594812
1.4704961776733398	4976443.237068211
1.4747005701065063	4659054.983262434
1.4788999557495117	5001059.229405835
1.4830944538116455	6292861.800687392
1.4872838258743286	7760896.876180547
1.491468071937561	8203338.626793142
1.4956470727920532	8063453.477411027
1.4998208284378052	8682401.093552152
1.5039892196655273	9696499.093707275
1.5081522464752197	9975844.632384246
1.5123097896575928	10402450.463524908
1.5164618492126465	11663957.528241247
1.5206083059310913	13396874.235564005
1.5247491598129272	14655414.494251383
1.5288842916488647	14913969.866746364
1.5330137014389038	15335732.956977418
1.5371372699737549	16108825.45926917
1.541254997253418	16481579.010668922
1.545366883277893	16872372.05842375
1.5494728088378906	17498804.58756577
1.5535727739334106	17855071.438138228
1.5576666593551636	17813750.100680858
1.561754584312439	18094058.881004218
1.5658363103866577	18944610.817544185
1.5699119567871094	19442347.95506061
1.5739814043045044	18975393.56742632
1.5780447721481323	18150404.8345536
1.582101821899414	18536501.165355686
1.5861525535583496	19919902.158737734
1.5901970863342285	20506126.50410991
1.5942351818084717	20159375.33348839
1.5982669591903687	19587400.786296718
1.6022924184799194	19278525.294498686
1.606311559677124	19327576.314844042
1.6103241443634033	19185299.093919665
1.6143304109573364	18613023.971782167
1.6183301210403442	17826726.533708736
1.6223233938217163	16900386.258352213
1.6263102293014526	15844388.935505483
1.6302905082702637	14890905.632135099
1.634264349937439	15659405.255913507
1.638231635093689	18287313.753876857
1.6421923637390137	19609890.539050754
1.646146535873413	18275616.46502493
1.6500942707061768	16801464.742623907
1.6540353298187256	17426046.259085327
1.6579699516296387	18480404.20183829
1.661897897720337	17369503.99492846
1.6658192873001099	13827234.33950218
1.6697341203689575	12195717.389647504
1.6736423969268799	14714289.455441453
1.677544116973877	16439492.917387707
1.6814392805099487	16030852.020004742
1.6853278875350952	15534584.351591254
1.6892099380493164	14682123.42537406
1.6930854320526123	12913967.430300025
1.696954369544983	10996702.87091683
1.7008168697357178	10547537.646420633
1.7046726942062378	11339028.260519532
1.708522081375122	12434959.995053815
1.712364912033081	13460000.72064742
1.7162011861801147	14530013.785198322
1.7200311422348022	15622743.572580427
1.723854422569275	15866706.45429221
1.7276713848114014	15267828.006238049
1.731481909751892	14249340.68833676
1.7352858781814575	13197684.771546219
1.7390835285186768	12651219.676280623
1.7428747415542603	12133892.167509772
1.7466596364974976	11093144.65873913
1.7504380941390991	9785535.04985626
1.7542102336883545	9096015.188004429
1.7579760551452637	10554820.345460821
1.7617355585098267	12214006.459203659
1.7654887437820435	11032784.520381963
1.7692357301712036	8131131.409958186
1.7729763984680176	5273976.412823331
1.776710867881775	3062070.820052134
1.7804391384124756	2266127.528230843
1.7841613292694092	2343993.1024284638
1.7878772020339966	2083836.139258043
1.7915871143341064	2282200.2091487143
1.7952908277511597	3474455.8942200816
1.7989884614944458	4014966.8010795987
1.8026801347732544	2626129.5868426356
1.806365728378296	1058361.535759836
1.8100452423095703	1055618.7718183764
1.8137187957763672	1414012.3010373465
1.817386507987976	1173815.6837443449
1.8210482597351074	1388959.9546388374
1.8247040510177612	1538670.096207671
1.828354001045227	820472.4805433344
1.8319982290267944	547300.7224013197
1.8356364965438843	1107390.9161852526
1.8392690420150757	1706701.187478412
1.8428958654403687	1714064.0507058252
1.8465168476104736	1699603.4921673539
1.8501322269439697	2013313.2193972655
1.8537418842315674	1670481.9161680732
1.8573459386825562	1045026.724765389
1.860944390296936	796934.8180728708
1.864537239074707	523588.80092474766
1.8681244850158691	500189.4485294377
1.871706247329712	990136.4538542719
1.8752825260162354	1822470.4052233717
1.8788533210754395	3273501.0275823367
1.8824186325073242	4411869.351782969
1.8859784603118896	4008816.40673908
1.8895330429077148	3572359.5033060466
1.8930821418762207	4611274.94070231
1.8966259956359863	4629517.979152377
1.9001644849777222	2251186.8278147704
1.9036977291107178	610002.761841123
1.9072256088256836	602015.8320883553
1.9107483625411987	594068.0914389716
1.9142658710479736	326809.562272954
1.9177782535552979	313527.430762955
1.9212853908538818	492215.42694674234
1.9247875213623047	513326.99353657686
1.9282845258712769	549038.3509391136
1.9317764043807983	785759.5964550874
1.9352631568908691	925803.9042662606
1.9387450218200684	939598.6819216327
1.942221760749817	1156628.4503462214
1.9456936120986938	1457383.1176048168
1.9491604566574097	1816960.7796839152
1.952622413635254	1797210.581443961
1.956079363822937	1307899.6145816823
1.959531545639038	1180102.5420663315
1.962978720664978	1353506.5250385436
1.966421127319336	1957556.6538206874
1.9698586463928223	3085178.5403246894
1.9732913970947266	3702453.754743582
1.9767193794250488	4087207.7729506996
1.9801424741744995	5060275.833597205
1.9835609197616577	6094573.097689566
1.9869745969772339	6219659.096256485
1.990383505821228	5292641.05113276
1.9937876462936401	5024996.49750051
1.9971871376037598	5263021.182573068
2.000581979751587	5838632.562731357
2.003972291946411	7606433.762952286
2.007357597351074	9266353.995096968
2.0107386112213135	10784908.14139677
2.0141148567199707	11187069.118924128
2.017486572265625	9959769.44895982
2.0208535194396973	10404494.87058743
2.0242159366607666	12442891.191972604
2.027573823928833	13685226.57521594
2.0309269428253174	14636454.574979784
2.034275770187378	15875953.313516777
2.0376198291778564	16931181.58368744
2.040959596633911	18027715.718710974
2.044294595718384	19488603.650363486
2.0476250648498535	20915006.9169196
2.0509510040283203	21080189.082914
2.054272413253784	20222235.970970698
2.057589530944824	20443376.94387188
2.0609018802642822	21614985.35293075
2.0642096996307373	22556909.176615365
2.0675129890441895	23162684.945472967
2.0708119869232178	23418680.280944433
2.074106216430664	23235609.793785088
2.0773961544036865	23039628.02398399
2.080681324005127	23260293.791811634
2.0839622020721436	23525242.60915781
2.087238311767578	23656142.262965105
2.090510129928589	23588756.426488042
2.0937774181365967	23252379.165073477
2.0970399379730225	23070536.822345015
2.1002981662750244	22995801.58999489
2.1035518646240234	22707248.51725256
2.1068007946014404	22355342.151076525
2.1100454330444336	22392608.687548812
2.1132853031158447	22484343.155771695
2.116520881652832	21960223.123408046
2.1197516918182373	21413175.84008379
2.1229779720306396	21379049.56958161
2.12619948387146	21552597.30190334
2.1294167041778564	21609529.09643432
2.132629156112671	21567604.956832465
2.1358368396759033	21109723.31384685
2.139039993286133	20229101.068406034
2.1422386169433594	19321023.339540206
2.145432472229004	18479237.738486473
2.1486217975616455	17879798.050046653
2.151806354522705	17265059.920788642
2.1549863815307617	17179325.195803244
2.1581614017486572	17304681.12742105
2.16133189201355	16558230.54485827
2.1644976139068604	15868005.832376229
2.167658567428589	15762974.239358416
2.1708147525787354	15956017.497150015
2.173966407775879	16089168.760633018
2.1771130561828613	15834768.686459415
2.1802549362182617	15194372.057818398
2.183391809463501	14241736.358094042
2.1865241527557373	13165355.20753203
2.1896514892578125	11896594.668648575
2.1927738189697266	9827674.841329686
2.1958916187286377	6988422.898394928
2.1990041732788086	4653672.164518132
2.2021119594573975	3580358.2438661233
2.2052149772644043	3385502.8229131643
2.208312749862671	3667404.6507157953
2.2114057540893555	4276849.314554405
2.214493751525879	4788449.139153183
2.217576742172241	4718103.166256039
2.2206547260284424	4410484.48209382
2.2237277030944824	4197836.016954013
2.2267956733703613	3648571.093912666
2.2298583984375	2864277.143861979
2.2329163551330566	2375166.67300512
2.235969066619873	2225092.531989285
2.2390167713165283	2104894.291419709
2.2420592308044434	1787539.351471382
2.2450966835021973	1457600.614857477
2.248128890991211	1531714.791146539
2.2511560916900635	1873491.7708260342
2.254178285598755	2057248.7404716923
2.257194995880127	2193560.6817781525
2.260206699371338	2215119.967221251
2.2632133960723877	1885149.3406134627
2.266214609146118	1513081.9535628296
2.2692108154296875	1419173.7173156042
2.2722020149230957	1623685.3796763916
2.2751877307891846	1870232.8993979418
2.278168201446533	1861931.413434637
2.2811436653137207	1684808.6078820054
2.284113883972168	1551275.096733774
2.287078857421875	1432964.5020829241
2.290038824081421	1313852.187895952
2.2929933071136475	1310159.675686654
2.295942783355713	1409627.7460683337
2.298887014389038	1519201.0762398646
2.301826238632202	1692294.475040357
2.304760217666626	2153720.200003672
2.3076889514923096	2950303.519039149
2.310612440109253	3632436.7765907384
2.3135311603546143	3406512.6055253185
2.3164443969726562	2196057.9031165093
2.319352865219116	1185137.2114729898
2.322256088256836	976465.0357234504
2.3251543045043945	1016664.4812922116
2.328047275543213	998881.4054222261
2.330935478210449	993516.9565017922
2.3338186740875244	991220.4037179622
2.3366971015930176	959617.8446616221
2.3395702838897705	925159.9088758158
2.3424389362335205	863359.8141237573
2.3453025817871094	768706.1826526078
2.348161458969116	733034.2925296328
2.351015567779541	868573.1253743583
2.353865146636963	1156597.5027909258
2.3567099571228027	1421622.9098647083
2.3595502376556396	1623483.396227048
2.3623859882354736	1801232.3310062857
2.3652172088623047	1716218.8522170633
2.368043899536133	1233140.7332769097
2.370866537094116	741302.085377991
2.3736846446990967	621571.0103572191
2.3764986991882324	734263.0647827811
2.3793084621429443	850074.9470627605
2.3821144104003906	991116.6907943567
2.384916305541992	1219405.075393234
2.387714147567749	1387168.7083764228
2.3905084133148193	1342712.9817651692
2.393299102783203	1269925.730736813
2.3960859775543213	1320340.1279429311
2.398869514465332	1428374.6570326018
2.4016497135162354	1441124.216006154
2.4044265747070312	1396936.209529271
2.407200336456299	1589012.4745315746
2.409970998764038	2001915.1377781697
2.4127390384674072	2273565.9388334616
2.415503978729248	2378893.3518345477
2.418266534805298	2659158.8031660696
2.4210267066955566	2937424.582160236
2.4237842559814453	2691984.4561566506
2.426539897918701	2303347.292930057
2.429293394088745	2534206.3299602037
2.4320452213287354	3102953.05810297
2.4347951412200928	3286818.8886842183
2.4375438690185547	3159980.262158447
2.440291166305542	3142116.11881766
2.443037271499634	3080727.8857919755
2.445782423019409	2688271.147396724
2.4485268592834473	2182954.822068561
2.451270818710327	2064495.2668447813
2.454014539718628	2515494.987549526
2.4567582607269287	2947221.982603129
2.4595019817352295	2956889.3628814146
2.4622461795806885	3137024.748896193
2.4649908542633057	3208275.882132099
2.4677364826202393	2543664.847582768
2.4704833030700684	1757531.5847799936
2.473231554031372	1290359.2623375622
2.4759814739227295	1023651.1648361372
2.4787333011627197	921437.320490804
