#wavelength	surface flux
0.6450077295303345	1877.9076617062874
0.6472567915916443	2923.9579501773323
0.6494921445846558	3759.9200132173146
0.6517150402069092	4261.398993816022
0.6539263725280762	4760.369366104593
0.6561272740364075	5274.517483843409
0.6583186388015747	5814.879345854182
0.6605015397071838	6396.844746277903
0.6626768708229065	7028.627771926075
0.6648455858230591	7707.563067197618
0.6670085787773132	8325.260644809594
0.6691668033599854	8637.048904080424
0.6713210344314575	9116.592490738643
0.6734722256660461	10321.02601724015
0.6756211519241333	11615.362721587759
0.6777685880661011	12604.486151465308
0.6799154281616211	13539.514494874398
0.6820623278617859	14486.858584477079
0.6842101216316223	15450.677902692092
0.6863595843315125	16422.254524791962
0.688511312007904	17354.670702123167
0.6906660795211792	18109.006126425043
0.6928245425224304	18722.195039817198
0.6949873566627502	19617.65657340905
0.6971551775932312	20729.57306316671
0.6993286609649658	21660.279462124257
0.7015084028244019	22507.094382828094
0.7036949396133423	23289.847284905318
0.7058889269828796	23879.49063554415
0.7080909013748169	24303.596496489492
0.710301399230957	24676.117015561696
0.712520956993103	24946.04154863629
0.7147500514984131	24848.955951735556
0.7169892191886902	24375.387549087074
0.7192389369010925	23766.23237128615
0.7214996814727783	22976.694548635227
0.723771870136261	21782.917810103205
0.7260559797286987	20361.587224933584
0.7283523678779602	18966.271507817757
0.7306615710258484	18152.012159998252
0.7329838871955872	18003.654071152054
0.7353196740150452	17301.716993019705
0.7376693487167358	15874.04469175303
0.7400332689285278	14349.249347432778
0.7424117922782898	12819.40247343919
0.7448052167892456	11397.752567134465
0.7472138404846191	10021.697857422696
0.7496379613876343	8610.621541570927
0.7520779371261597	7222.432872895992
0.7545340061187744	5873.871576987032
0.7570064663887024	4577.861851925602
0.7594954967498779	3342.146209849846
0.7620013952255249	2161.7941087243735
0.7645244002342224	1125.638735201743
0.7670646905899048	505.05374000433443
0.7696225643157959	535.0171366831041
0.7721980810165405	1366.6329243557393
0.7747915983200073	2909.9170669778305
0.7774031162261963	4711.2478869392435
0.7800329327583313	6746.830480212044
0.7826811671257019	9606.942474139665
0.7853479981422424	13258.21779631877
0.7880334854125977	17229.6128817781
0.7907378077507019	20086.410393041468
0.7934610247612	20809.33212916096
0.7962033748626709	25833.161596369806
0.7989648580551147	37449.73273332467
0.801745593547821	48637.70051549173
0.8045456409454346	58130.87106317349
0.8073651194572449	67422.95550577386
0.8102040886878967	76039.76396730942
0.8130625486373901	86729.99117153988
0.8159406185150146	102082.7764909819
0.8188382983207703	120745.20763067443
0.8217556476593018	141242.03667112457
0.8246926665306091	161578.77777139764
0.8276493549346924	180305.68220694558
0.8306257724761963	201903.35058189937
0.8336219191551208	230253.96106044797
0.8366377949714661	259351.14969388975
0.8396733403205872	288224.93849003006
0.8427285552024841	322803.0090430321
0.8458034992218018	360355.99777084903
0.8488980531692505	380849.5611429177
0.8520121574401855	394408.5374263639
0.8551458716392517	458450.7953715946
0.8582990765571594	552381.9130166062
0.8614717125892639	623942.4444301109
0.8646637797355652	688226.5456366569
0.8678751587867737	762328.1583280112
0.8711057901382446	844691.438519807
0.8743556141853333	927464.082259442
0.87762451171875	1001842.296481749
0.8809124231338501	1056979.1957179643
0.8842192888259888	1098891.509356807
0.8875449895858765	1132138.5321956798
0.8908893465995789	1088155.1577876578
0.894252359867096	977720.7245372457
0.8976338505744934	1092517.218062663
0.9010337591171265	1499622.8141681382
0.9044519662857056	1883683.890536526
0.9078882932662964	2105656.1099936655
0.9113426208496094	2209231.038067306
0.914814829826355	2231659.287922637
0.9183048605918884	2288086.7752539874
0.9218124747276306	2265156.4591168705
0.925337553024292	1778693.6511520287
0.9288799166679382	1176018.9347926015
0.9324395060539246	1014354.7727688022
0.9360161423683167	1137097.0859242626
0.9396095871925354	1262274.1823974398
0.943219780921936	1216069.129933212
0.9468464851379395	985410.8159742556
0.9504896402359009	1098086.4598845104
0.9541489481925964	1696845.0088568656
0.9578243494033813	1889450.1579168467
0.9615156054496765	1423114.1257626987
0.9652225375175476	1094588.6722549775
0.9689450263977051	1628441.2354542206
0.9726828336715698	2673432.9199454607
0.9764357805252075	3226269.3493338153
0.9802037477493286	3538837.157095865
0.983986496925354	4261854.908457603
0.9877838492393494	5042243.346116505
0.9915955662727356	5638556.8058500625
0.9954215884208679	6160593.780916119
0.9992615580558777	6441948.228211526
1.0031154155731201	6616603.050414388
1.0069829225540161	7207577.9913445385
1.0108637809753418	8185673.338077886
1.0147579908370972	9171295.43866953
1.018665075302124	9884875.912817612
1.022585153579712	10221707.823066533
1.0265177488327026	10528287.74985806
1.0304628610610962	11118767.156378841
1.0344202518463135	11812385.882070191
1.0383895635604858	12369594.162414292
1.0423706769943237	12759907.247410651
1.0463634729385376	12925078.292280985
1.0503677129745483	13068512.29079961
1.0543830394744873	13542860.75885594
1.058409333229065	14112211.743215222
1.0624464750289917	14424641.115663365
1.0664942264556885	14321070.690700546
1.0705522298812866	14015267.876225138
1.0746204853057861	13927587.003804144
1.0786986351013184	13830275.619720567
1.0827864408493042	13751650.78908925
1.086883783340454	13064790.21488345
1.0909905433654785	10853144.932748683
1.0951062440872192	8280428.219503897
1.0992310047149658	5614246.600986113
1.10336434841156	2805723.7437233026
1.1075061559677124	1459022.615948537
1.1116561889648438	1142599.9816062502
1.115814208984375	762387.0448707157
1.1199802160263062	628158.6626290306
1.124153733253479	682297.5799435688
1.1283347606658936	607195.6278530197
1.1325229406356812	528371.4257370027
1.1367181539535522	974588.9855150067
1.1409201622009277	1772982.067112413
1.145128846168518	2087318.39388064
1.1493438482284546	1624369.3747468414
1.1535650491714478	849138.8520755052
1.1577922105789185	498651.19035523693
1.1620250940322876	670340.4843417456
1.1662636995315552	1230774.30774163
1.170507550239563	2067043.4418569056
1.174756646156311	3270341.871889763
1.1790107488632202	4835879.796870367
1.1832695007324219	5652507.583155439
1.1875330209732056	5681052.281232452
1.191800832748413	7437583.156287814
1.1960728168487549	10714284.640372857
1.2003488540649414	12850943.687896222
1.2046287059783936	13927355.924481973
1.2089121341705322	14547872.271108883
1.2131990194320679	15242584.708153533
1.2174891233444214	16773898.074081276
1.2217823266983032	18354682.92398733
1.2260783910751343	19618125.663049165
1.230377197265625	20910510.58215154
1.2346785068511963	21963513.24459994
1.238982081413269	22786067.89675516
1.2432878017425537	23689070.87283136
1.2475954294204712	24529898.80208497
1.2519049644470215	25223757.170787875
1.256216049194336	26503180.886800785
1.2605286836624146	27226672.448178593
1.2648425102233887	26594609.25422202
1.2691574096679688	26720599.93605243
1.2734732627868652	27864393.446784522
1.2777899503707886	27264994.27488554
1.2821072340011597	24941823.290948592
1.2864248752593994	23834409.926068116
1.2907428741455078	23437560.898127172
1.2950609922409058	22327272.713476803
1.2993791103363037	18853450.04095579
1.303696870803833	15526754.960605148
1.3080145120620728	14816361.212988205
1.3123314380645752	15219586.19132198
1.3166478872299194	16611331.19052313
1.3209635019302368	15180429.896950142
1.3252781629562378	10971792.26653342
1.3295916318893433	6898481.099498439
1.3339040279388428	2969195.69107956
1.3382149934768677	726824.748884117
1.3425244092941284	228469.25290161677
1.3468321561813354	130950.66062255776
1.3511382341384888	89100.48047753553
1.3554422855377197	57256.611139406734
1.3597444295883179	61631.631734089206
1.3640443086624146	88877.43740387303
1.3683418035507202	84243.20263079907
1.3726370334625244	63217.92925500678
1.3769296407699585	73261.38707879424
1.381219506263733	70501.36945453903
1.3855066299438477	42330.01087502581
1.3897908926010132	53496.22412717046
1.3940720558166504	94784.90330654157
1.3983501195907593	88993.67751260244
1.4026249647140503	77326.00676141032
1.4068963527679443	90162.89262869352
1.4111642837524414	75469.17480890776
1.4154287576675415	59931.083887488014
1.419689416885376	59921.23046769377
1.4239463806152344	61129.48885236513
1.4281994104385376	47528.68448094945
1.4324485063552856	40297.53812121474
1.436693549156189	92518.51140400104
1.440934419631958	240376.30017673748
1.4451709985733032	548732.4168383796
1.449403166770935	933258.6336770592
1.453631043434143	1020472.5070822361
1.4578542709350586	980468.4452148775
1.4620729684829712	1243100.081260495
1.4662868976593018	1405263.1043563578
1.4704961776733398	868706.4409059817
1.4747005701065063	266386.60900836904
1.4788999557495117	306604.27227521705
1.4830944538116455	580417.2511590581
1.4872838258743286	593394.8200125622
1.491468071937561	383540.3474687219
1.4956470727920532	501882.69441377313
1.4998208284378052	1240895.7785366245
1.5039892196655273	1726060.848321186
1.5081522464752197	1334622.3605026917
1.5123097896575928	988365.1085421032
1.5164618492126465	1359546.7575569537
1.5206083059310913	2342576.5918063973
1.5247491598129272	3588539.437078065
1.5288842916488647	4388365.357860561
1.5330137014389038	4450287.296266226
1.5371372699737549	4635118.967974587
1.541254997253418	5164603.298606081
1.545366883277893	5463092.971095925
1.5494728088378906	5958620.07206376
1.5535727739334106	7485984.881482928
1.5576666593551636	9458983.472522043
1.561754584312439	11330591.715658959
1.5658363103866577	13061644.329209512
1.5699119567871094	13849571.404827448
1.5739814043045044	13639277.964792814
1.5780447721481323	13593170.96983846
1.582101821899414	14227326.49114188
1.5861525535583496	14829460.800648743
1.5901970863342285	14595654.358971631
1.5942351818084717	13394496.488928294
1.5982669591903687	12271556.496909745
1.6022924184799194	11445225.342311608
1.606311559677124	10515021.786388963
1.6103241443634033	10017645.01396391
1.6143304109573364	9051810.789572103
1.6183301210403442	7319963.559244504
1.6223233938217163	6008515.289199553
1.6263102293014526	5240753.560001444
1.6302905082702637	5424304.579307727
1.634264349937439	6760829.425756332
1.638231635093689	8197264.205485998
1.6421923637390137	8264434.083193785
1.646146535873413	6141455.346828999
1.6500942707061768	4378159.736668422
1.6540353298187256	4883632.750008226
1.6579699516296387	5561841.1572416695
1.661897897720337	5205377.312381363
1.6658192873001099	3575334.874982378
1.6697341203689575	2105552.4199747653
1.6736423969268799	2264106.0917685283
1.677544116973877	2490626.535443621
1.6814392805099487	2283602.268671432
1.6853278875350952	2011561.0813594537
1.6892099380493164	1653156.617682498
1.6930854320526123	1444828.2185755058
1.696954369544983	1173327.107750268
1.7008168697357178	914262.7472680367
1.7046726942062378	876366.9576467519
1.708522081375122	1156956.8077904636
1.712364912033081	1501009.6102056727
1.7162011861801147	1709517.516545677
1.7200311422348022	2037498.888336077
1.723854422569275	2041720.3829482093
1.7276713848114014	1612665.8305278718
1.731481909751892	1355787.854152883
1.7352858781814575	1304415.2627597281
1.7390835285186768	1431907.5497861318
1.7428747415542603	1600308.929658443
1.7466596364974976	1382090.9980371667
1.7504380941390991	1049277.7546838236
1.7542102336883545	1182176.3084014952
1.7579760551452637	1575342.199683147
1.7617355585098267	1664951.7638901796
1.7654887437820435	1394178.9205568247
1.7692357301712036	951331.0838318086
1.7729763984680176	540340.9963134602
1.776710867881775	332605.40941049135
1.7804391384124756	320306.885849179
1.7841613292694092	346810.44481505826
1.7878772020339966	378053.31776858494
1.7915871143341064	560051.2329305193
1.7952908277511597	672704.8862090664
1.7989884614944458	538716.5132568491
1.8026801347732544	364578.85178350564
1.806365728378296	304932.02190156456
1.8100452423095703	283416.1338781659
1.8137187957763672	206631.1519331186
1.817386507987976	119343.04879210283
1.8210482597351074	201212.85353741536
1.8247040510177612	410570.0789225427
1.828354001045227	415284.61111807375
1.8319982290267944	234778.45200534162
1.8356364965438843	207816.49768599798
1.8392690420150757	398170.68986426137
1.8428958654403687	582583.8858001549
1.8465168476104736	561184.7639395241
1.8501322269439697	382562.2374344985
1.8537418842315674	287997.5152129797
1.8573459386825562	337463.92838138994
1.860944390296936	275974.6513860436
1.864537239074707	108285.88718529436
1.8681244850158691	36707.81387751298
1.871706247329712	65909.50159736277
1.8752825260162354	165568.37634857243
1.8788533210754395	281821.98499435437
1.8824186325073242	403994.408083339
1.8859784603118896	628344.5678309675
1.8895330429077148	799050.118022549
1.8930821418762207	604801.417849792
1.8966259956359863	324578.70230244787
1.9001644849777222	250012.93982050242
1.9036977291107178	208222.80364190566
1.9072256088256836	281091.04658085987
1.9107483625411987	388968.70245191915
1.9142658710479736	244378.16396805889
1.9177782535552979	88284.39887530901
1.9212853908538818	64998.956377642426
1.9247875213623047	38108.0373504541
1.9282845258712769	32110.186799753512
1.9317764043807983	76799.83349231529
1.9352631568908691	141193.17211561883
1.9387450218200684	150352.43543127162
1.942221760749817	112090.265365987
1.9456936120986938	85013.17885614687
1.9491604566574097	68633.35996647365
1.952622413635254	52375.52361146492
1.956079363822937	61954.08746172693
1.959531545639038	162335.21064194877
1.962978720664978	241351.8776636351
1.966421127319336	186553.47050267525
1.9698586463928223	122881.54613050236
1.9732913970947266	127336.77268796801
1.9767193794250488	176701.01117646412
1.9801424741744995	279816.15337802615
1.9835609197616577	347252.8934691514
1.9869745969772339	391516.1830655677
1.990383505821228	524922.3122063403
1.9937876462936401	610857.7696168402
1.9971871376037598	445032.0254537115
2.000581979751587	232676.19637489764
2.003972291946411	320592.62721051875
2.007357597351074	655291.1098097615
2.0107386112213135	945794.3387897456
2.0141148567199707	986064.8548179889
2.017486572265625	754311.8357561326
2.0208535194396973	403795.43832664815
2.0242159366607666	196066.64975978577
2.027573823928833	231002.23698406838
2.0309269428253174	366315.4089337668
2.034275770187378	708839.4533245551
2.0376198291778564	1287153.0041586065
2.040959596633911	1626965.193118945
2.044294595718384	1692433.8809993814
2.0476250648498535	1661166.9904643083
2.0509510040283203	1523664.6065435503
2.054272413253784	1487318.4712082793
2.057589530944824	1634669.1180005895
2.0609018802642822	1813889.5691896314
2.0642096996307373	1910998.710090542
2.0675129890441895	1906052.494844004
2.0708119869232178	1828441.6995417115
2.074106216430664	1770072.3909250363
2.0773961544036865	1803755.2050008595
2.080681324005127	1855628.7194057875
2.0839622020721436	1853960.693304289
2.087238311767578	1832417.5625736257
2.090510129928589	1821505.489846752
2.0937774181365967	1813643.2422511752
2.0970399379730225	1781054.3686783162
2.1002981662750244	1710075.1989032426
2.1035518646240234	1661062.194341024
2.1068007946014404	1664115.1924838983
2.1100454330444336	1663519.09677323
2.1132853031158447	1616676.59044054
2.116520881652832	1515456.6482816376
2.1197516918182373	1407877.5026448953
2.1229779720306396	1336142.6950118677
2.12619948387146	1281392.870274959
2.1294167041778564	1259817.0909098056
2.132629156112671	1256479.5074969898
2.1358368396759033	1154385.2974163466
2.139039993286133	1023042.4678328524
2.1422386169433594	971758.6874278357
2.145432472229004	947820.7881171488
2.1486217975616455	899164.005327125
2.151806354522705	796075.3586009399
2.1549863815307617	770172.677881513
2.1581614017486572	851218.5703488961
2.16133189201355	887368.7608091512
2.1644976139068604	839350.8743677826
2.167658567428589	718051.4444173517
2.1708147525787354	653491.4742908479
2.173966407775879	749070.046752523
2.1771130561828613	878605.7082945682
2.1802549362182617	860267.3596299562
2.183391809463501	675330.0901416454
2.1865241527557373	484978.51820003154
2.1896514892578125	407952.20858558937
2.1927738189697266	360086.33396962937
2.1958916187286377	239726.42831340604
2.1990041732788086	120147.57719502562
2.2021119594573975	72612.09842721428
2.2052149772644043	89748.49557035757
2.208312749862671	153975.2561216034
2.2114057540893555	232236.75260433267
2.214493751525879	274976.1834887272
2.217576742172241	218708.89300833657
2.2206547260284424	108032.2396462021
2.2237277030944824	49159.591679715304
2.2267956733703613	40906.58159179462
2.2298583984375	45562.38778733499
2.2329163551330566	48935.37092274062
2.235969066619873	52808.63787720683
2.2390167713165283	52563.72258401983
2.2420592308044434	43176.41106247863
2.2450966835021973	33385.16950941864
2.248128890991211	31107.004693294246
2.2511560916900635	36404.551283619854
2.254178285598755	47766.85818934158
2.257194995880127	64200.47698611999
2.260206699371338	60812.026585576285
2.2632133960723877	33335.70327207627
2.266214609146118	28795.088086426735
2.2692108154296875	72366.16571014545
2.2722020149230957	114621.96335755015
2.2751877307891846	100942.90266333206
2.278168201446533	67858.67335767568
2.2811436653137207	67584.10617531397
2.284113883972168	76455.27885034001
2.287078857421875	58922.26908086893
2.290038824081421	35400.96880040899
2.2929933071136475	29354.22818826621
2.295942783355713	27120.78619372803
2.298887014389038	18676.839352929986
2.301826238632202	16192.795170891028
2.304760217666626	45601.68897192226
2.3076889514923096	111771.68538393526
2.310612440109253	182732.29730700515
2.3135311603546143	230048.90438547157
2.3164443969726562	208014.85021770783
2.319352865219116	109410.42328447415
2.322256088256836	36140.49519330861
2.3251543045043945	25917.434792887238
2.328047275543213	25805.170753602255
2.330935478210449	20902.9162122689
2.3338186740875244	16116.510558215672
2.3366971015930176	11785.10207349651
2.3395702838897705	8596.068312314095
2.3424389362335205	6322.91022059197
2.3453025817871094	4726.060136064584
2.348161458969116	5390.281556311227
2.351015567779541	16072.655846771513
2.353865146636963	48837.12454601802
2.3567099571228027	97062.98531081848
2.3595502376556396	135976.73850772204
2.3623859882354736	135659.24005609108
2.3652172088623047	85284.78178237344
2.368043899536133	30402.46975240147
2.370866537094116	8431.26762158501
2.3736846446990967	6395.768138155327
2.3764986991882324	7826.277958967987
2.3793084621429443	10732.465687823675
2.3821144104003906	20409.04835450784
2.384916305541992	34631.010238249706
2.387714147567749	39262.457604306845
2.3905084133148193	30883.944268023366
2.393299102783203	23285.493209286902
2.3960859775543213	19592.31335996002
2.398869514465332	20529.509359206142
2.4016497135162354	38176.74291328966
2.4044265747070312	79084.38668674303
2.407200336456299	116519.9957328108
2.409970998764038	117356.30500545043
2.4127390384674072	98535.84678750907
2.415503978729248	98187.63121453703
2.418266534805298	122777.22104761527
2.4210267066955566	142683.75424992398
2.4237842559814453	131761.94387115512
2.426539897918701	122009.24746795895
2.429293394088745	158958.61790001683
2.4320452213287354	204204.24210981585
2.4347951412200928	202228.6181732902
2.4375438690185547	195296.76726237114
2.440291166305542	226565.58079997977
2.443037271499634	238123.0727183669
2.445782423019409	205171.4325957893
2.4485268592834473	191941.94009801134
2.451270818710327	243319.23132031693
2.454014539718628	321581.0277148775
2.4567582607269287	359700.1326168933
2.4595019817352295	375120.275822885
2.4622461795806885	424557.0251813959
2.4649908542633057	497019.7905009929
2.4677364826202393	520004.21835471486
2.4704833030700684	446094.687148052
2.473231554031372	317119.5093070564
2.4759814739227295	208193.68415410316
2.4787333011627197	141496.8361181799
