#wavelength	surface flux
0.6450077295303345	169464.8576968225
0.6472567915916443	257412.3576264797
0.6494921445846558	314549.988385057
0.6517150402069092	334281.35556665977
0.6539263725280762	351563.09928088466
0.6561272740364075	368537.57766480645
0.6583186388015747	385608.4525293662
0.6605015397071838	402867.88099027803
0.6626768708229065	419742.82858171774
0.6648455858230591	434933.4345605488
0.6670085787773132	435122.2222078948
0.6691668033599854	397533.4776092967
0.6713210344314575	379706.0356245346
0.6734722256660461	442285.87437158445
0.6756211519241333	512943.42085083405
0.6777685880661011	545325.22271764
0.6799154281616211	566375.7712952157
0.6820623278617859	586244.1449668076
0.6842101216316223	606402.4911948947
0.6863595843315125	626171.6718232927
0.688511312007904	644617.213995977
0.6906660795211792	660319.5072919113
0.6928245425224304	676631.7208002587
0.6949873566627502	698834.2566163274
0.6971551775932312	722635.9021674764
0.6993286609649658	743157.3201777416
0.7015084028244019	761992.4390993437
0.7036949396133423	781710.0412059693
0.7058889269828796	802357.8519827335
0.7080909013748169	821771.3353442529
0.710301399230957	840528.8934602598
0.712520956993103	858903.5848353304
0.7147500514984131	873173.5243242282
0.7169892191886902	883872.701854839
0.7192389369010925	897922.6060167202
0.7214996814727783	913202.2655798434
0.723771870136261	923822.927649714
0.7260559797286987	931607.9442518563
0.7283523678779602	937615.744830418
0.7306615710258484	942384.908926821
0.7329838871955872	946434.634476167
0.7353196740150452	945463.7036184738
0.7376693487167358	937452.1566894042
0.7400332689285278	921305.4646352902
0.7424117922782898	892992.4898683348
0.7448052167892456	851890.4112602974
0.7472138404846191	795750.8785253734
0.7496379613876343	720320.9544160258
0.7520779371261597	623837.8063174712
0.7545340061187744	507031.1625781652
0.7570064663887024	375535.38167134434
0.7594954967498779	241852.24603122272
0.7620013952255249	124832.10050761294
0.7645244002342224	45249.01783206177
0.7670646905899048	10835.873521371705
0.7696225643157959	12789.97512074062
0.7721980810165405	58313.369743722316
0.7747915983200073	163393.6711712192
0.7774031162261963	302653.1192760289
0.7800329327583313	463889.5645298546
0.7826811671257019	683497.2631658767
0.7853479981422424	924381.7422964214
0.7880334854125977	1121040.360737143
0.7907378077507019	1190266.960007599
0.7934610247612	1084376.7057904296
0.7962033748626709	1184151.756655875
0.7989648580551147	1578360.6373514885
0.801745593547821	1854502.7079148104
0.8045456409454346	1981660.0515533981
0.8073651194572449	2081794.6564580505
0.8102040886878967	2161814.2475467157
0.8130625486373901	2244734.350609417
0.8159406185150146	2347707.9975972497
0.8188382983207703	2449892.326423269
0.8217556476593018	2545233.8392887805
0.8246926665306091	2644393.014387955
0.8276493549346924	2737586.2117161965
0.8306257724761963	2820689.7863119254
0.8336219191551208	2904178.3044270077
0.8366377949714661	2985941.5500021796
0.8396733403205872	3079890.8362404113
0.8427285552024841	3197368.040587583
0.8458034992218018	3308247.4858665317
0.8488980531692505	3383315.979956368
0.8520121574401855	3449630.866456925
0.8551458716392517	3569939.7706818525
0.8582990765571594	3696636.84662903
0.8614717125892639	3751708.2395115863
0.8646637797355652	3807043.883106298
0.8678751587867737	3922673.034027545
0.8711057901382446	4047241.1650665514
0.8743556141853333	4153487.0935272225
0.87762451171875	4245057.672535222
0.8809124231338501	4328970.862994235
0.8842192888259888	4424640.7089171065
0.8875449895858765	4503742.174761922
0.8908893465995789	4517914.929095806
0.894252359867096	4542583.620877389
0.8976338505744934	4703670.188417106
0.9010337591171265	4938733.615562334
0.9044519662857056	5130142.822352296
0.9078882932662964	5275873.674541606
0.9113426208496094	5390783.767459264
0.914814829826355	5456219.612997406
0.9183048605918884	5528355.308414504
0.9218124747276306	5590362.687203686
0.925337553024292	5321987.860647311
0.9288799166679382	4767159.663742467
0.9324395060539246	4565702.50141744
0.9360161423683167	4858303.821315874
0.9396095871925354	5231978.941260668
0.943219780921936	5292151.5080803055
0.9468464851379395	5200095.405995607
0.9504896402359009	5351705.006415561
0.9541489481925964	5632939.369274525
0.9578243494033813	5698370.524619513
0.9615156054496765	5491888.144474304
0.9652225375175476	5429953.334002374
0.9689450263977051	5786600.918831575
0.9726828336715698	6426002.358509222
0.9764357805252075	6914752.958156217
0.9802037477493286	7178433.937811852
0.983986496925354	7433040.340456088
0.9877838492393494	7716641.474281877
0.9915955662727356	8026528.729452589
0.9954215884208679	8292515.315401457
0.9992615580558777	8495177.368899701
1.0031154155731201	8682678.685124787
1.0069829225540161	8917941.52435831
1.0108637809753418	9195811.484293712
1.0147579908370972	9473025.504341975
1.018665075302124	9702064.59997856
1.022585153579712	9841742.564071083
1.0265177488327026	9937503.50819675
1.0304628610610962	10111073.03586944
1.0344202518463135	10410152.742154418
1.0383895635604858	10699787.898604963
1.0423706769943237	10910537.424744317
1.0463634729385376	11087051.452823164
1.0503677129745483	11252922.407912632
1.0543830394744873	11456274.239688633
1.058409333229065	11680174.653211014
1.0624464750289917	11878343.527665054
1.0664942264556885	12053204.393060286
1.0705522298812866	12221888.02256955
1.0746204853057861	12412214.64443919
1.0786986351013184	12616267.788797878
1.0827864408493042	12799012.090911917
1.086883783340454	12885514.512618834
1.0909905433654785	12824025.272852411
1.0951062440872192	12555323.607295748
1.0992310047149658	11517667.689904738
1.10336434841156	9924341.470748838
1.1075061559677124	9298084.012070738
1.1116561889648438	9215449.579640793
1.115814208984375	8686274.988520866
1.1199802160263062	8311248.244126889
1.124153733253479	8584130.988429682
1.1283347606658936	8892538.99871382
1.1325229406356812	8408893.39698263
1.1367181539535522	8721540.807967214
1.1409201622009277	10215646.40513396
1.145128846168518	11090102.881307004
1.1493438482284546	10136869.43359036
1.1535650491714478	8003973.606396048
1.1577922105789185	7215776.533171119
1.1620250940322876	8219671.946692303
1.1662636995315552	9778750.714881182
1.170507550239563	10861700.985230383
1.174756646156311	11991116.075553732
1.1790107488632202	13663164.539761724
1.1832695007324219	14987406.102348482
1.1875330209732056	15723083.362255342
1.191800832748413	16380737.820254086
1.1960728168487549	17164383.733707126
1.2003488540649414	17694340.896735486
1.2046287059783936	17964716.717490703
1.2089121341705322	18233042.742837187
1.2131990194320679	18597172.86694692
1.2174891233444214	19044333.65799821
1.2217823266983032	19477560.80971944
1.2260783910751343	19843649.55077245
1.230377197265625	20144332.66236457
1.2346785068511963	20407193.13099946
1.238982081413269	20691666.60848951
1.2432878017425537	20952978.286327425
1.2475954294204712	21103630.8269261
1.2519049644470215	21202852.189837843
1.256216049194336	21494104.55010692
1.2605286836624146	21821942.142532986
1.2648425102233887	21980711.05746711
1.2691574096679688	22107257.464316938
1.2734732627868652	22265710.337257646
1.2777899503707886	22416562.643239502
1.2821072340011597	22497807.78397472
1.2864248752593994	22447530.565278567
1.2907428741455078	22263074.280742723
1.2950609922409058	22256638.37788519
1.2993791103363037	22300777.6984429
1.303696870803833	22107698.46612846
1.3080145120620728	22040009.09608057
1.3123314380645752	22277989.810592752
1.3166478872299194	22642296.640289526
1.3209635019302368	22243368.899532966
1.3252781629562378	20481423.70525574
1.3295916318893433	16922883.87198184
1.3339040279388428	11171478.85280213
1.3382149934768677	5489109.608724694
1.3425244092941284	2871293.0251459647
1.3468321561813354	2741739.523010826
1.3511382341384888	2339428.7695671385
1.3554422855377197	1607442.0947911167
1.3597444295883179	1440346.3326473832
1.3640443086624146	1594659.4211892507
1.3683418035507202	2113775.3627361557
1.3726370334625244	3659206.5772160115
1.3769296407699585	5284283.689197472
1.381219506263733	4199321.049881264
1.3855066299438477	1853751.7461637927
1.3897908926010132	1069627.099950085
1.3940720558166504	1238538.9175245725
1.3983501195907593	1634724.7728826718
1.4026249647140503	2723624.396422789
1.4068963527679443	3593868.3154351204
1.4111642837524414	2803915.3325246284
1.4154287576675415	2058030.1302238717
1.419689416885376	2048524.8502225883
1.4239463806152344	1984244.3681669636
1.4281994104385376	2478377.511300894
1.4324485063552856	2944667.2457883935
1.436693549156189	3039833.5903907893
1.440934419631958	3634791.079223586
1.4451709985733032	5252937.76356801
1.449403166770935	7733374.305479987
1.453631043434143	9432779.538988858
1.4578542709350586	10242815.961141009
1.4620729684829712	11206763.2037173
1.4662868976593018	11340066.989721678
1.4704961776733398	10553745.537508663
1.4747005701065063	10253221.660396595
1.4788999557495117	10925629.974961039
1.4830944538116455	12852767.96491952
1.4872838258743286	14930746.683569407
1.491468071937561	15513724.291547248
1.4956470727920532	15436830.92220276
1.4998208284378052	16565494.825116588
1.5039892196655273	18158508.764185734
1.5081522464752197	18515989.009125624
1.5123097896575928	18994049.28158424
1.5164618492126465	20714798.304160606
1.5206083059310913	23178784.529239748
1.5247491598129272	24931303.26197426
1.5288842916488647	25216301.515512075
1.5330137014389038	25770827.43112934
1.5371372699737549	26844245.81268833
1.541254997253418	27366788.898453392
1.545366883277893	27953587.789772995
1.5494728088378906	28860220.419021882
1.5535727739334106	29372632.623028696
1.5576666593551636	29382077.78658179
1.561754584312439	29827828.05416568
1.5658363103866577	30956903.03004192
1.5699119567871094	31609115.485481028
1.5739814043045044	31166386.03446035
1.5780447721481323	30420384.655112807
1.582101821899414	30978840.27207805
1.5861525535583496	32502185.274391923
1.5901970863342285	33145972.78444208
1.5942351818084717	32814777.325235497
1.5982669591903687	32284730.74589799
1.6022924184799194	32063027.838096607
1.606311559677124	32157779.38640431
1.6103241443634033	32046853.300193336
1.6143304109573364	31527298.55608123
1.6183301210403442	30782111.706051305
1.6223233938217163	29919941.95740427
1.6263102293014526	28918007.76458425
1.6302905082702637	27960042.910248697
1.634264349937439	28804581.625029508
1.638231635093689	31611699.04337692
1.6421923637390137	33064212.570979606
1.646146535873413	31790454.48615878
1.6500942707061768	30308375.16581276
1.6540353298187256	30901830.331134945
1.6579699516296387	31904645.644160975
1.661897897720337	30425190.0326107
1.6658192873001099	26020109.945623808
1.6697341203689575	24130354.95423063
1.6736423969268799	27501270.42227211
1.677544116973877	29921116.819674924
1.6814392805099487	29627913.539114106
1.6853278875350952	29080440.91601729
1.6892099380493164	27987690.841503054
1.6930854320526123	25608997.43466221
1.696954369544983	23103101.6423461
1.7008168697357178	22624750.515833113
1.7046726942062378	23614782.929184303
1.708522081375122	24800565.429749772
1.712364912033081	25817746.23348108
1.7162011861801147	26918835.359852463
1.7200311422348022	28113707.700442642
1.723854422569275	28312004.717638265
1.7276713848114014	27448787.110127755
1.731481909751892	25889097.619859867
1.7352858781814575	24200300.714626715
1.7390835285186768	23174723.987678282
1.7428747415542603	22133997.00693714
1.7466596364974976	20379788.62582085
1.7504380941390991	18235376.00372834
1.7542102336883545	17008641.28537894
1.7579760551452637	19276938.642709468
1.7617355585098267	22096015.077540163
1.7654887437820435	20363361.300872326
1.7692357301712036	15649296.435661796
1.7729763984680176	10855138.671392335
1.776710867881775	6903268.058430678
1.7804391384124756	5416967.277691252
1.7841613292694092	5588206.529935651
1.7878772020339966	5037479.155000632
1.7915871143341064	5330262.103086766
1.7952908277511597	7271703.935031693
1.7989884614944458	7914857.961336798
1.8026801347732544	5404479.055080615
1.806365728378296	2599135.3119337927
1.8100452423095703	2669895.975850626
1.8137187957763672	3500088.018842996
1.817386507987976	2957498.490586033
1.8210482597351074	3420935.539231264
1.8247040510177612	3803773.998470661
1.828354001045227	2227314.3316404894
1.8319982290267944	1708502.9556532193
1.8356364965438843	3078784.9956417023
1.8392690420150757	4471166.760170497
1.8428958654403687	4535493.793286986
1.8465168476104736	4379769.218450603
1.8501322269439697	4698258.239538063
1.8537418842315674	3740316.203882505
1.8573459386825562	2487148.350836319
1.860944390296936	2045163.6993603602
1.864537239074707	1513625.7333103966
1.8681244850158691	1651463.2269405148
1.871706247329712	2933567.6268973
1.8752825260162354	4640443.713443323
1.8788533210754395	7021270.981750377
1.8824186325073242	8781202.222937003
1.8859784603118896	8131800.456534309
1.8895330429077148	7517291.078829369
1.8930821418762207	9276047.332095472
1.8966259956359863	9183588.231509486
1.9001644849777222	4917175.594912856
1.9036977291107178	1955012.063943662
1.9072256088256836	2139948.364521879
1.9107483625411987	2113946.5563129312
1.9142658710479736	1220291.8827215123
1.9177782535552979	1116328.2193551967
1.9212853908538818	1638200.9119806362
1.9247875213623047	1685263.1746494728
1.9282845258712769	1760610.9129165236
1.9317764043807983	2376446.322268067
1.9352631568908691	2689621.294276518
1.9387450218200684	2584099.461174938
1.942221760749817	2908779.2858295785
1.9456936120986938	3451168.5743710347
1.9491604566574097	4056998.838068187
1.952622413635254	3950436.922724751
1.956079363822937	3031060.473261838
1.959531545639038	2860815.333415514
1.962978720664978	3217154.969843032
1.966421127319336	4275106.906326849
1.9698586463928223	6211908.9735551905
1.9732913970947266	7215918.520601856
1.9767193794250488	7804064.677942211
1.9801424741744995	9377378.550271153
1.9835609197616577	11028534.636318218
1.9869745969772339	11218300.961247561
1.990383505821228	9686655.833243987
1.9937876462936401	9124554.989736626
1.9971871376037598	9439586.236229725
2.000581979751587	10356805.454462595
2.003972291946411	13016002.855161117
2.007357597351074	15285963.719013764
2.0107386112213135	17317787.72706063
2.0141148567199707	18032727.36981153
2.017486572265625	16389070.708769921
2.0208535194396973	16887547.51670003
2.0242159366607666	19733521.543935098
2.027573823928833	21555429.39387875
2.0309269428253174	22817815.766122967
2.034275770187378	24413872.545182824
2.0376198291778564	25728068.321992673
2.040959596633911	27029198.552624356
2.044294595718384	28785437.77639921
2.0476250648498535	30583825.097338993
2.0509510040283203	30935621.288145464
2.054272413253784	29913353.923874684
2.057589530944824	30124673.144298773
2.0609018802642822	31575458.723793834
2.0642096996307373	32789393.819136873
2.0675129890441895	33581339.604096636
2.0708119869232178	33865725.058436334
2.074106216430664	33576060.16206468
2.0773961544036865	33343077.447094183
2.080681324005127	33664515.736437246
2.0839622020721436	34087588.98742256
2.087238311767578	34353664.51411119
2.090510129928589	34282889.36049461
2.0937774181365967	33861509.87147503
2.0970399379730225	33683104.6467673
2.1002981662750244	33649676.111042574
2.1035518646240234	33326291.325925358
2.1068007946014404	32919060.379662525
2.1100454330444336	33088766.463534836
2.1132853031158447	33424687.145572323
2.116520881652832	32988627.199627902
2.1197516918182373	32473858.38659472
2.1229779720306396	32532906.526699178
2.12619948387146	32762248.922669105
2.1294167041778564	32813716.986197285
2.132629156112671	32767476.841094796
2.1358368396759033	32301476.75618702
2.139039993286133	31386071.801036783
2.1422386169433594	30479335.269131675
2.145432472229004	29672532.66845186
2.1486217975616455	29076327.01430182
2.151806354522705	28448910.530278448
2.1549863815307617	28336130.44880603
2.1581614017486572	28423882.04328624
2.16133189201355	27664188.459813338
2.1644976139068604	26950562.477461204
2.167658567428589	26755694.00728199
2.1708147525787354	26783270.05931076
2.173966407775879	26693764.194906414
2.1771130561828613	26248110.70124212
2.1802549362182617	25499695.687391605
2.183391809463501	24441883.330387153
2.1865241527557373	23198114.279466096
2.1896514892578125	21650771.42964137
2.1927738189697266	18945563.89436571
2.1958916187286377	14982452.461044982
2.1990041732788086	11461164.805278907
2.2021119594573975	9596945.187721742
2.2052149772644043	8958010.426165372
2.208312749862671	9161674.458173376
2.2114057540893555	10214735.345647175
2.214493751525879	11307602.690938417
2.217576742172241	11387906.317396948
2.2206547260284424	10988645.706635157
2.2237277030944824	10637076.488418797
2.2267956733703613	9529339.28602287
2.2298583984375	7956038.416218357
2.2329163551330566	6992912.203079225
2.235969066619873	6726999.344341736
2.2390167713165283	6474923.207867836
2.2420592308044434	5692951.448036447
2.2450966835021973	4848571.762637127
2.248128890991211	5000085.046893481
2.2511560916900635	5832407.972686665
2.254178285598755	6292173.161724043
2.257194995880127	6605872.385222064
2.260206699371338	6658088.851626261
2.2632133960723877	5850827.503541764
2.266214609146118	4850978.155633883
2.2692108154296875	4534684.738774853
2.2722020149230957	5000389.457860533
2.2751877307891846	5577777.255028219
2.278168201446533	5539737.42082392
2.2811436653137207	5083413.90307841
2.284113883972168	4703552.635963646
2.287078857421875	4370271.082252912
2.290038824081421	4074075.4178227447
2.2929933071136475	4041833.2951846295
2.295942783355713	4222934.753604632
2.298887014389038	4432324.837430261
2.301826238632202	4753462.309610024
2.304760217666626	5513550.771749821
2.3076889514923096	6755392.983980399
2.310612440109253	7828559.3070329
2.3135311603546143	7465404.524801985
2.3164443969726562	5338832.735080999
2.319352865219116	3380606.106246065
2.322256088256836	2849593.6069692704
2.3251543045043945	2848319.024976686
2.328047275543213	2781384.4654394556
2.330935478210449	2799472.701266068
2.3338186740875244	2844458.877349898
2.3366971015930176	2820331.8928984576
2.3395702838897705	2776384.2651190367
2.3424389362335205	2646370.0855179685
2.3453025817871094	2431576.00536751
2.348161458969116	2360666.017294496
2.351015567779541	2703807.8693969436
2.353865146636963	3417327.851731858
2.3567099571228027	4068440.795798506
2.3595502376556396	4553544.652976103
2.3623859882354736	4990935.110440025
2.3652172088623047	4824672.008292576
2.368043899536133	3647164.1427157284
2.370866537094116	2356765.7989076786
2.3736846446990967	2000799.7068665626
2.3764986991882324	2243334.6719620926
2.3793084621429443	2432755.9219380477
2.3821144104003906	2682303.84271148
2.384916305541992	3223103.1791257234
2.387714147567749	3716834.0770548237
2.3905084133148193	3744992.433979775
2.393299102783203	3629180.6451041126
2.3960859775543213	3696665.8203799725
2.398869514465332	3868821.3116970924
2.4016497135162354	3860059.2532973625
2.4044265747070312	3739987.924861473
2.407200336456299	4108542.179095388
2.409970998764038	4917301.356457421
2.4127390384674072	5441201.591626718
2.415503978729248	5659010.1407767655
2.418266534805298	6190952.319232155
2.4210267066955566	6664368.300804308
2.4237842559814453	6155787.922319157
2.426539897918701	5346431.691742227
2.429293394088745	5573771.40220756
2.4320452213287354	6456912.875368689
2.4347951412200928	6830647.200567339
2.4375438690185547	6665392.516449994
2.440291166305542	6490900.759659778
2.443037271499634	6175708.757907611
2.445782423019409	5445577.393373699
2.4485268592834473	4613643.1723440895
2.451270818710327	4379809.606413769
2.454014539718628	5155622.15116885
2.4567582607269287	5966562.900830658
2.4595019817352295	5880522.980262734
2.4622461795806885	6041442.471124474
2.4649908542633057	6153734.583214918
2.4677364826202393	4999000.587369783
2.4704833030700684	3570321.2220353787
2.473231554031372	2642281.488971099
2.4759814739227295	2072527.037640304
2.4787333011627197	1870316.3242538606
2.481487512588501	2134603.8394694556
