#wavelength	surface flux
0.6450077295303345	344872.4375029596
0.6472567915916443	538458.9836977337
0.6494921445846558	692121.6515442485
0.6517150402069092	780889.2533230685
0.6539263725280762	869440.0911394563
0.6561272740364075	961410.2043965654
0.6583186388015747	1055921.0724571508
0.6605015397071838	1149841.6904180078
0.6626768708229065	1236133.491415601
0.6648455858230591	1294625.5753851281
0.6670085787773132	1239034.9358793234
0.6691668033599854	987269.0123284896
0.6713210344314575	856953.5749823945
0.6734722256660461	1193941.2727401443
0.6756211519241333	1679890.9312391665
0.6777685880661011	1986967.8386005084
0.6799154281616211	2180109.7706449633
0.6820623278617859	2336929.372394685
0.6842101216316223	2480058.384923937
0.6863595843315125	2610161.646138536
0.688511312007904	2717853.2748309565
0.6906660795211792	2798304.367007986
0.6928245425224304	2883250.398152243
0.6949873566627502	3011499.8584497687
0.6971551775932312	3156561.1684210296
0.6993286609649658	3267754.302789714
0.7015084028244019	3344519.9337776327
0.7036949396133423	3398285.7692525196
0.7058889269828796	3427970.486957881
0.7080909013748169	3435938.9102998935
0.710301399230957	3427229.7838118286
0.712520956993103	3399970.059393363
0.7147500514984131	3342942.508841322
0.7169892191886902	3255002.4900234803
0.7192389369010925	3142534.5627597175
0.7214996814727783	3005124.0654920014
0.723771870136261	2850658.4483641195
0.7260559797286987	2686212.5654596887
0.7283523678779602	2504990.0988527145
0.7306615710258484	2335509.557345081
0.7329838871955872	2192843.3325900417
0.7353196740150452	2020110.465827343
0.7376693487167358	1807462.93668518
0.7400332689285278	1590867.1597260763
0.7424117922782898	1377423.5878891428
0.7448052167892456	1171992.0068846636
0.7472138404846191	973407.7111297122
0.7496379613876343	780761.4639533893
0.7520779371261597	600128.2853828754
0.7545340061187744	435636.5033177554
0.7570064663887024	291635.8669382522
0.7594954967498779	173007.40959242685
0.7620013952255249	84358.02771525901
0.7645244002342224	29832.49742406387
0.7670646905899048	7336.353262942549
0.7696225643157959	8192.843005971916
0.7721980810165405	36972.61819888621
0.7747915983200073	108449.72714176778
0.7774031162261963	213143.8432991406
0.7800329327583313	357751.5365848981
0.7826811671257019	597881.2537789526
0.7853479981422424	920194.6357554767
0.7880334854125977	1262081.662689559
0.7907378077507019	1478507.7859968282
0.7934610247612	1474427.6980858322
0.7962033748626709	1862453.59273936
0.7989648580551147	2855709.1554687805
0.801745593547821	3786704.891929464
0.8045456409454346	4526388.167709888
0.8073651194572449	5250079.741670556
0.8102040886878967	5983689.118553832
0.8130625486373901	6813393.985938351
0.8159406185150146	7651006.931965733
0.8188382983207703	8532553.919097288
0.8217556476593018	9860989.551047118
0.8246926665306091	11385159.18363773
0.8276493549346924	12677079.328537032
0.8306257724761963	14067615.907231893
0.8336219191551208	15783645.834058197
0.8366377949714661	17482168.748398528
0.8396733403205872	19059281.96219821
0.8427285552024841	20771547.485633474
0.8458034992218018	22339679.91375632
0.8488980531692505	22028320.0456035
0.8520121574401855	21112318.5193273
0.8551458716392517	24709714.932528727
0.8582990765571594	28762954.91104626
0.8614717125892639	25642430.434080772
0.8646637797355652	21183471.88355417
0.8678751587867737	21539559.031123813
0.8711057901382446	23056167.15374702
0.8743556141853333	24750612.469875578
0.87762451171875	28024966.544002127
0.8809124231338501	31113211.399916716
0.8842192888259888	33088659.285489652
0.8875449895858765	33342688.467698846
0.8908893465995789	31750769.03052105
0.894252359867096	31990309.076572806
0.8976338505744934	37112898.93149832
0.9010337591171265	46377522.187916644
0.9044519662857056	56204526.61863703
0.9078882932662964	63356228.00630887
0.9113426208496094	67534709.09084
0.914814829826355	68703434.22682531
0.9183048605918884	69921294.72595425
0.9218124747276306	68244494.00263532
0.925337553024292	58277474.98896064
0.9288799166679382	52168613.06256158
0.9324395060539246	54471657.08158619
0.9360161423683167	56583217.41899691
0.9396095871925354	55985127.52378722
0.943219780921936	54032273.02383449
0.9468464851379395	51438324.0665246
0.9504896402359009	55843026.74675409
0.9541489481925964	69793046.8050398
0.9578243494033813	74640980.36195819
0.9615156054496765	63079672.374853544
0.9652225375175476	50382112.79727487
0.9689450263977051	57275983.02043665
0.9726828336715698	79836807.80224246
0.9764357805252075	90590027.84907587
0.9802037477493286	91621803.32659002
0.983986496925354	100742997.13242601
0.9877838492393494	104021405.45318922
0.9915955662727356	92873600.99447705
0.9954215884208679	82527825.69177099
0.9992615580558777	70755675.50879243
1.0031154155731201	60113562.53438397
1.0069829225540161	61973126.67129282
1.0108637809753418	73815258.51500025
1.0147579908370972	89751149.10704681
1.018665075302124	100005585.15476333
1.022585153579712	98247714.6598158
1.0265177488327026	96643158.03162108
1.0304628610610962	108496580.60547906
1.0344202518463135	126238193.27633819
1.0383895635604858	136464590.0493379
1.0423706769943237	139325582.73032826
1.0463634729385376	143795205.36915272
1.0503677129745483	149795091.13536274
1.0543830394744873	159161563.5943751
1.058409333229065	169573572.60442397
1.0624464750289917	175144207.52160802
1.0664942264556885	181563328.29723033
1.0705522298812866	190431440.80866483
1.0746204853057861	197457177.7375497
1.0786986351013184	201785225.28630438
1.0827864408493042	205210667.17704543
1.086883783340454	194516716.16169032
1.0909905433654785	162991388.4792673
1.0951062440872192	135376038.14021406
1.0992310047149658	106164613.11052406
1.10336434841156	64159541.388401456
1.1075061559677124	42347350.52356303
1.1116561889648438	38359978.761218846
1.115814208984375	31840509.59872367
1.1199802160263062	30691367.004397772
1.124153733253479	33229605.756450582
1.1283347606658936	28288685.009011235
1.1325229406356812	21558273.20479316
1.1367181539535522	29929390.353533283
1.1409201622009277	50457292.81763709
1.145128846168518	63279491.0049855
1.1493438482284546	56443563.01293356
1.1535650491714478	42920438.28672512
1.1577922105789185	38061188.164193034
1.1620250940322876	38926122.07894477
1.1662636995315552	46255429.90952847
1.170507550239563	54000568.954473205
1.174756646156311	60917610.1907479
1.1790107488632202	76446387.048743
1.1832695007324219	86719834.46630754
1.1875330209732056	82223360.40832743
1.191800832748413	95790811.09650598
1.1960728168487549	127739719.73878188
1.2003488540649414	142672978.34729013
1.2046287059783936	147168336.9921675
1.2089121341705322	151178119.54212725
1.2131990194320679	159771350.81598794
1.2174891233444214	179172734.71386114
1.2217823266983032	193340721.7367626
1.2260783910751343	198840591.17731893
1.230377197265625	207314617.22993988
1.2346785068511963	213830664.69553024
1.238982081413269	205150013.39420828
1.2432878017425537	190904609.04336095
1.2475954294204712	186861201.0064473
1.2519049644470215	188015841.3441071
1.256216049194336	215846045.2425675
1.2605286836624146	245669399.55056193
1.2648425102233887	242449436.83890027
1.2691574096679688	248288656.3985052
1.2734732627868652	267819027.63541543
1.2777899503707886	266503902.20818156
1.2821072340011597	248383837.57543492
1.2864248752593994	242987882.24414837
1.2907428741455078	246318672.3022293
1.2950609922409058	241336704.4757036
1.2993791103363037	211890919.50112495
1.303696870803833	184008794.22209916
1.3080145120620728	183550407.95344228
1.3123314380645752	189746830.9669111
1.3166478872299194	190810643.7818352
1.3209635019302368	167142987.0735575
1.3252781629562378	131154222.60893412
1.3295916318893433	95764490.71677908
1.3339040279388428	48706444.79064942
1.3382149934768677	15639366.855994297
1.3425244092941284	7785726.266891422
1.3468321561813354	6915721.946123095
1.3511382341384888	6488233.2313319035
1.3554422855377197	5155813.29093268
1.3597444295883179	6102029.681520006
1.3640443086624146	8830891.418055082
1.3683418035507202	8028113.623666323
1.3726370334625244	6161149.631918844
1.3769296407699585	7000028.268757613
1.381219506263733	6213821.9967065025
1.3855066299438477	3728220.5436301073
1.3897908926010132	4078917.9967413903
1.3940720558166504	6247282.610206237
1.3983501195907593	5933853.445487937
1.4026249647140503	5286234.599698146
1.4068963527679443	6433413.492359053
1.4111642837524414	7384933.364618691
1.4154287576675415	7793781.541442555
1.419689416885376	7264576.081442084
1.4239463806152344	6802808.085243048
1.4281994104385376	5549113.871873748
1.4324485063552856	3998987.614955474
1.436693549156189	5059524.762811003
1.440934419631958	8019989.107044031
1.4451709985733032	12584776.298504362
1.449403166770935	17453135.041344535
1.453631043434143	17194025.95520373
1.4578542709350586	15004345.41778561
1.4620729684829712	18535644.738275208
1.4662868976593018	22777387.218746047
1.4704961776733398	17704137.234621473
1.4747005701065063	10647654.261471689
1.4788999557495117	13255422.352855377
1.4830944538116455	21802946.859417144
1.4872838258743286	24817557.862918116
1.491468071937561	20492855.52516718
1.4956470727920532	19994886.72169095
1.4998208284378052	26238877.2033876
1.5039892196655273	28996433.668749843
1.5081522464752197	25118013.01647581
1.5123097896575928	26665849.36042961
1.5164618492126465	39710414.99510684
1.5206083059310913	53361422.93365394
1.5247491598129272	55628659.926706284
1.5288842916488647	53771899.41528377
1.5330137014389038	58435422.93217446
1.5371372699737549	62102539.36897284
1.541254997253418	60579305.957817435
1.545366883277893	63621388.64518819
1.5494728088378906	68301913.99425678
1.5535727739334106	69548600.17255132
1.5576666593551636	72727470.85144451
1.561754584312439	79902025.92466405
1.5658363103866577	88909171.30479495
1.5699119567871094	92918696.70197374
1.5739814043045044	92251303.04013383
1.5780447721481323	96469563.73674095
1.582101821899414	105528994.34131852
1.5861525535583496	111556161.78382728
1.5901970863342285	109482922.15330164
1.5942351818084717	103125665.0937306
1.5982669591903687	103982309.17916887
1.6022924184799194	107720362.2457892
1.606311559677124	104118294.67525528
1.6103241443634033	103111143.4686876
1.6143304109573364	103683570.76087566
1.6183301210403442	97755234.25525175
1.6223233938217163	94270429.7961742
1.6263102293014526	94879199.18316717
1.6302905082702637	96555335.45882814
1.634264349937439	101289456.16741711
1.638231635093689	107785997.59338751
1.6421923637390137	110645087.25611013
1.646146535873413	103988192.63513789
1.6500942707061768	95339244.88699871
1.6540353298187256	94193997.6249647
1.6579699516296387	94315719.2621838
1.661897897720337	88534342.03968193
1.6658192873001099	70662394.67861576
1.6697341203689575	58090491.33109032
1.6736423969268799	69214654.9055902
1.677544116973877	81557804.01559803
1.6814392805099487	81808479.04019292
1.6853278875350952	75882967.7273807
1.6892099380493164	65832219.01211526
1.6930854320526123	55519303.457001805
1.696954369544983	51077141.237910144
1.7008168697357178	52125679.28011545
1.7046726942062378	52688823.33302464
1.708522081375122	52626289.39758266
1.712364912033081	50577305.6242605
1.7162011861801147	48221945.31599168
1.7200311422348022	49836373.26026736
1.723854422569275	50198361.659112655
1.7276713848114014	45146590.782854185
1.731481909751892	37374797.917389825
1.7352858781814575	33390190.859063253
1.7390835285186768	34880468.167957954
1.7428747415542603	34952521.526204355
1.7466596364974976	29130509.1363417
1.7504380941390991	23613028.221428066
1.7542102336883545	24561217.259819023
1.7579760551452637	30472767.850417286
1.7617355585098267	39584739.16824286
1.7654887437820435	42940166.59595307
1.7692357301712036	33332548.258345295
1.7729763984680176	21680037.05063081
1.776710867881775	14146591.220442079
1.7804391384124756	10794928.800533623
1.7841613292694092	10838700.641869022
1.7878772020339966	10945134.923159841
1.7915871143341064	14832651.466913799
1.7952908277511597	19410450.150006086
1.7989884614944458	18184943.99922638
1.8026801347732544	13384182.698519971
1.806365728378296	9524896.24628547
1.8100452423095703	8408359.394700965
1.8137187957763672	7783503.238498588
1.817386507987976	6254465.791230677
1.8210482597351074	10359877.622704027
1.8247040510177612	17940077.28513175
1.828354001045227	16330011.377892183
1.8319982290267944	9328846.609829422
1.8356364965438843	9218989.583249195
1.8392690420150757	13497210.29283119
1.8428958654403687	14188413.347471835
1.8465168476104736	12160726.697318686
1.8501322269439697	10848423.020841701
1.8537418842315674	9469999.688232444
1.8573459386825562	8682792.796926646
1.860944390296936	6986493.604472928
1.864537239074707	3873759.636751765
1.8681244850158691	2878155.0936877304
1.871706247329712	5099691.551608487
1.8752825260162354	8286309.424791435
1.8788533210754395	8927754.730979506
1.8824186325073242	8974891.33774708
1.8859784603118896	13131740.529457018
1.8895330429077148	17664005.67438833
1.8930821418762207	15204192.983228069
1.8966259956359863	11025864.909777934
1.9001644849777222	10132415.74863627
1.9036977291107178	8681372.989031363
1.9072256088256836	10620481.28498951
1.9107483625411987	13185315.301570693
1.9142658710479736	9816973.371551933
1.9177782535552979	8390771.319110284
1.9212853908538818	8043162.385841691
1.9247875213623047	4208174.135480684
1.9282845258712769	2755209.3530980786
1.9317764043807983	6668969.357696343
1.9352631568908691	13318362.065472942
1.9387450218200684	14163949.151802234
1.942221760749817	8457457.920275034
1.9456936120986938	4761805.0582919
1.9491604566574097	4418982.922580031
1.952622413635254	6456317.646604586
1.956079363822937	12507404.981837248
1.959531545639038	17847691.308801003
1.962978720664978	14907762.132320397
1.966421127319336	10254721.900277048
1.9698586463928223	11383735.063163787
1.9732913970947266	12796844.3359852
1.9767193794250488	12943174.927505549
1.9801424741744995	13788038.051272554
1.9835609197616577	14093123.73486077
1.9869745969772339	16549918.32772389
1.990383505821228	19006593.13493152
1.9937876462936401	18101581.963117495
1.9971871376037598	15170627.242356466
2.000581979751587	12730790.185750138
2.003972291946411	15244941.122680526
2.007357597351074	18970440.39554011
2.0107386112213135	20319206.333099376
2.0141148567199707	19575139.786977734
2.017486572265625	17027881.87662134
2.0208535194396973	18011925.888918996
2.0242159366607666	21667655.920695703
2.027573823928833	22016131.344128445
2.0309269428253174	21019826.26217069
2.034275770187378	23331671.8997579
2.0376198291778564	28958929.951071285
2.040959596633911	34218058.712066464
2.044294595718384	35934498.29108282
2.0476250648498535	35929900.01867597
2.0509510040283203	34085500.115852065
2.054272413253784	30584942.152593393
2.057589530944824	31391058.264774557
2.0609018802642822	36793170.11119809
2.0642096996307373	40875936.38233061
2.0675129890441895	42361028.74472216
2.0708119869232178	42618947.11873846
2.074106216430664	42097407.86879648
2.0773961544036865	43225247.99929991
2.080681324005127	45313786.99934664
2.0839622020721436	45535985.909205295
2.087238311767578	44275128.12579514
2.090510129928589	43216564.86274814
2.0937774181365967	43722716.11869701
2.0970399379730225	44515243.21744735
2.1002981662750244	43120429.28955845
2.1035518646240234	41666870.76241399
2.1068007946014404	42307284.29175413
2.1100454330444336	43051571.4673837
2.1132853031158447	42636153.94262818
2.116520881652832	41115006.7855938
2.1197516918182373	39591532.23932602
2.1229779720306396	39078185.43432783
2.12619948387146	38626494.894763514
2.1294167041778564	38291394.57727349
2.132629156112671	38744857.74140747
2.1358368396759033	38070018.726556174
2.139039993286133	36305025.329854265
2.1422386169433594	35017354.61123705
2.145432472229004	33985127.83971269
2.1486217975616455	33019272.670202937
2.151806354522705	31715130.16619218
2.1549863815307617	31511041.056678172
2.1581614017486572	32711030.490817863
2.16133189201355	33381508.08340157
2.1644976139068604	33082281.29345267
2.167658567428589	31299417.448406767
2.1708147525787354	28997738.290117342
2.173966407775879	28218781.63986139
2.1771130561828613	28606205.86923953
2.1802549362182617	28247809.45986113
2.183391809463501	26523776.407003358
2.1865241527557373	24658419.81151832
2.1896514892578125	23150906.654010925
2.1927738189697266	20678499.84795677
2.1958916187286377	16185317.475262608
2.1990041732788086	11368736.627064364
2.2021119594573975	8847870.427314304
2.2052149772644043	8387881.3718109345
2.208312749862671	8706730.342179552
2.2114057540893555	10154254.386311624
2.214493751525879	11847369.247360095
2.217576742172241	11642305.802502634
2.2206547260284424	10581495.653169582
2.2237277030944824	9658700.386754507
2.2267956733703613	8057777.6414412055
2.2298583984375	6687624.590302824
2.2329163551330566	6384615.753711902
2.235969066619873	6789816.599255687
2.2390167713165283	6872740.067217698
2.2420592308044434	6163344.307010494
2.2450966835021973	5447399.071856245
2.248128890991211	5278115.738498333
2.2511560916900635	5594503.10957245
2.254178285598755	6565710.444475383
2.257194995880127	8145752.954022277
2.260206699371338	7932509.18721534
2.2632133960723877	5339316.160748405
2.266214609146118	4187993.929107558
2.2692108154296875	5867726.7526241
2.2722020149230957	7533144.1790887425
2.2751877307891846	7327596.22516934
2.278168201446533	6602429.9856446665
2.2811436653137207	6445635.44869181
2.284113883972168	6017061.045784673
2.287078857421875	5029740.223106045
2.290038824081421	4434389.388086225
2.2929933071136475	4526895.038338623
2.295942783355713	4699867.149676412
2.298887014389038	4999862.976536195
2.301826238632202	5803674.408591007
2.304760217666626	6996361.217378872
2.3076889514923096	8607249.251626652
2.310612440109253	10776642.925973821
2.3135311603546143	12511449.168140966
2.3164443969726562	11183288.47580036
2.319352865219116	6817749.36105397
2.322256088256836	3740218.905388638
2.3251543045043945	3095899.167167683
2.328047275543213	2963326.2821309394
2.330935478210449	2924135.494408491
2.3338186740875244	2781388.054010683
2.3366971015930176	2487061.59352804
2.3395702838897705	2295010.739845834
2.3424389362335205	2244057.330543152
2.3453025817871094	2209632.9749815664
2.348161458969116	2187467.2263501794
2.351015567779541	2765283.535436673
2.353865146636963	4563636.608610397
2.3567099571228027	6881034.897137523
2.3595502376556396	8312230.024678773
2.3623859882354736	8024750.38603619
2.3652172088623047	6038058.380471181
2.368043899536133	3640998.166675246
2.370866537094116	2303578.0085353423
2.3736846446990967	2221480.2994491775
2.3764986991882324	2476215.5079399054
2.3793084621429443	2498879.655657796
2.3821144104003906	2647731.872460449
2.384916305541992	3248253.707286763
2.387714147567749	3883516.9803577526
2.3905084133148193	3952430.9549667863
2.393299102783203	3645539.6574844467
2.3960859775543213	3312683.6256447537
2.398869514465332	3317053.8586205863
2.4016497135162354	4026683.126604362
2.4044265747070312	5238845.273587883
2.407200336456299	6099275.607274786
2.409970998764038	6062748.596593492
2.4127390384674072	5694887.354257662
2.415503978729248	5587047.909024924
2.418266534805298	5693131.9107995955
2.4210267066955566	5725323.758887808
2.4237842559814453	5511310.2171995025
2.426539897918701	5582048.249067215
2.429293394088745	6502533.484963954
2.4320452213287354	7352770.876548776
2.4347951412200928	7020243.927927017
2.4375438690185547	6165948.141777204
2.440291166305542	5815320.782558568
2.443037271499634	5873051.67181118
2.445782423019409	6228590.247427073
2.4485268592834473	6826416.053367392
2.451270818710327	6960188.926473093
2.454014539718628	6660361.166164533
2.4567582607269287	6520261.684939281
2.4595019817352295	6553621.5542055
2.4622461795806885	7390365.126846908
2.4649908542633057	8453980.053973233
2.4677364826202393	7854321.696097583
2.4704833030700684	5799493.380297493
2.473231554031372	3828175.8397707087
2.4759814739227295	2712245.525589568
2.4787333011627197	2306222.8236408164
2.481487512588501	2359740.7033417677
2.4842441082000732	2751177.5414497405
