#wavelength	surface flux
0.6450077295303345	30606.22231556272
0.6472567915916443	46324.06687734046
0.6494921445846558	56246.619979598385
0.6517150402069092	59366.17142353127
0.6539263725280762	62087.92354721657
0.6561272740364075	64795.25189967056
0.6583186388015747	67561.61435335
0.6605015397071838	70434.2642682296
0.6626768708229065	73374.7716166957
0.6648455858230591	76296.29772862574
0.6670085787773132	78341.93298609005
0.6691668033599854	77840.25396881367
0.6713210344314575	78782.03181750592
0.6734722256660461	85096.59945659043
0.6756211519241333	91560.48222388413
0.6777685880661011	95511.40675965189
0.6799154281616211	99011.0016165771
0.6820623278617859	102536.76661522812
0.6842101216316223	106126.74910043151
0.6863595843315125	109773.93456688334
0.688511312007904	113383.95992582933
0.6906660795211792	116662.68414957156
0.6928245425224304	119967.5985906434
0.6949873566627502	124178.50629953337
0.6971551775932312	128766.4613819012
0.6993286609649658	132931.6291248342
0.7015084028244019	136925.34862572968
0.7036949396133423	141232.14982261963
0.7058889269828796	145840.4137168529
0.7080909013748169	150311.57414791523
0.710301399230957	154781.14511624197
0.712520956993103	159346.1895549082
0.7147500514984131	163306.99206053125
0.7169892191886902	166748.99257373356
0.7192389369010925	171041.00292183922
0.7214996814727783	175742.78130958715
0.723771870136261	179694.1983461346
0.7260559797286987	183427.93691255333
0.7283523678779602	187311.57555157223
0.7306615710258484	191649.6021423979
0.7329838871955872	196632.39749958398
0.7353196740150452	201235.6220348017
0.7376693487167358	205137.5663343003
0.7400332689285278	208299.3441512531
0.7424117922782898	209967.47467216637
0.7448052167892456	210124.93819414076
0.7472138404846191	208149.63447095337
0.7496379613876343	202565.01827714677
0.7520779371261597	191736.17434640505
0.7545340061187744	173461.32486311437
0.7570064663887024	145387.8753704745
0.7594954967498779	106634.32852078111
0.7620013952255249	61903.37617618093
0.7645244002342224	24548.44372278257
0.7670646905899048	6256.74582027768
0.7696225643157959	7302.5088258011365
0.7721980810165405	31176.273733324775
0.7747915983200073	80668.64152166742
0.7774031162261963	137235.9678859034
0.7800329327583313	187640.36923964391
0.7826811671257019	240565.41281303467
0.7853479981422424	290355.36422309204
0.7880334854125977	325827.61755831685
0.7907378077507019	333985.2898521617
0.7934610247612	304267.4009658031
0.7962033748626709	315936.59134347655
0.7989648580551147	390986.28975595324
0.801745593547821	442474.51443091093
0.8045456409454346	463327.334768671
0.8073651194572449	479975.9191313442
0.8102040886878967	492883.6372967074
0.8130625486373901	507160.758013212
0.8159406185150146	528269.8800856096
0.8188382983207703	550445.8375525067
0.8217556476593018	568498.1575940516
0.8246926665306091	586697.4896444762
0.8276493549346924	605617.5248128035
0.8306257724761963	623056.5639647652
0.8336219191551208	641115.4256060186
0.8366377949714661	659407.4343804547
0.8396733403205872	680929.0920586784
0.8427285552024841	708245.9389395938
0.8458034992218018	735021.4060649044
0.8488980531692505	757854.9541907654
0.8520121574401855	779987.0702369848
0.8551458716392517	805642.8528746096
0.8582990765571594	832156.764415787
0.8614717125892639	855312.2136757137
0.8646637797355652	878520.937641378
0.8678751587867737	904776.2901851318
0.8711057901382446	932323.8968100445
0.8743556141853333	958104.9147204901
0.87762451171875	980584.6835885261
0.8809124231338501	1001396.5236275269
0.8842192888259888	1022683.9821223433
0.8875449895858765	1042282.2861124359
0.8908893465995789	1053619.236530158
0.894252359867096	1065070.827523146
0.8976338505744934	1101462.9434163265
0.9010337591171265	1156961.1130209505
0.9044519662857056	1205029.4201409747
0.9078882932662964	1242333.7929810004
0.9113426208496094	1274650.1089903268
0.914814829826355	1297033.8761965293
0.9183048605918884	1321133.7360891039
0.9218124747276306	1344124.8951841737
0.925337553024292	1287880.7793675112
0.9288799166679382	1154463.0650267263
0.9324395060539246	1099079.9802642867
0.9360161423683167	1171401.8434528396
0.9396095871925354	1271654.0850895867
0.943219780921936	1286320.1805315474
0.9468464851379395	1260950.6125990974
0.9504896402359009	1307016.342928614
0.9541489481925964	1390392.6175016854
0.9578243494033813	1419996.4883054118
0.9615156054496765	1380131.6472936224
0.9652225375175476	1378587.5640379263
0.9689450263977051	1486720.5183643226
0.9726828336715698	1660494.7888134865
0.9764357805252075	1789452.2764500359
0.9802037477493286	1864903.07414077
0.983986496925354	1942420.4942469196
0.9877838492393494	2027976.653171483
0.9915955662727356	2120964.8321245564
0.9954215884208679	2205083.056711199
0.9992615580558777	2276083.5018314524
1.0031154155731201	2340568.768744588
1.0069829225540161	2409833.1870038006
1.0108637809753418	2485995.473112644
1.0147579908370972	2562100.8599760295
1.018665075302124	2629355.0340719325
1.022585153579712	2678221.479668388
1.0265177488327026	2714865.0784352915
1.0304628610610962	2768001.136971326
1.0344202518463135	2856593.790954622
1.0383895635604858	2947350.5987586114
1.0423706769943237	3018441.1563070477
1.0463634729385376	3080450.1505681756
1.0503677129745483	3139307.80279026
1.0543830394744873	3207425.550318885
1.058409333229065	3281800.406790857
1.0624464750289917	3351311.78179352
1.0664942264556885	3415081.374682335
1.0705522298812866	3477158.6809756863
1.0746204853057861	3545530.2319230605
1.0786986351013184	3618577.7966033816
1.0827864408493042	3687559.5055529596
1.086883783340454	3735945.919708049
1.0909905433654785	3752702.491848291
1.0951062440872192	3710718.2402207563
1.0992310047149658	3443761.0263055237
1.10336434841156	3009550.060218547
1.1075061559677124	2840589.542548506
1.1116561889648438	2796069.5799532733
1.115814208984375	2581792.844421219
1.1199802160263062	2412403.2996236547
1.124153733253479	2473236.052880318
1.1283347606658936	2594360.323603775
1.1325229406356812	2497102.118512136
1.1367181539535522	2634880.856813454
1.1409201622009277	3119766.6891412586
1.145128846168518	3394061.1999926986
1.1493438482284546	3047912.779014359
1.1535650491714478	2312828.3513336754
1.1577922105789185	2070698.2225389977
1.1620250940322876	2462321.287201055
1.1662636995315552	3049287.3382681226
1.170507550239563	3481648.9660441126
1.174756646156311	3915789.9284570278
1.1790107488632202	4478139.144263148
1.1832695007324219	4891281.447922935
1.1875330209732056	5131983.5843901215
1.191800832748413	5354197.633829253
1.1960728168487549	5605107.423713909
1.2003488540649414	5785751.064635885
1.2046287059783936	5898070.455694813
1.2089121341705322	6012750.039984939
1.2131990194320679	6143268.3446502285
1.2174891233444214	6285723.94286937
1.2217823266983032	6429211.601459468
1.2260783910751343	6560920.524783217
1.230377197265625	6673815.079017674
1.2346785068511963	6775836.102423588
1.238982081413269	6889773.340926487
1.2432878017425537	7002407.374070357
1.2475954294204712	7098424.252134237
1.2519049644470215	7192105.472580636
1.256216049194336	7299955.036208989
1.2605286836624146	7395463.89359991
1.2648425102233887	7468616.073020906
1.2691574096679688	7540257.782896311
1.2734732627868652	7620455.568628727
1.2777899503707886	7698275.349592809
1.2821072340011597	7752456.120373157
1.2864248752593994	7760724.608641033
1.2907428741455078	7725032.806763049
1.2950609922409058	7745956.042484666
1.2993791103363037	7780855.104549522
1.303696870803833	7739731.392433628
1.3080145120620728	7725313.528020056
1.3123314380645752	7808827.801951365
1.3166478872299194	7978978.395957996
1.3209635019302368	7909936.310694416
1.3252781629562378	7354930.498442117
1.3295916318893433	6166627.007676074
1.3339040279388428	4210103.156627462
1.3382149934768677	2152202.047651068
1.3425244092941284	1087931.8683789093
1.3468321561813354	973118.4507894584
1.3511382341384888	783483.8293753775
1.3554422855377197	497031.29436248465
1.3597444295883179	423724.34929829737
1.3640443086624146	447430.8055216327
1.3683418035507202	613042.9614099861
1.3726370334625244	1187812.3080635858
1.3769296407699585	1812321.1589774778
1.381219506263733	1429585.6868819152
1.3855066299438477	574234.3620407671
1.3897908926010132	289310.09563472425
1.3940720558166504	355882.2681438307
1.3983501195907593	525966.2156626215
1.4026249647140503	941087.8119766368
1.4068963527679443	1248964.609520213
1.4111642837524414	953213.1893536771
1.4154287576675415	679336.8650939018
1.419689416885376	664145.5796147769
1.4239463806152344	631803.3752786134
1.4281994104385376	825870.63618477
1.4324485063552856	1050373.5332662521
1.436693549156189	1141051.9072624124
1.440934419631958	1396412.7687895354
1.4451709985733032	2126138.157624258
1.449403166770935	3300518.276484947
1.453631043434143	4112204.5973786307
1.4578542709350586	4477772.62373985
1.4620729684829712	4899677.6021706015
1.4662868976593018	4922768.0957092745
1.4704961776733398	4488104.936324755
1.4747005701065063	4249091.302698502
1.4788999557495117	4506961.409212082
1.4830944538116455	5467631.342741885
1.4872838258743286	6572067.288832232
1.491468071937561	6924867.545244605
1.4956470727920532	6802537.289895434
1.4998208284378052	7161516.631566594
1.5039892196655273	7822490.152013227
1.5081522464752197	8046021.022362028
1.5123097896575928	8353735.377631289
1.5164618492126465	9123503.93611033
1.5206083059310913	10102743.725471538
1.5247491598129272	10812052.451930277
1.5288842916488647	11000114.740022399
1.5330137014389038	11249150.205336148
1.5371372699737549	11668154.533853345
1.541254997253418	11883413.842640743
1.545366883277893	12091280.699359713
1.5494728088378906	12413412.792723155
1.5535727739334106	12608439.265952978
1.5576666593551636	12603173.247770116
1.561754584312439	12751971.974673731
1.5658363103866577	13189800.768674953
1.5699119567871094	13458753.492534176
1.5739814043045044	13210651.073377188
1.5780447721481323	12722129.103863051
1.582101821899414	12910900.174004562
1.5861525535583496	13711536.739401175
1.5901970863342285	14079774.167917443
1.5942351818084717	13922891.596608283
1.5982669591903687	13628877.146524277
1.6022924184799194	13466070.70352215
1.606311559677124	13515574.959040696
1.6103241443634033	13455198.632853555
1.6143304109573364	13137498.725290544
1.6183301210403442	12685544.751406912
1.6223233938217163	12122186.701922096
1.6263102293014526	11455389.46209486
1.6302905082702637	10851045.15745003
1.634264349937439	11305092.538661228
1.638231635093689	12895699.876251785
1.6421923637390137	13706425.048490867
1.646146535873413	12906560.674390676
1.6500942707061768	12035420.34045242
1.6540353298187256	12471578.703727122
1.6579699516296387	13171367.554874202
1.661897897720337	12486687.681080194
1.6658192873001099	10233192.037593346
1.6697341203689575	9257862.81765958
1.6736423969268799	10919911.776152112
1.677544116973877	12003503.85752686
1.6814392805099487	11749408.782947423
1.6853278875350952	11467758.367540443
1.6892099380493164	10983462.78569408
1.6930854320526123	9908732.446726669
1.696954369544983	8672902.729974346
1.7008168697357178	8357473.4230995625
1.7046726942062378	8880394.962308662
1.708522081375122	9664528.237078508
1.712364912033081	10438211.588719841
1.7162011861801147	11204701.047665255
1.7200311422348022	11943085.377513474
1.723854422569275	12138778.451531043
1.7276713848114014	11825491.453636086
1.731481909751892	11278907.823125552
1.7352858781814575	10718820.371007508
1.7390835285186768	10462847.19451758
1.7428747415542603	10208211.385559238
1.7466596364974976	9579215.07973752
1.7504380941390991	8685804.141394662
1.7542102336883545	8148815.035437039
1.7579760551452637	9106170.35894326
1.7617355585098267	10201848.581197374
1.7654887437820435	9388304.315505132
1.7692357301712036	7372112.183089787
1.7729763984680176	5102868.191825968
1.776710867881775	3110790.9517313647
1.7804391384124756	2371901.742341542
1.7841613292694092	2445437.5275179
1.7878772020339966	2174264.544566245
1.7915871143341064	2339534.2812016867
1.7952908277511597	3363879.2525371257
1.7989884614944458	3740389.245411569
1.8026801347732544	2467797.883941422
1.806365728378296	1061273.3376210707
1.8100452423095703	1070337.0158957506
1.8137187957763672	1423346.517922515
1.817386507987976	1190801.5333043002
1.8210482597351074	1430794.6890456628
1.8247040510177612	1595951.0731885184
1.828354001045227	859155.2807511342
1.8319982290267944	577931.9490921425
1.8356364965438843	1147440.5002513935
1.8392690420150757	1752842.8060543581
1.8428958654403687	1780182.5043222017
1.8465168476104736	1778032.4857772077
1.8501322269439697	2069302.6813409904
1.8537418842315674	1703840.1294260314
1.8573459386825562	1087443.3686180008
1.860944390296936	845147.5417390547
1.864537239074707	553895.0139835541
1.8681244850158691	529992.1584682489
1.871706247329712	1052404.4959949763
1.8752825260162354	1899716.620182629
1.8788533210754395	3309652.4952833597
1.8824186325073242	4429235.953436466
1.8859784603118896	4054828.565293251
1.8895330429077148	3581773.7751791375
1.8930821418762207	4448424.916703801
1.8966259956359863	4375836.216442369
1.9001644849777222	2139438.100680232
1.9036977291107178	622995.203876149
1.9072256088256836	639674.562840437
1.9107483625411987	631377.0330139828
1.9142658710479736	344890.9614435289
1.9177782535552979	330188.09375281923
1.9212853908538818	521490.36124563497
1.9247875213623047	543232.0555405549
1.9282845258712769	580736.8930611613
1.9317764043807983	834854.1455715343
1.9352631568908691	984339.074942109
1.9387450218200684	995397.8032115124
1.942221760749817	1223101.1490987283
1.9456936120986938	1533820.41914262
1.9491604566574097	1890427.1014822922
1.952622413635254	1861315.7107731213
1.956079363822937	1364677.4531972199
1.959531545639038	1245083.2035346064
1.962978720664978	1429597.4566483672
1.966421127319336	2055728.0372481116
1.9698586463928223	3216421.3060863395
1.9732913970947266	3846852.47433547
1.9767193794250488	4219030.706469731
1.9801424741744995	5170302.658858978
1.9835609197616577	6154486.538872222
1.9869745969772339	6236109.674156372
1.990383505821228	5348746.647866286
1.9937876462936401	5125506.900052809
1.9971871376037598	5364315.85232433
2.000581979751587	5869099.980988941
2.003972291946411	7478828.268038901
2.007357597351074	8961880.638420165
2.0107386112213135	10211345.892268032
2.0141148567199707	10528248.05716844
2.017486572265625	9532142.221782232
2.0208535194396973	9909248.807540124
2.0242159366607666	11549400.504760144
2.027573823928833	12505335.681325374
2.0309269428253174	13189263.910547687
2.034275770187378	14056604.67142718
2.0376198291778564	14770629.832059605
2.040959596633911	15484758.604329688
2.044294595718384	16416738.237596959
2.0476250648498535	17282629.74324482
2.0509510040283203	17350833.694253124
2.054272413253784	16851417.80588312
2.057589530944824	17019673.23901967
2.0609018802642822	17716315.278363723
2.0642096996307373	18245533.39004751
2.0675129890441895	18576301.54953403
2.0708119869232178	18734836.15501498
2.074106216430664	18663360.572251845
2.0773961544036865	18564346.701005396
2.080681324005127	18679060.315435987
2.0839622020721436	18802213.366213728
2.087238311767578	18850925.932633273
2.090510129928589	18818829.682141323
2.0937774181365967	18646266.755929276
2.0970399379730225	18545464.189594172
2.1002981662750244	18496747.68515571
2.1035518646240234	18332179.87598064
2.1068007946014404	18132083.3960101
2.1100454330444336	18124156.188224945
2.1132853031158447	18118355.608919043
2.116520881652832	17768752.242275428
2.1197516918182373	17419783.61160811
2.1229779720306396	17375769.204395257
2.12619948387146	17474215.40668578
2.1294167041778564	17516842.601243794
2.132629156112671	17496314.360669494
2.1358368396759033	17201614.05345652
2.139039993286133	16635584.63333716
2.1422386169433594	16032689.163319726
2.145432472229004	15457199.231441922
2.1486217975616455	15041152.76348011
2.151806354522705	14601558.314804858
2.1549863815307617	14547057.956584167
2.1581614017486572	14639611.193864502
2.16133189201355	14108322.226392323
2.1644976139068604	13635595.450902332
2.167658567428589	13602892.583088322
2.1708147525787354	13808979.165977076
2.173966407775879	13983213.808392324
2.1771130561828613	13855826.321883058
2.1802549362182617	13410365.929832807
2.183391809463501	12711722.881788647
2.1865241527557373	11908626.120850839
2.1896514892578125	10923074.9775488
2.1927738189697266	9217733.294307407
2.1958916187286377	6780112.860653302
2.1990041732788086	4696764.165345942
2.2021119594573975	3706777.852611508
2.2052149772644043	3540142.1879824493
2.208312749862671	3837786.9979959438
2.2114057540893555	4434975.060725524
2.214493751525879	4910189.034189098
2.217576742172241	4826754.638452541
2.2206547260284424	4527767.513950323
2.2237277030944824	4319603.407507516
2.2267956733703613	3781321.391539205
2.2298583984375	3004940.122334112
2.2329163551330566	2511782.718797439
2.235969066619873	2356793.850872333
2.2390167713165283	2229926.2407528227
2.2420592308044434	1895529.4373058854
2.2450966835021973	1546720.3323171674
2.248128890991211	1624060.6110915404
2.2511560916900635	1985705.4592747376
2.254178285598755	2180254.4856133736
2.257194995880127	2320577.6711566434
2.260206699371338	2340402.111845369
2.2632133960723877	1994882.0189110585
2.266214609146118	1604474.2749329128
2.2692108154296875	1505361.4946844846
2.2722020149230957	1722854.8028183368
2.2751877307891846	1985135.8796762796
2.278168201446533	1976393.8338269452
2.2811436653137207	1787876.3288141289
2.284113883972168	1645052.3310187627
2.287078857421875	1517769.929951121
2.290038824081421	1389495.399008916
2.2929933071136475	1384058.0442385473
2.295942783355713	1487656.819642339
2.298887014389038	1600841.557395726
2.301826238632202	1778654.5520427017
2.304760217666626	2252029.5577882417
2.3076889514923096	3065092.950347967
2.310612440109253	3755868.909074561
2.3135311603546143	3518087.2122096983
2.3164443969726562	2274136.7803123593
2.319352865219116	1232791.974443182
2.322256088256836	1016121.1254302564
2.3251543045043945	1056964.7654282176
2.328047275543213	1037485.1069347332
2.330935478210449	1032270.6180305535
2.3338186740875244	1030737.2596715179
2.3366971015930176	998160.3356533227
2.3395702838897705	962344.9549009352
2.3424389362335205	897196.9442436411
2.3453025817871094	797166.5451444277
2.348161458969116	759734.6221415732
2.351015567779541	903867.8960829417
2.353865146636963	1209856.1434270786
2.3567099571228027	1491159.6877473216
2.3595502376556396	1705076.9934431117
2.3623859882354736	1894055.9289955695
2.3652172088623047	1804698.7379916217
2.368043899536133	1292322.8394980624
2.370866537094116	770248.7953514566
2.3736846446990967	641886.8932168692
2.3764986991882324	758493.2742978652
2.3793084621429443	878107.7578475747
2.3821144104003906	1025820.0788006623
2.384916305541992	1269006.1513495375
2.387714147567749	1449998.8766156973
2.3905084133148193	1405171.4450754463
2.393299102783203	1328186.4896554456
2.3960859775543213	1379770.1492010728
2.398869514465332	1491918.254018797
2.4016497135162354	1504162.8133799105
2.4044265747070312	1456849.5364760724
2.407200336456299	1659507.9795320146
2.409970998764038	2094879.4000193411
2.4127390384674072	2380697.2258879016
2.415503978729248	2491078.08334421
2.418266534805298	2783378.6385214725
2.4210267066955566	3072048.948734588
2.4237842559814453	2814388.1852859175
2.426539897918701	2407612.9557660227
2.429293394088745	2645520.6942737238
2.4320452213287354	3236789.222075616
2.4347951412200928	3430246.9737299024
2.4375438690185547	3300155.142484289
2.440291166305542	3279354.8297835565
2.443037271499634	3210242.1114035286
2.445782423019409	2797310.033180368
2.4485268592834473	2268022.209086358
2.451270818710327	2142410.029935436
2.454014539718628	2614644.8455354883
2.4567582607269287	3068581.6864987374
2.4595019817352295	3075308.7540486655
2.4622461795806885	3259038.1383817326
2.4649908542633057	3333934.60509418
2.4677364826202393	2638855.1802605363
2.4704833030700684	1813872.5704643566
2.473231554031372	1322722.099240348
2.4759814739227295	1043434.6563894865
2.4787333011627197	937238.1700299322
