#wavelength	surface flux
0.6450077295303345	12675.615000447184
0.6472567915916443	19233.976186391068
0.6494921445846558	23474.628649568323
0.6517150402069092	24933.47247048674
0.6539263725280762	26219.68342353664
0.6561272740364075	27490.54535297984
0.6583186388015747	28794.5216778796
0.6605015397071838	30163.453371854994
0.6626768708229065	31575.10168193025
0.6648455858230591	32983.18936674514
0.6670085787773132	34051.0781981495
0.6691668033599854	34123.98593770035
0.6713210344314575	34770.91937423401
0.6734722256660461	37531.79022101724
0.6756211519241333	40351.597619896835
0.6777685880661011	42192.18944930721
0.6799154281616211	43867.5248120434
0.6820623278617859	45561.33444329531
0.6842101216316223	47286.177495363576
0.6863595843315125	49040.24293037549
0.688511312007904	50763.25881915501
0.6906660795211792	52255.784470960454
0.6928245425224304	53737.4018551733
0.6949873566627502	55799.269160444
0.6971551775932312	58108.22770639589
0.6993286609649658	60119.817361965506
0.7015084028244019	61997.48057850179
0.7036949396133423	64082.56004333117
0.7058889269828796	66364.96811674985
0.7080909013748169	68535.52404219017
0.710301399230957	70686.14568117315
0.712520956993103	72880.39738138589
0.7147500514984131	74635.11061546103
0.7169892191886902	76009.1416144857
0.7192389369010925	77956.03824250413
0.7214996814727783	80165.23924613597
0.723771870136261	81789.91988271031
0.7260559797286987	83232.0246599913
0.7283523678779602	84825.60024909217
0.7306615710258484	86788.97012263397
0.7329838871955872	89216.33199455662
0.7353196740150452	91369.77227346093
0.7376693487167358	93030.17289631549
0.7400332689285278	94213.93031739922
0.7424117922782898	94476.68200754118
0.7448052167892456	93873.04888312239
0.7472138404846191	92084.06251439944
0.7496379613876343	88320.35596070699
0.7520779371261597	81877.21179289753
0.7545340061187744	71964.76796163825
0.7570064663887024	58058.06889997236
0.7594954967498779	40670.19442559244
0.7620013952255249	22562.550873482716
0.7645244002342224	8711.23844628152
0.7670646905899048	2315.4271175036565
0.7696225643157959	2698.5462889423106
0.7721980810165405	11286.845619544045
0.7747915983200073	30157.95704322025
0.7774031162261963	53460.40689444325
0.7800329327583313	76559.30690938745
0.7826811671257019	102866.37599836382
0.7853479981422424	128721.10160669449
0.7880334854125977	148007.9559904855
0.7907378077507019	153450.04850120682
0.7934610247612	139942.50182771625
0.7962033748626709	147638.63122096413
0.7989648580551147	186900.181158241
0.801745593547821	213983.3562769397
0.8045456409454346	225617.2202735753
0.8073651194572449	234663.84824875562
0.8102040886878967	240956.42498464778
0.8130625486373901	248137.24969966538
0.8159406185150146	260375.68040154525
0.8188382983207703	273456.39962604706
0.8217556476593018	283324.08927936765
0.8246926665306091	293154.1880207536
0.8276493549346924	303469.93900354084
0.8306257724761963	312593.49494077184
0.8336219191551208	322164.2323015993
0.8366377949714661	331947.1521174168
0.8396733403205872	344187.36475192785
0.8427285552024841	360794.99819026876
0.8458034992218018	376893.47385691013
0.8488980531692505	390005.0448995156
0.8520121574401855	402473.222289173
0.8551458716392517	417087.60289401753
0.8582990765571594	432310.8052866154
0.8614717125892639	445697.98608760437
0.8646637797355652	459032.3059344549
0.8678751587867737	473896.4660786786
0.8711057901382446	489596.9926399541
0.8743556141853333	504077.18302742136
0.87762451171875	515832.76912168233
0.8809124231338501	525363.275232061
0.8842192888259888	534341.7919089989
0.8875449895858765	542652.4794864836
0.8908893465995789	545786.3092159852
0.894252359867096	548646.2392744969
0.8976338505744934	570228.558755841
0.9010337591171265	607175.9039354431
0.9044519662857056	638188.2417620646
0.9078882932662964	660367.9193173487
0.9113426208496094	678895.127905811
0.914814829826355	689510.1081776255
0.9183048605918884	701339.8916071721
0.9218124747276306	713211.074691049
0.925337553024292	667563.144021027
0.9288799166679382	565986.5071248092
0.9324395060539246	516751.60627099243
0.9360161423683167	556764.7458586909
0.9396095871925354	620728.313887384
0.943219780921936	624162.6382517446
0.9468464851379395	598344.9011774774
0.9504896402359009	626328.3500388908
0.9541489481925964	682721.5534254437
0.9578243494033813	700198.3081195334
0.9615156054496765	665997.3305720498
0.9652225375175476	659080.6995460504
0.9689450263977051	732986.5760013412
0.9726828336715698	853202.8957207224
0.9764357805252075	939155.811122129
0.9802037477493286	988029.5482545859
0.983986496925354	1040050.9032235278
0.9877838492393494	1098519.0352629847
0.9915955662727356	1162979.4338839403
0.9954215884208679	1220417.322587073
0.9992615580558777	1267438.014408154
1.0031154155731201	1308912.0752097748
1.0069829225540161	1353018.220645199
1.0108637809753418	1401849.8946904507
1.0147579908370972	1450675.918722951
1.018665075302124	1493010.133098579
1.022585153579712	1521835.4309200079
1.0265177488327026	1541954.5488133836
1.0304628610610962	1574257.7660888263
1.0344202518463135	1631752.876612307
1.0383895635604858	1690537.702371408
1.0423706769943237	1735209.6589268362
1.0463634729385376	1773153.3159550487
1.0503677129745483	1808702.5571638285
1.0543830394744873	1850937.982795589
1.058409333229065	1897915.6732244026
1.0624464750289917	1941424.0306563205
1.0664942264556885	1980216.6500229195
1.0705522298812866	2017303.37334733
1.0746204853057861	2059375.9582298687
1.0786986351013184	2105210.096236044
1.0827864408493042	2147820.8301464417
1.086883783340454	2174262.4919441673
1.0909905433654785	2176010.5341235898
1.0951062440872192	2132077.945462865
1.0992310047149658	1918318.8734799174
1.10336434841156	1583958.0269091215
1.1075061559677124	1450966.8710425098
1.1116561889648438	1410580.362386683
1.115814208984375	1243237.0812334786
1.1199802160263062	1098772.018648439
1.124153733253479	1106671.3007781073
1.1283347606658936	1179362.4647365736
1.1325229406356812	1148324.7270273464
1.1367181539535522	1256387.6870962402
1.1409201622009277	1549430.6316663194
1.145128846168518	1713987.0931609445
1.1493438482284546	1483745.7390446588
1.1535650491714478	988523.6683850118
1.1577922105789185	811446.9524932624
1.1620250940322876	1053960.7842429
1.1662636995315552	1435868.7610303569
1.170507550239563	1731084.7224077175
1.174756646156311	2053118.4470514792
1.1790107488632202	2471999.196551976
1.1832695007324219	2782167.3618956762
1.1875330209732056	2964906.6353231976
1.191800832748413	3135514.0069152205
1.1960728168487549	3328689.605933829
1.2003488540649414	3465852.954011409
1.2046287059783936	3548383.0030759806
1.2089121341705322	3629220.0831840667
1.2131990194320679	3718589.379286273
1.2174891233444214	3817875.6512532006
1.2217823266983032	3920774.6338101644
1.2260783910751343	4015846.640174642
1.230377197265625	4094350.3754862626
1.2346785068511963	4163174.296389849
1.238982081413269	4243213.132103907
1.2432878017425537	4322662.546695626
1.2475954294204712	4389737.845956331
1.2519049644470215	4456323.029833126
1.256216049194336	4529276.301534741
1.2605286836624146	4589629.427963079
1.2648425102233887	4635415.930618403
1.2691574096679688	4680221.285667379
1.2734732627868652	4731181.961562752
1.2777899503707886	4779257.349616836
1.2821072340011597	4805997.974586878
1.2864248752593994	4792114.212385916
1.2907428741455078	4739344.98259132
1.2950609922409058	4735546.551326766
1.2993791103363037	4744021.504404309
1.303696870803833	4685618.939103612
1.3080145120620728	4642311.809532233
1.3123314380645752	4681955.138095224
1.3166478872299194	4817555.301427393
1.3209635019302368	4754819.268782433
1.3252781629562378	4286330.6960996445
1.3295916318893433	3408302.4184808806
1.3339040279388428	2148015.7371774507
1.3382149934768677	979224.6999678054
1.3425244092941284	412406.59730029793
1.3468321561813354	326315.497485482
1.3511382341384888	246190.26017284798
1.3554422855377197	141833.51845311455
1.3597444295883179	114425.92410825232
1.3640443086624146	111945.84422119621
1.3683418035507202	162621.5216060868
1.3726370334625244	380197.5508583268
1.3769296407699585	633501.3419202571
1.381219506263733	502227.62577190873
1.3855066299438477	179495.86832979412
1.3897908926010132	69327.25961761824
1.3940720558166504	90433.54773975984
1.3983501195907593	155264.036532834
1.4026249647140503	308241.37854402745
1.4068963527679443	415074.1696070022
1.4111642837524414	306147.89230042684
1.4154287576675415	205065.3805011769
1.419689416885376	193361.47285649925
1.4239463806152344	177992.39969043652
1.4281994104385376	249522.0417976151
1.4324485063552856	356964.81933533616
1.436693549156189	419530.4325982208
1.440934419631958	523365.3055422828
1.4451709985733032	870394.426880316
1.449403166770935	1504253.075212579
1.453631043434143	1961194.6535958298
1.4578542709350586	2174741.4670875585
1.4620729684829712	2433305.1459676144
1.4662868976593018	2430323.4381381404
1.4704961776733398	2114138.7002451154
1.4747005701065063	1901881.5138995145
1.4788999557495117	2026495.7742001035
1.4830944538116455	2667759.8472605157
1.4872838258743286	3431788.4966235645
1.491468071937561	3673951.1759434836
1.4956470727920532	3549698.9158933833
1.4998208284378052	3749188.6408813028
1.5039892196655273	4215205.561046953
1.5081522464752197	4416909.256934306
1.5123097896575928	4686867.803052976
1.5164618492126465	5295046.719806045
1.5206083059310913	6048589.456356446
1.5247491598129272	6611702.936753714
1.5288842916488647	6785758.571312081
1.5330137014389038	6974306.718937613
1.5371372699737549	7305591.630252286
1.541254997253418	7521581.362726142
1.545366883277893	7710385.6276864065
1.5494728088378906	7948598.161945269
1.5535727739334106	8099332.179004911
1.5576666593551636	8113160.266178087
1.561754584312439	8248659.537374901
1.5658363103866577	8608391.048951134
1.5699119567871094	8819610.892707972
1.5739814043045044	8587227.553399602
1.5780447721481323	8132774.814952868
1.582101821899414	8265988.088312599
1.5861525535583496	8954308.253535138
1.5901970863342285	9259280.455556363
1.5942351818084717	9079414.432620488
1.5982669591903687	8768738.106109474
1.6022924184799194	8570402.29299547
1.606311559677124	8567890.035097856
1.6103241443634033	8476561.183297468
1.6143304109573364	8139656.020357465
1.6183301210403442	7659520.048774072
1.6223233938217163	7060185.299095355
1.6263102293014526	6374443.655877497
1.6302905082702637	5794338.946831319
1.634264349937439	6214885.166398436
1.638231635093689	7689804.199536909
1.6421923637390137	8419603.142284075
1.646146535873413	7601977.076000253
1.6500942707061768	6731490.760896412
1.6540353298187256	7130783.85436033
1.6579699516296387	7801184.280895613
1.661897897720337	7305890.095524024
1.6658192873001099	5559080.388647496
1.6697341203689575	4712175.268811459
1.6736423969268799	5866722.124446891
1.677544116973877	6593500.498047546
1.6814392805099487	6295440.947403023
1.6853278875350952	6024333.924565273
1.6892099380493164	5631206.101868763
1.6930854320526123	4848794.388381385
1.696954369544983	3953762.2828252227
1.7008168697357178	3693947.13639782
1.7046726942062378	4079640.7987574455
1.708522081375122	4697796.817598796
1.712364912033081	5328222.998720548
1.7162011861801147	5968938.498016066
1.7200311422348022	6580652.572955008
1.723854422569275	6736139.598743872
1.7276713848114014	6474852.052500131
1.731481909751892	6081209.995492028
1.7352858781814575	5718385.814306655
1.7390835285186768	5606376.822279007
1.7428747415542603	5513271.079833694
1.7466596364974976	5141344.856423897
1.7504380941390991	4590461.392388073
1.7542102336883545	4277306.42106833
1.7579760551452637	4883570.817681604
1.7617355585098267	5522977.908494314
1.7654887437820435	4970770.570652668
1.7692357301712036	3734201.5621332754
1.7729763984680176	2416812.990350094
1.776710867881775	1348472.2789311765
1.7804391384124756	971467.1156461431
1.7841613292694092	1001972.5024860182
1.7878772020339966	879273.8973507455
1.7915871143341064	975853.367659127
1.7952908277511597	1570962.0039183015
1.7989884614944458	1867524.1388320508
1.8026801347732544	1193332.4213145624
1.806365728378296	428504.194141297
1.8100452423095703	403035.21698595164
1.8137187957763672	543615.7083272445
1.817386507987976	453608.7540337911
1.8210482597351074	558254.1638554439
1.8247040510177612	616990.2407075344
1.828354001045227	308709.782742404
1.8319982290267944	182029.03174317387
1.8356364965438843	400026.04758428317
1.8392690420150757	641507.9294339161
1.8428958654403687	643919.7624772987
1.8465168476104736	669762.2657840131
1.8501322269439697	872081.885986078
1.8537418842315674	752449.4290766366
1.8573459386825562	458588.7947575334
1.860944390296936	334282.5651872664
1.864537239074707	198209.36227172645
1.8681244850158691	158892.8872010204
1.871706247329712	342213.4612966842
1.8752825260162354	727412.3755387675
1.8788533210754395	1520930.7190034257
1.8824186325073242	2177889.1313433135
1.8859784603118896	1957649.10851313
1.8895330429077148	1665346.0848576296
1.8930821418762207	2152380.7647093753
1.8966259956359863	2165787.168539553
1.9001644849777222	1001166.0254327767
1.9036977291107178	199374.68660556263
1.9072256088256836	166843.87726933535
1.9107483625411987	165204.41918261396
1.9142658710479736	88832.25130585689
1.9177782535552979	93167.4142817204
1.9212853908538818	156470.62654117343
1.9247875213623047	164666.59395398622
1.9282845258712769	179235.44211695818
1.9317764043807983	271274.62445185904
1.9352631568908691	332678.8738084162
1.9387450218200684	351984.3201945781
1.942221760749817	459643.1072050583
1.9456936120986938	619954.7806522029
1.9491604566574097	834361.6290657279
1.952622413635254	842409.4374929875
1.956079363822937	592483.9350116765
1.959531545639038	519485.5250176825
1.962978720664978	611048.0226793741
1.966421127319336	952013.994818805
1.9698586463928223	1589617.373273112
1.9732913970947266	1933340.904428966
1.9767193794250488	2113726.262219669
1.9801424741744995	2648547.3595477766
1.9835609197616577	3253800.602751131
1.9869745969772339	3317772.145003019
1.990383505821228	2813258.843561143
1.9937876462936401	2744124.2045193524
1.9971871376037598	2921538.9260516693
2.000581979751587	3215784.6490429332
2.003972291946411	4219101.909515351
2.007357597351074	5250468.626769413
2.0107386112213135	6171500.880993747
2.0141148567199707	6340980.304655423
2.017486572265625	5563930.429964165
2.0208535194396973	5698873.616407306
2.0242159366607666	6660832.497901441
2.027573823928833	7354208.736685816
2.0309269428253174	8027045.853508433
2.034275770187378	8640500.329737835
2.0376198291778564	9137423.10973017
2.040959596633911	9896975.56105927
2.044294595718384	10838329.775108526
2.0476250648498535	11592168.283163715
2.0509510040283203	11591815.557179518
2.054272413253784	11060127.321479367
2.057589530944824	11170651.443798414
2.0609018802642822	11830065.289076556
2.0642096996307373	12327668.353090797
2.0675129890441895	12611016.15167512
2.0708119869232178	12741123.303747972
2.074106216430664	12674389.16600308
2.0773961544036865	12578687.329524409
2.080681324005127	12658929.104783742
2.0839622020721436	12726425.65508529
2.087238311767578	12729840.10744691
2.090510129928589	12693709.23184602
2.0937774181365967	12537702.701360594
2.0970399379730225	12422902.737497557
2.1002981662750244	12346603.889773007
2.1035518646240234	12176875.598611834
2.1068007946014404	11974851.540411098
2.1100454330444336	11913421.085017633
2.1132853031158447	11834396.472385392
2.116520881652832	11464633.818878928
2.1197516918182373	11103072.39779462
2.1229779720306396	11012103.4002377
2.12619948387146	11070037.709862392
2.1294167041778564	11095663.334037304
2.132629156112671	11063919.079155838
2.1358368396759033	10778043.803218085
2.139039993286133	10251040.655169087
2.1422386169433594	9689704.64683218
2.145432472229004	9135868.930683693
2.1486217975616455	8729776.102880673
2.151806354522705	8317729.495727116
2.1549863815307617	8277891.382662857
2.1581614017486572	8393653.671140203
2.16133189201355	7920985.797748446
2.1644976139068604	7479433.625896165
2.167658567428589	7458698.087023819
2.1708147525787354	7690526.974865813
2.173966407775879	7930463.060393717
2.1771130561828613	7889544.223896907
2.1802549362182617	7527291.864502259
2.183391809463501	6953454.601214313
2.1865241527557373	6333302.604021369
2.1896514892578125	5621194.936737034
2.1927738189697266	4488046.829312947
2.1958916187286377	2984286.0137547655
2.1990041732788086	1801390.9453285232
2.2021119594573975	1312283.6103315654
2.2052149772644043	1300731.3696206822
2.208312749862671	1512587.7710479945
2.2114057540893555	1803343.9884598756
2.214493751525879	1980533.0446547319
2.217576742172241	1886109.709819137
2.2206547260284424	1705058.1213586966
2.2237277030944824	1601122.2636115581
2.2267956733703613	1381485.58304998
2.2298583984375	1055167.2679648958
2.2329163551330566	841229.8177886168
2.235969066619873	768780.3048252597
2.2390167713165283	714067.9936140801
2.2420592308044434	581621.6779551909
2.2450966835021973	437201.3420711703
2.248128890991211	458156.0467864518
2.2511560916900635	604662.6676050962
2.254178285598755	691957.9102305723
2.257194995880127	754465.2408453436
2.260206699371338	766636.9706491439
2.2632133960723877	640566.185289059
2.266214609146118	506902.2386500562
2.2692108154296875	479921.1440451318
2.2722020149230957	564734.9474015449
2.2751877307891846	666998.7313964792
2.278168201446533	665796.1060178931
2.2811436653137207	595569.7400882659
2.284113883972168	548169.5398841726
2.287078857421875	506456.10820489854
2.290038824081421	456171.03950686404
2.2929933071136475	451891.03381871205
2.295942783355713	489556.22701344505
2.298887014389038	519694.22173592675
2.301826238632202	575574.8477278396
2.304760217666626	806773.7820724708
2.3076889514923096	1256750.3879780306
2.310612440109253	1652141.6198329255
2.3135311603546143	1543017.8439710964
2.3164443969726562	922083.8343668977
2.319352865219116	431405.52182969527
2.322256088256836	350565.1949310335
2.3251543045043945	381961.81103204354
2.328047275543213	377159.383951361
2.330935478210449	369389.11255254416
2.3338186740875244	361552.3302364086
2.3366971015930176	341965.6487238647
2.3395702838897705	322555.3940304504
2.3424389362335205	293634.8995932718
2.3453025817871094	252510.72879694993
2.348161458969116	237188.7304913579
2.351015567779541	292340.9619343504
2.353865146636963	408094.22046370356
2.3567099571228027	512497.3445307302
2.3595502376556396	592440.1053514308
2.3623859882354736	664238.6886181121
2.3652172088623047	625817.0545364649
2.368043899536133	429344.01488871005
2.370866537094116	241251.51883242928
2.3736846446990967	203022.16372767967
2.3764986991882324	254432.31830946836
2.3793084621429443	313708.56641049084
2.3821144104003906	385233.78974371066
2.384916305541992	484411.2576672647
2.387714147567749	545209.2604580625
2.3905084133148193	509312.0128578046
2.393299102783203	469599.84965490014
2.3960859775543213	494484.73888134415
2.398869514465332	548173.6851553402
2.4016497135162354	557976.3789289913
2.4044265747070312	543269.8681071647
2.407200336456299	642456.4393218035
2.409970998764038	848698.9797157503
2.4127390384674072	983189.3069364745
2.415503978729248	1029566.6174877486
2.418266534805298	1168722.6939417664
2.4210267066955566	1319297.6390066736
2.4237842559814453	1204308.4951565317
2.426539897918701	1025517.0481428965
2.429293394088745	1193052.5867986465
2.4320452213287354	1527294.802148989
2.4347951412200928	1611092.0139206587
2.4375438690185547	1528398.4652635064
2.440291166305542	1562220.8301464873
2.443037271499634	1584748.48819634
2.445782423019409	1370654.319694902
2.4485268592834473	1067175.410751181
2.451270818710327	1008056.9615820152
2.454014539718628	1270876.4128953647
2.4567582607269287	1506744.295860606
2.4595019817352295	1543785.9759586903
2.4622461795806885	1686740.7441941365
2.4649908542633057	1728509.0902992499
2.4677364826202393	1343276.1060425295
2.4704833030700684	901095.6924167061
2.473231554031372	658079.432121456
2.4759814739227295	530578.2979518204
2.4787333011627197	477115.7142749891
2.481487512588501	516971.96284352406
2.4842441082000732	569320.7571284644
