#wavelength	surface flux
0.6450077295303345	123767.07330116209
0.6472567915916443	186577.09076075678
0.6494921445846558	224776.20616717092
0.6517150402069092	235006.89167045883
0.6539263725280762	243697.5398683322
0.6561272740364075	252417.1782071992
0.6583186388015747	261301.5492795159
0.6605015397071838	270409.4212697856
0.6626768708229065	279621.315684518
0.6648455858230591	288773.1963049242
0.6670085787773132	294523.5386897743
0.6691668033599854	290156.49467305886
0.6713210344314575	291411.87633306684
0.6734722256660461	313733.37009993865
0.6756211519241333	336489.11492850224
0.6777685880661011	349289.3864534551
0.6799154281616211	360216.5680121928
0.6820623278617859	371230.8178818739
0.6842101216316223	382560.94690601353
0.6863595843315125	394022.24639602506
0.688511312007904	405385.60586662916
0.6906660795211792	416246.4199616987
0.6928245425224304	427421.9777125399
0.6949873566627502	440327.2880603878
0.6971551775932312	453858.1103575378
0.6993286609649658	466769.9343231951
0.7015084028244019	479541.07792634756
0.7036949396133423	492863.1789031564
0.7058889269828796	506727.2971905351
0.7080909013748169	520515.1409488846
0.710301399230957	534437.5172649219
0.712520956993103	548680.4263591017
0.7147500514984131	562251.2907162103
0.7169892191886902	575255.6723338407
0.7192389369010925	589612.4392562346
0.7214996814727783	604729.1431724185
0.723771870136261	619099.6160406643
0.7260559797286987	633369.491900668
0.7283523678779602	647801.5676002773
0.7306615710258484	662787.7536019317
0.7329838871955872	678753.6547620705
0.7353196740150452	694363.3031141721
0.7376693487167358	709133.7097935668
0.7400332689285278	722870.6610936421
0.7424117922782898	734246.7378374243
0.7448052167892456	742999.5161717176
0.7472138404846191	747784.3075101203
0.7496379613876343	745440.3609357747
0.7520779371261597	731429.1086470725
0.7545340061187744	697870.3818498435
0.7570064663887024	631444.2202636166
0.7594954967498779	513064.67365756544
0.7620013952255249	335650.27811808133
0.7645244002342224	150054.89843313798
0.7670646905899048	42424.510131307514
0.7696225643157959	47270.37328765353
0.7721980810165405	179818.88140037068
0.7747915983200073	414591.2537092414
0.7774031162261963	635119.0090973908
0.7800329327583313	788390.1585726931
0.7826811671257019	922435.8201698132
0.7853479981422424	1039432.866803645
0.7880334854125977	1118024.5615435655
0.7907378077507019	1128655.223091841
0.7934610247612	1037408.1926154611
0.7962033748626709	1052325.2466897792
0.7989648580551147	1242653.3803727895
0.801745593547821	1374664.870412401
0.8045456409454346	1423868.5299119842
0.8073651194572449	1465008.212273759
0.8102040886878967	1501478.2876981534
0.8130625486373901	1540331.6978372778
0.8159406185150146	1587987.9511727279
0.8188382983207703	1636932.7136955273
0.8217556476593018	1681637.995143459
0.8246926665306091	1727367.45706621
0.8276493549346924	1774305.447673744
0.8306257724761963	1819893.9969452852
0.8336219191551208	1866437.856798291
0.8366377949714661	1913232.1806194922
0.8396733403205872	1964127.321751479
0.8427285552024841	2022422.2907596573
0.8458034992218018	2080609.7444622403
0.8488980531692505	2134241.2734096153
0.8520121574401855	2187555.7564613405
0.8551458716392517	2246949.6448244783
0.8582990765571594	2305639.748127837
0.8614717125892639	2352926.71839576
0.8646637797355652	2402736.7870154195
0.8678751587867737	2466685.416435601
0.8711057901382446	2533408.1788014653
0.8743556141853333	2596301.7840824584
0.87762451171875	2655822.80383214
0.8809124231338501	2715239.6232583
0.8842192888259888	2778936.392423091
0.8875449895858765	2839024.2073196243
0.8908893465995789	2884771.74356229
0.894252359867096	2933962.281479286
0.8976338505744934	3015256.158543859
0.9010337591171265	3115278.67908368
0.9044519662857056	3206999.0742186233
0.9078882932662964	3288468.1570248385
0.9113426208496094	3363172.469110759
0.914814829826355	3426136.131703838
0.9183048605918884	3492030.5717604696
0.9218124747276306	3555046.6806649785
0.925337553024292	3516611.0829289593
0.9288799166679382	3382735.237614133
0.9324395060539246	3362156.839427102
0.9360161423683167	3508650.1528713484
0.9396095871925354	3678699.7875980507
0.943219780921936	3742156.162788467
0.9468464851379395	3757862.5384187284
0.9504896402359009	3854395.9538347097
0.9541489481925964	3992609.7600386925
0.9578243494033813	4062703.2428683923
0.9615156054496765	4048227.0901749833
0.9652225375175476	4082680.4156067334
0.9689450263977051	4252387.381449496
0.9726828336715698	4511602.770272535
0.9764357805252075	4721372.7398387
0.9802037477493286	4859114.818163536
0.983986496925354	4995097.5923761735
0.9877838492393494	5140094.081327116
0.9915955662727356	5293132.652442258
0.9954215884208679	5435276.873131529
0.9992615580558777	5560903.118652454
1.0031154155731201	5681106.042752699
1.0069829225540161	5813634.1349162115
1.0108637809753418	5959343.542114969
1.0147579908370972	6106097.001541018
1.018665075302124	6239911.563780211
1.022585153579712	6348394.166939117
1.0265177488327026	6442107.785227369
1.0304628610610962	6558941.679128537
1.0344202518463135	6719275.740984858
1.0383895635604858	6880393.415020065
1.0423706769943237	7017579.060938741
1.0463634729385376	7144537.474795421
1.0503677129745483	7268739.393258022
1.0543830394744873	7404967.19462926
1.058409333229065	7547345.854156334
1.0624464750289917	7682326.520193799
1.0664942264556885	7811647.397784746
1.0705522298812866	7940773.734895535
1.0746204853057861	8078395.738317323
1.0786986351013184	8221712.743773436
1.0827864408493042	8359536.699490685
1.086883783340454	8471730.707977982
1.0909905433654785	8544135.201983908
1.0951062440872192	8548064.837176932
1.0992310047149658	8281635.9033498075
1.10336434841156	7802381.812083712
1.1075061559677124	7642247.975690753
1.1116561889648438	7655446.770518017
1.115814208984375	7493399.919591557
1.1199802160263062	7416816.98550847
1.124153733253479	7633135.666849841
1.1283347606658936	7833659.0190319745
1.1325229406356812	7623966.388655703
1.1367181539535522	7795595.128600653
1.1409201622009277	8563549.223087521
1.145128846168518	9022830.331357775
1.1493438482284546	8640982.394676987
1.1535650491714478	7774495.05295334
1.1577922105789185	7543226.82207793
1.1620250940322876	8111101.616842461
1.1662636995315552	8906242.726473635
1.170507550239563	9466558.487803819
1.174756646156311	9988932.482843757
1.1790107488632202	10680719.659209244
1.1832695007324219	11207881.168942617
1.1875330209732056	11527651.147071568
1.191800832748413	11822679.729435474
1.1960728168487549	12154318.55170715
1.2003488540649414	12408770.991381863
1.2046287059783936	12585911.007401144
1.2089121341705322	12768628.032650381
1.2131990194320679	12979695.24251216
1.2174891233444214	13209283.589227526
1.2217823266983032	13433244.712419908
1.2260783910751343	13637783.560986515
1.230377197265625	13823194.73800919
1.2346785068511963	13997913.08865057
1.238982081413269	14182716.929245904
1.2432878017425537	14365697.81533819
1.2475954294204712	14523756.630061565
1.2519049644470215	14671067.364419641
1.256216049194336	14855119.469137345
1.2605286836624146	15037533.144341445
1.2648425102233887	15179966.594063347
1.2691574096679688	15316536.43305665
1.2734732627868652	15464173.054032499
1.2777899503707886	15612484.822333716
1.2821072340011597	15739717.054310616
1.2864248752593994	15823585.402952863
1.2907428741455078	15866864.347353619
1.2950609922409058	15966721.422140863
1.2993791103363037	16079361.594766198
1.303696870803833	16117312.352013651
1.3080145120620728	16198015.503211152
1.3123314380645752	16380500.829128211
1.3166478872299194	16600834.390506832
1.3209635019302368	16567836.766047994
1.3252781629562378	16039145.94574841
1.3295916318893433	14571093.016324803
1.3339040279388428	11465502.987681406
1.3382149934768677	7410690.1016330505
1.3425244092941284	5195354.2170615
1.3468321561813354	5329844.2114292495
1.3511382341384888	4798457.856499655
1.3554422855377197	3657510.7201785487
1.3597444295883179	3413501.0229960117
1.3640443086624146	3774836.8497372037
1.3683418035507202	4647907.778588159
1.3726370334625244	6563060.051539394
1.3769296407699585	8239062.395123115
1.381219506263733	6654053.06852581
1.3855066299438477	3773965.136896289
1.3897908926010132	2860226.58570788
1.3940720558166504	3064055.654287382
1.3983501195907593	3601153.276921329
1.4026249647140503	5191183.803899143
1.4068963527679443	6470258.91589832
1.4111642837524414	5373411.203344581
1.4154287576675415	4447539.888138835
1.419689416885376	4633384.914951908
1.4239463806152344	4555861.37534933
1.4281994104385376	5172531.6853605425
1.4324485063552856	5630995.119546323
1.436693549156189	5592262.086379919
1.440934419631958	6481673.590804283
1.4451709985733032	8468820.822806327
1.449403166770935	10888457.853729103
1.453631043434143	12377581.393391958
1.4578542709350586	13031331.406518497
1.4620729684829712	13732991.990724338
1.4662868976593018	13864703.79303399
1.4704961776733398	13407814.155825986
1.4747005701065063	13325253.462338507
1.4788999557495117	13869199.30677391
1.4830944538116455	15126062.462985715
1.4872838258743286	16455995.091640206
1.491468071937561	16871391.97063329
1.4956470727920532	16849836.196759272
1.4998208284378052	17478293.4992028
1.5039892196655273	18379072.76499295
1.5081522464752197	18639003.312924594
1.5123097896575928	18929727.992343538
1.5164618492126465	19773960.911586653
1.5206083059310913	20893409.200412888
1.5247491598129272	21682919.82327381
1.5288842916488647	21867617.59236058
1.5330137014389038	22147815.55451019
1.5371372699737549	22612838.523027938
1.541254997253418	22838538.881009016
1.545366883277893	23089493.338846862
1.5494728088378906	23490073.5559289
1.5535727739334106	23727561.107535098
1.5576666593551636	23713252.106847737
1.561754584312439	23874937.069478277
1.5658363103866577	24385846.93405711
1.5699119567871094	24735892.44415542
1.5739814043045044	24600042.978091795
1.5780447721481323	24280361.37698688
1.582101821899414	24545946.988376003
1.5861525535583496	25293707.729831412
1.5901970863342285	25661546.09364627
1.5942351818084717	25619276.822706964
1.5982669591903687	25504514.43917182
1.6022924184799194	25528374.22879858
1.606311559677124	25699093.703873795
1.6103241443634033	25765721.148296732
1.6143304109573364	25685061.192276906
1.6183301210403442	25560401.00068331
1.6223233938217163	25424278.33360695
1.6263102293014526	25259392.00670099
1.6302905082702637	25048630.006311763
1.634264349937439	25357021.19598728
1.638231635093689	26294657.2196886
1.6421923637390137	26829510.473626424
1.646146535873413	26531987.669358887
1.6500942707061768	26159092.55460653
1.6540353298187256	26418955.237876438
1.6579699516296387	26793749.784014914
1.661897897720337	26289311.395676352
1.6658192873001099	24736826.545201894
1.6697341203689575	24206381.682941634
1.6736423969268799	25616509.622845784
1.677544116973877	26602261.35631951
1.6814392805099487	26595650.878501724
1.6853278875350952	26501942.584280565
1.6892099380493164	26176815.36164023
1.6930854320526123	25299903.819322303
1.696954369544983	24357397.15042378
1.7008168697357178	24253146.2048586
1.7046726942062378	24679345.86670351
1.708522081375122	25122835.506261382
1.712364912033081	25523971.43270155
1.7162011861801147	25984983.44517392
1.7200311422348022	26490594.313843835
1.723854422569275	26604173.88393444
1.7276713848114014	26292291.16990781
1.731481909751892	25651313.93187439
1.7352858781814575	24899414.64619779
1.7390835285186768	24393093.74555055
1.7428747415542603	23800830.714553192
1.7466596364974976	22793958.795342106
1.7504380941390991	21451480.2284698
1.7542102336883545	20584463.889341254
1.7579760551452637	21981957.21243627
1.7617355585098267	23798309.226177886
1.7654887437820435	22796651.41494944
1.7692357301712036	19718641.90161944
1.7729763984680176	15799040.995474823
1.776710867881775	11760542.38573461
1.7804391384124756	10134257.15683814
1.7841613292694092	10296780.102570731
1.7878772020339966	9514992.297342718
1.7915871143341064	9770097.641362054
1.7952908277511597	11410410.067608569
1.7989884614944458	11218662.551027382
1.8026801347732544	8183303.002649289
1.806365728378296	4922607.955552271
1.8100452423095703	4989235.817824148
1.8137187957763672	6271422.069168269
1.817386507987976	5593858.616147203
1.8210482597351074	6443996.7258531675
1.8247040510177612	7184143.86569729
1.828354001045227	4789914.263153202
1.8319982290267944	4180865.763169269
1.8356364965438843	6446281.146358666
1.8392690420150757	8579136.322078098
1.8428958654403687	8977026.172438791
1.8465168476104736	8800173.88360361
1.8501322269439697	8655382.565681105
1.8537418842315674	6691634.87703364
1.8573459386825562	4979812.943576643
1.860944390296936	4530122.088843985
1.864537239074707	3724306.9004516043
1.8681244850158691	4299440.94594824
1.871706247329712	6747250.043313655
1.8752825260162354	9258609.464358037
1.8788533210754395	11872922.54969876
1.8824186325073242	13683719.242190499
1.8859784603118896	12948441.125948729
1.8895330429077148	12172987.285494702
1.8930821418762207	13833942.573759781
1.8966259956359863	13478581.04045625
1.9001644849777222	8450769.139023999
1.9036977291107178	4760087.815446683
1.9072256088256836	5241715.02165852
1.9107483625411987	5222076.222436635
1.9142658710479736	3341347.0357893948
1.9177782535552979	3131377.14413124
1.9212853908538818	4330591.076644888
1.9247875213623047	4421347.980744154
1.9282845258712769	4557330.500864451
1.9317764043807983	5837922.929748866
1.9352631568908691	6412507.069601363
1.9387450218200684	5995124.036285952
1.942221760749817	6302567.26600393
1.9456936120986938	6997024.3578289775
1.9491604566574097	7576878.254934006
1.952622413635254	7219983.673946611
1.956079363822937	6038888.551751482
1.959531545639038	6092071.583880562
1.962978720664978	6744929.512950602
1.966421127319336	8220250.13928258
1.9698586463928223	10833538.372240115
1.9732913970947266	12118627.190492002
1.9767193794250488	12747285.01723416
1.9801424741744995	14560592.889063744
1.9835609197616577	16351377.709035248
1.9869745969772339	16419695.796211665
1.990383505821228	14719872.349542359
1.9937876462936401	14136948.743865991
1.9971871376037598	14467685.12313412
2.000581979751587	15331838.797768468
2.003972291946411	17955766.085433736
2.007357597351074	20047698.26501024
2.0107386112213135	21641625.98573829
2.0141148567199707	22286942.404744364
2.017486572265625	21069278.552968245
2.0208535194396973	21468045.687576763
2.0242159366607666	23697655.51693201
2.027573823928833	25056906.990048595
2.0309269428253174	25837174.84747438
2.034275770187378	26828141.75071435
2.0376198291778564	27602010.5279773
2.040959596633911	28237687.71666465
2.044294595718384	29103616.86625044
2.0476250648498535	29991324.051481366
2.0509510040283203	30175369.66747765
2.054272413253784	29750238.427015617
2.057589530944824	29909610.294028737
2.0609018802642822	30603751.315322053
2.0642096996307373	31158011.076626435
2.0675129890441895	31522327.415214427
2.0708119869232178	31688407.634779345
2.074106216430664	31610850.87418688
2.0773961544036865	31533751.79380718
2.080681324005127	31690840.548088152
2.0839622020721436	31904874.560105667
2.087238311767578	32051085.247036498
2.090510129928589	32049229.955839567
2.0937774181365967	31914896.25364144
2.0970399379730225	31897507.473572053
2.1002981662750244	31926395.799289268
2.1035518646240234	31787577.546909105
2.1068007946014404	31582540.49208121
2.1100454330444336	31709994.19003222
2.1132853031158447	31996835.661507465
2.116520881652832	31922003.278401442
2.1197516918182373	31774131.853612598
2.1229779720306396	31862728.8272803
2.12619948387146	32003972.7569914
2.1294167041778564	32055020.756357282
2.132629156112671	32072436.42986918
2.1358368396759033	31927710.711013872
2.139039993286133	31595403.73005824
2.1422386169433594	31272467.81344623
2.145432472229004	31010051.059889473
2.1486217975616455	30807265.337189637
2.151806354522705	30552373.226131774
2.1549863815307617	30505350.3284996
2.1581614017486572	30568482.985267796
2.16133189201355	30319401.71533608
2.1644976139068604	30089135.14486675
2.167658567428589	30047520.099901915
2.1708147525787354	30065319.113997992
2.173966407775879	30005858.872727614
2.1771130561828613	29839143.52234271
2.1802549362182617	29628985.97943479
2.183391809463501	29279213.26339164
2.1865241527557373	28776547.43807813
2.1896514892578125	28048330.771929197
2.1927738189697266	26508584.632410035
2.1958916187286377	23926754.658264365
2.1990041732788086	21386216.268705774
2.2021119594573975	19947077.111638404
2.2052149772644043	19452073.71122968
2.208312749862671	19720030.58532038
2.2114057540893555	20725524.320825905
2.214493751525879	21627761.5397453
2.217576742172241	21621744.798788346
2.2206547260284424	21276969.603032053
2.2237277030944824	20959303.216092065
2.2267956733703613	19864787.031427514
2.2298583984375	18255276.08139276
2.2329163551330566	17222508.46360861
2.235969066619873	16936175.638397563
2.2390167713165283	16592928.003668996
2.2420592308044434	15424729.67195071
2.2450966835021973	14109463.675064642
2.248128890991211	14270939.63915207
2.2511560916900635	15524050.54990881
2.254178285598755	16275578.321334083
2.257194995880127	16712232.912106158
2.260206699371338	16731525.681805057
2.2632133960723877	15512452.131663067
2.266214609146118	13916505.413483383
2.2692108154296875	13357041.106406776
2.2722020149230957	14122369.129272357
2.2751877307891846	15094634.98504845
2.278168201446533	15027087.990487615
2.2811436653137207	14222735.613291413
2.284113883972168	13564553.419847988
2.287078857421875	13003009.980106892
2.290038824081421	12327804.964744505
2.2929933071136475	11725643.567938173
2.295942783355713	11165653.936866602
2.298887014389038	10582265.2688212
2.301826238632202	10221469.689332359
2.304760217666626	10350464.565824233
2.3076889514923096	10976000.832841504
2.310612440109253	11810027.763200432
2.3135311603546143	11695185.100438373
2.3164443969726562	9716848.03384386
2.319352865219116	7549491.746544022
2.322256088256836	6846849.104639305
2.3251543045043945	6800607.739218782
2.328047275543213	6716574.256465281
2.330935478210449	6852650.259351601
2.3338186740875244	7106304.388298739
2.3366971015930176	7287058.766437984
2.3395702838897705	7440430.836199687
2.3424389362335205	7445010.766879258
2.3453025817871094	7317869.712494827
2.348161458969116	7328402.804873802
2.351015567779541	7824589.199830579
2.353865146636963	8800282.388986489
2.3567099571228027	9613973.071360031
2.3595502376556396	10263666.16394999
2.3623859882354736	11118658.428071424
2.3652172088623047	10985151.459015612
2.368043899536133	8778590.487543082
2.370866537094116	6411890.137808201
2.3736846446990967	6116967.525746378
2.3764986991882324	6590391.517191073
2.3793084621429443	6428036.547638797
2.3821144104003906	6600142.309893983
2.384916305541992	7860507.893021158
2.387714147567749	9397467.814023111
2.3905084133148193	10043793.11100017
2.393299102783203	9913660.687886413
2.3960859775543213	9434682.519196777
2.398869514465332	8993708.12847105
2.4016497135162354	8656347.32290188
2.4044265747070312	8443121.969488043
2.407200336456299	9027279.4611789
2.409970998764038	10191979.013594957
2.4127390384674072	10907356.818932593
2.415503978729248	11260350.633366263
2.418266534805298	12062829.262721345
2.4210267066955566	12744071.796452276
2.4237842559814453	12154022.353710482
2.426539897918701	11082777.048178144
2.429293394088745	11084657.277339194
2.4320452213287354	11923832.828671735
2.4347951412200928	12450612.835381007
2.4375438690185547	12397167.729067232
2.440291166305542	12021561.812378362
2.443037271499634	11251720.073672378
2.445782423019409	10076618.400900837
2.4485268592834473	8886108.56902745
2.451270818710327	8493983.163577788
2.454014539718628	9752254.17297987
2.4567582607269287	11202699.041083612
2.4595019817352295	10935193.66345212
2.4622461795806885	10941192.85136241
2.4649908542633057	11098085.321133992
2.4677364826202393	9222379.188720059
2.4704833030700684	6738546.637395138
2.473231554031372	4968851.196185204
2.4759814739227295	3828854.951335895
2.4787333011627197	3448503.822650278
2.481487512588501	4035802.0784753053
