#wavelength	surface flux
0.6450077295303345	192644.01759005192
0.6472567915916443	291113.65412045666
0.6494921445846558	352478.6161849797
0.6517150402069092	370688.6833054207
0.6539263725280762	386127.6616455551
0.6561272740364075	401275.91948547453
0.6583186388015747	416648.4916843422
0.6605015397071838	432322.2033038257
0.6626768708229065	447692.33677712036
0.6648455858230591	462280.1085547975
0.6670085787773132	465320.83842018613
0.6691668033599854	436205.8716609129
0.6713210344314575	423564.4651706858
0.6734722256660461	478089.851185138
0.6756211519241333	537345.5988234496
0.6777685880661011	564433.0431231085
0.6799154281616211	583023.1387253483
0.6820623278617859	601307.789634097
0.6842101216316223	620646.398718379
0.6863595843315125	639678.6161801917
0.688511312007904	657358.2441099061
0.6906660795211792	672741.2882149997
0.6928245425224304	689174.7486490384
0.6949873566627502	711075.2429199478
0.6971551775932312	734225.9795063017
0.6993286609649658	754660.870568469
0.7015084028244019	773990.5707763955
0.7036949396133423	794251.6140627332
0.7058889269828796	815510.1945605237
0.7080909013748169	836106.4681837352
0.710301399230957	856524.8197298815
0.712520956993103	877016.1691381289
0.7147500514984131	894640.9888894772
0.7169892191886902	909868.321311089
0.7192389369010925	928274.8057993201
0.7214996814727783	948237.3819179313
0.723771870136261	965388.6666138401
0.7260559797286987	981199.4437806195
0.7283523678779602	996174.7685155078
0.7306615710258484	1011018.811252763
0.7329838871955872	1026582.9064196344
0.7353196740150452	1039411.9891536088
0.7376693487167358	1048082.0410631829
0.7400332689285278	1051671.1883732476
0.7424117922782898	1046277.6772310084
0.7448052167892456	1030825.230925369
0.7472138404846191	1002014.991111438
0.7496379613876343	953117.3978044398
0.7520779371261597	877125.8069110699
0.7545340061187744	766364.4116651125
0.7570064663887024	616093.020751609
0.7594954967498779	432290.06212179275
0.7620013952255249	241933.52039239017
0.7645244002342224	94087.6402286158
0.7670646905899048	23907.708234796024
0.7696225643157959	27553.633882593185
0.7721980810165405	117685.42319118009
0.7747915983200073	308622.3526542386
0.7774031162261963	535112.2628021906
0.7800329327583313	754095.6651386159
0.7826811671257019	1007974.0389061586
0.7853479981422424	1257869.1919897192
0.7880334854125977	1438037.4525163542
0.7907378077507019	1480260.9229615692
0.7934610247612	1337615.6349563256
0.7962033748626709	1399445.3270138858
0.7989648580551147	1765161.8902065416
0.801745593547821	2012167.9082977336
0.8045456409454346	2109139.090452251
0.8073651194572449	2184608.397962394
0.8102040886878967	2245535.510821942
0.8130625486373901	2310941.011003264
0.8159406185150146	2395360.3439607103
0.8188382983207703	2480439.360244566
0.8217556476593018	2557272.530890399
0.8246926665306091	2636511.333895093
0.8276493549346924	2714071.0320502976
0.8306257724761963	2785511.2912079464
0.8336219191551208	2857955.901334871
0.8366377949714661	2929340.8112374335
0.8396733403205872	3009949.401649151
0.8427285552024841	3108674.5634162584
0.8458034992218018	3204751.516582859
0.8488980531692505	3281944.6968283392
0.8520121574401855	3355154.216682355
0.8551458716392517	3454207.5587327196
0.8582990765571594	3551151.9756458118
0.8614717125892639	3601236.472704554
0.8646637797355652	3656348.2189513645
0.8678751587867737	3759172.960033433
0.8711057901382446	3868491.531467368
0.8743556141853333	3963452.690106244
0.87762451171875	4047630.805306934
0.8809124231338501	4129616.9956212807
0.8842192888259888	4224217.575616021
0.8875449895858765	4306031.804268707
0.8908893465995789	4341185.451571267
0.894252359867096	4386135.613233635
0.8976338505744934	4523215.392069617
0.9010337591171265	4708510.757762276
0.9044519662857056	4867512.81964892
0.9078882932662964	4997368.936410592
0.9113426208496094	5104796.599360835
0.914814829826355	5176017.391008472
0.9183048605918884	5252553.296471687
0.9218124747276306	5321051.420713045
0.925337553024292	5137970.415169123
0.9288799166679382	4734101.065956564
0.9324395060539246	4606007.939083436
0.9360161423683167	4863433.064674199
0.9396095871925354	5178615.720017512
0.943219780921936	5250277.924224403
0.9468464851379395	5205685.928280295
0.9504896402359009	5345620.465718642
0.9541489481925964	5582719.412904729
0.9578243494033813	5654617.536761285
0.9615156054496765	5520268.872780403
0.9652225375175476	5497904.902732317
0.9689450263977051	5795688.845394534
0.9726828336715698	6312010.515985062
0.9764357805252075	6714477.736556995
0.9802037477493286	6943001.65320288
0.983986496925354	7163838.000995903
0.9877838492393494	7403656.181150031
0.9915955662727356	7661297.602168395
0.9954215884208679	7891708.8926653145
0.9992615580558777	8077075.581409989
1.0031154155731201	8247392.5192754455
1.0069829225540161	8454146.979777938
1.0108637809753418	8695997.17595011
1.0147579908370972	8939188.79792581
1.018665075302124	9145945.35512512
1.022585153579712	9280080.078959027
1.0265177488327026	9375107.875126658
1.0304628610610962	9534742.485621043
1.0344202518463135	9804755.488083122
1.0383895635604858	10069373.205330282
1.0423706769943237	10266427.101701487
1.0463634729385376	10434682.174096739
1.0503677129745483	10594308.80741343
1.0543830394744873	10785913.123072615
1.058409333229065	10994723.841303237
1.0624464750289917	11182432.18567866
1.0664942264556885	11352876.207443994
1.0705522298812866	11519415.198505148
1.0746204853057861	11702440.047417866
1.0786986351013184	11895894.968282474
1.0827864408493042	12073614.206540858
1.086883783340454	12181037.747893505
1.0909905433654785	12179513.949654503
1.0951062440872192	12018065.917294173
1.0992310047149658	11251778.819761455
1.10336434841156	10035546.917949693
1.1075061559677124	9566093.193217851
1.1116561889648438	9522702.519897714
1.115814208984375	9132471.410273716
1.1199802160263062	8886654.130530477
1.124153733253479	9185266.494307464
1.1283347606658936	9476009.611909036
1.1325229406356812	9037126.052626163
1.1367181539535522	9292763.378874304
1.1409201622009277	10612795.99308868
1.145128846168518	11392903.24981202
1.1493438482284546	10621276.540741501
1.1535650491714478	8886687.061039919
1.1577922105789185	8292208.077582299
1.1620250940322876	9196549.93404177
1.1662636995315552	10553569.56855282
1.170507550239563	11484659.683707243
1.174756646156311	12414346.369351303
1.1790107488632202	13761740.289682211
1.1832695007324219	14809965.14559307
1.1875330209732056	15398031.340422936
1.191800832748413	15929690.179973505
1.1960728168487549	16555814.468927383
1.2003488540649414	16987281.146965753
1.2046287059783936	17223116.185064666
1.2089121341705322	17471204.787432354
1.2131990194320679	17798016.5589808
1.2174891233444214	18180820.417838003
1.2217823266983032	18549936.555558756
1.2260783910751343	18868371.785931602
1.230377197265625	19139768.62222505
1.2346785068511963	19384720.63113385
1.238982081413269	19647013.35562777
1.2432878017425537	19891264.19105645
1.2475954294204712	20045187.756526005
1.2519049644470215	20155763.715948574
1.256216049194336	20418874.50063878
1.2605286836624146	20713374.582638808
1.2648425102233887	20875696.769857135
1.2691574096679688	21013070.778272048
1.2734732627868652	21178764.904512648
1.2777899503707886	21345203.63357053
1.2821072340011597	21460419.792891562
1.2864248752593994	21472577.402433984
1.2907428741455078	21385307.66863795
1.2950609922409058	21431953.184444755
1.2993791103363037	21513235.756485775
1.303696870803833	21419886.514487073
1.3080145120620728	21431314.772743933
1.3123314380645752	21674434.58486615
1.3166478872299194	21987687.00856306
1.3209635019302368	21716208.505774792
1.3252781629562378	20394602.250185113
1.3295916318893433	17466551.947749183
1.3339040279388428	12284656.89634708
1.3382149934768677	6681669.11359645
1.3425244092941284	3954268.678290741
1.3468321561813354	3934814.6081552547
1.3511382341384888	3452791.7691373574
1.3554422855377197	2489123.7738272697
1.3597444295883179	2277135.0459044348
1.3640443086624146	2533043.194116984
1.3683418035507202	3251393.4819237795
1.3726370334625244	5141372.472752255
1.3769296407699585	7005839.534151439
1.381219506263733	5588018.798507305
1.3855066299438477	2723950.830773164
1.3897908926010132	1782553.5932621828
1.3940720558166504	1990730.7799155628
1.3983501195907593	2484085.7427230855
1.4026249647140503	3888478.804775526
1.4068963527679443	5025135.949573403
1.4111642837524414	4020243.2783109075
1.4154287576675415	3099706.405084064
1.419689416885376	3149150.8951574545
1.4239463806152344	3073754.1290403213
1.4281994104385376	3681050.389642873
1.4324485063552856	4194892.761586412
1.436693549156189	4235509.995194425
1.440934419631958	4994306.848786045
1.4451709985733032	6905774.064043271
1.449403166770935	9594391.193437472
1.453631043434143	11371584.113097403
1.4578542709350586	12196189.165626887
1.4620729684829712	13145056.42782446
1.4662868976593018	13297332.088327816
1.4704961776733398	12599986.913846035
1.4747005701065063	12403329.627807187
1.4788999557495117	13104652.854998475
1.4830944538116455	14902093.33713356
1.4872838258743286	16812108.56667941
1.491468071937561	17355001.273725823
1.4956470727920532	17314846.32295058
1.4998208284378052	18362341.876175974
1.5039892196655273	19806545.92918045
1.5081522464752197	20137348.452973653
1.5123097896575928	20543554.912205726
1.5164618492126465	21999187.004350338
1.5206083059310913	24056630.30631869
1.5247491598129272	25501326.149030384
1.5288842916488647	25743843.061035115
1.5330137014389038	26216319.838733453
1.5371372699737549	27085622.06560528
1.541254997253418	27460973.051663976
1.545366883277893	27893931.419926032
1.5494728088378906	28636947.14737681
1.5535727739334106	29045443.431511242
1.5576666593551636	28953510.44791636
1.561754584312439	29239946.291494854
1.5658363103866577	30234075.99636241
1.5699119567871094	30862805.580134
1.5739814043045044	30488248.105525184
1.5780447721481323	29799317.990210973
1.582101821899414	30291307.398807462
1.5861525535583496	31690091.58969191
1.5901970863342285	32317229.42870861
1.5942351818084717	32112048.160700183
1.5982669591903687	31755229.961679317
1.6022924184799194	31696086.427276555
1.606311559677124	31929350.252679534
1.6103241443634033	31947993.341223102
1.6143304109573364	31667422.73477044
1.6183301210403442	31304551.95234464
1.6223233938217163	30941424.52680308
1.6263102293014526	30533997.946393922
1.6302905082702637	30039582.68608966
1.634264349937439	30606754.502623662
1.638231635093689	32456036.715608932
1.6421923637390137	33461919.407401517
1.646146535873413	32749911.696066387
1.6500942707061768	31875539.778268956
1.6540353298187256	32280835.345551193
1.6579699516296387	32921362.05847085
1.661897897720337	31861050.318725582
1.6658192873001099	28802789.804294303
1.6697341203689575	27633180.17567165
1.6736423969268799	30202400.152338818
1.677544116973877	32036182.729688253
1.6814392805099487	31933910.18772561
1.6853278875350952	31641948.693784166
1.6892099380493164	30888355.98554748
1.6930854320526123	29090822.525046725
1.696954369544983	27230782.207366366
1.7008168697357178	26978449.550784234
1.7046726942062378	27711876.53324693
1.708522081375122	28435894.745807428
1.712364912033081	29044499.553605136
1.7162011861801147	29801257.498880833
1.7200311422348022	30677883.81628688
1.723854422569275	30794577.186616898
1.7276713848114014	30071100.56426216
1.731481909751892	28719649.881208338
1.7352858781814575	27200232.2637514
1.7390835285186768	26197326.144348733
1.7428747415542603	25114469.548785236
1.7466596364974976	23385054.769678783
1.7504380941390991	21282521.30483908
1.7542102336883545	20048485.43305546
1.7579760551452637	22255717.050679453
1.7617355585098267	25071387.149225354
1.7654887437820435	23458125.57481432
1.7692357301712036	18795926.73132091
1.7729763984680176	13758108.01894845
1.776710867881775	9306271.299169287
1.7804391384124756	7586640.264427245
1.7841613292694092	7789685.024049334
1.7878772020339966	7091707.280250348
1.7915871143341064	7395006.6400500955
1.7952908277511597	9438014.357720573
1.7989884614944458	9847520.92354605
1.8026801347732544	6900784.053381442
1.806365728378296	3657092.000192218
1.8100452423095703	3755691.745149321
1.8137187957763672	4846284.541509971
1.817386507987976	4180439.672282897
1.8210482597351074	4827941.179763775
1.8247040510177612	5380535.288686234
1.828354001045227	3326195.2364997766
1.8319982290267944	2705845.0989166796
1.8356364965438843	4555753.899823305
1.8392690420150757	6380185.79857002
1.8428958654403687	6543684.604910032
1.8465168476104736	6323676.718185194
1.8501322269439697	6499896.629713537
1.8537418842315674	5091697.610255135
1.8573459386825562	3542725.411000685
1.860944390296936	3047877.5608708146
1.864537239074707	2377971.21147426
1.8681244850158691	2690254.8855750808
1.871706247329712	4516477.552261339
1.8752825260162354	6676216.342267508
1.8788533210754395	9340035.983697055
1.8824186325073242	11253791.83201721
1.8859784603118896	10525513.591259494
1.8895330429077148	9829014.580762502
1.8930821418762207	11722038.451057456
1.8966259956359863	11520135.826794147
1.9001644849777222	6585170.173327887
1.9036977291107178	3104261.5148644266
1.9072256088256836	3444855.131231141
1.9107483625411987	3413489.9482461885
1.9142658710479736	2050845.6235681025
1.9177782535552979	1883110.763818795
1.9212853908538818	2688910.8945778445
1.9247875213623047	2754297.633722146
1.9282845258712769	2855648.0021640947
1.9317764043807983	3761663.4472402786
1.9352631568908691	4194661.906494633
1.9387450218200684	3964446.61503652
1.942221760749817	4307419.978776488
1.9456936120986938	4953123.389375004
1.9491604566574097	5613759.5988794565
1.952622413635254	5413240.031378872
1.956079363822937	4306506.932264869
1.959531545639038	4184826.434434851
1.962978720664978	4667727.761572788
1.966421127319336	5954363.908928728
1.9698586463928223	8282785.891036481
1.9732913970947266	9463545.514289455
1.9767193794250488	10120869.40148751
1.9801424741744995	11911938.916700814
1.9835609197616577	13742521.030219553
1.9869745969772339	13902101.679037511
1.990383505821228	12166590.499749502
1.9937876462936401	11517853.833721055
1.9971871376037598	11856731.59904795
2.000581979751587	12856868.290562803
2.003972291946411	15732026.661344334
2.007357597351074	18093421.588155746
2.0107386112213135	20124580.616415
2.0141148567199707	20906751.076822817
2.017486572265625	19297445.415966652
2.0208535194396973	19809684.49163151
2.0242159366607666	22714822.366757307
2.027573823928833	24542445.382899728
2.0309269428253174	25716391.532731466
2.034275770187378	27252153.362930913
2.0376198291778564	28496710.887258507
2.040959596633911	29610698.153290544
2.044294595718384	31123697.415814307
2.0476250648498535	32697415.98930777
2.0509510040283203	33031467.22761152
2.054272413253784	32198866.04776724
2.057589530944824	32431353.901368715
2.0609018802642822	33713263.84826087
2.0642096996307373	34777696.08811835
2.0675129890441895	35488035.87960358
2.0708119869232178	35788175.1305833
2.074106216430664	35594380.57987672
2.0773961544036865	35428235.2620203
2.080681324005127	35740015.91444065
2.0839622020721436	36167798.178693935
2.087238311767578	36464226.57333467
2.090510129928589	36440294.16998977
2.0937774181365967	36128179.2523108
2.0970399379730225	36057627.815447144
2.1002981662750244	36097445.37007155
2.1035518646240234	35831363.880180344
2.1068007946014404	35463379.046975166
2.1100454330444336	35712930.28303947
2.1132853031158447	36221978.20970615
2.116520881652832	36020886.69754891
2.1197516918182373	35696270.703180924
2.1229779720306396	35847247.34697862
2.12619948387146	36097876.772881106
2.1294167041778564	36168054.065922104
2.132629156112671	36179298.64570673
2.1358368396759033	35881167.07882078
2.139039993286133	35215893.87308509
2.1422386169433594	34580689.16387123
2.145432472229004	34066568.963429004
2.1486217975616455	33665478.44238068
2.151806354522705	33185467.017125968
2.1549863815307617	33094594.785587907
2.1581614017486572	33205130.788478274
2.16133189201355	32728146.356842905
2.1644976139068604	32265352.323661383
2.167658567428589	32137840.82669131
2.1708147525787354	32114330.1508991
2.173966407775879	31952650.79181295
2.1771130561828613	31597573.274781704
2.1802549362182617	31167095.842710074
2.183391809463501	30507267.390999287
2.1865241527557373	29601293.76302106
2.1896514892578125	28351895.310467213
2.1927738189697266	25893340.71674096
2.1958916187286377	21981892.22161815
2.1990041732788086	18305688.38541108
2.2021119594573975	16288163.884235092
2.2052149772644043	15564243.789407147
2.208312749862671	15826640.120139493
2.2114057540893555	17112306.081093922
2.214493751525879	18370511.53281812
2.217576742172241	18426568.606502492
2.2206547260284424	17979897.354091216
2.2237277030944824	17572211.673774544
2.2267956733703613	16178031.751020335
2.2298583984375	14165721.270316364
2.2329163551330566	12915466.704883927
2.235969066619873	12584458.98629139
2.2390167713165283	12223500.92741335
2.2420592308044434	10998674.237231191
2.2450966835021973	9637341.662453799
2.248128890991211	9817826.616109464
2.2511560916900635	11109026.19342245
2.254178285598755	11877024.39055627
2.257194995880127	12368860.743141575
2.260206699371338	12421220.791345451
2.2632133960723877	11128313.827776706
2.266214609146118	9469131.738521028
2.2692108154296875	8899260.441341095
2.2722020149230957	9645924.463579765
2.2751877307891846	10597520.76885746
2.278168201446533	10521689.115456708
2.2811436653137207	9719495.420267394
2.284113883972168	9065660.01798232
2.287078857421875	8523969.417199405
2.290038824081421	7937467.022682526
2.2929933071136475	7549593.378267811
2.295942783355713	7337896.083024527
2.298887014389038	7156350.724955505
2.301826238632202	7150052.762908661
2.304760217666626	7591434.076932299
2.3076889514923096	8495212.129219824
2.310612440109253	9426978.447638113
2.3135311603546143	9197221.932336561
2.3164443969726562	7151861.61296197
2.319352865219116	5082378.410437353
2.322256088256836	4467138.053500025
2.3251543045043945	4447117.448074639
2.328047275543213	4367572.1015456505
2.330935478210449	4434597.1170233665
2.3338186740875244	4566111.750316462
2.3366971015930176	4621014.550630838
2.3395702838897705	4650068.282171042
2.3424389362335205	4553849.079437617
2.3453025817871094	4339813.1751584215
2.348161458969116	4288349.492525537
2.351015567779541	4742880.881806348
2.353865146636963	5659572.519822678
2.3567099571228027	6453573.283818775
2.3595502376556396	7064709.9692937825
2.3623859882354736	7754646.368094742
2.3652172088623047	7616908.190861229
2.368043899536133	5877614.98208497
2.370866537094116	3975923.9082369036
2.3736846446990967	3582324.1725399545
2.3764986991882324	3934256.269056366
2.3793084621429443	4006598.0697147986
2.3821144104003906	4256706.165240793
2.384916305541992	5156856.555014808
2.387714147567749	6145191.559366546
2.3905084133148193	6445693.111369122
2.393299102783203	6314340.652479725
2.3960859775543213	6136290.6398697775
2.398869514465332	6040573.382385714
2.4016497135162354	5887872.124051283
2.4044265747070312	5721220.453360115
2.407200336456299	6210186.2139643645
2.409970998764038	7229881.3062343
2.4127390384674072	7874914.397900149
2.415503978729248	8178216.398097461
2.418266534805298	8884800.835990153
2.4210267066955566	9493945.61178093
2.4237842559814453	8909159.003614325
2.426539897918701	7911124.827142641
2.429293394088745	8032646.541698959
2.4320452213287354	8944706.414992888
2.4347951412200928	9422877.314702144
2.4375438690185547	9311185.067160176
2.440291166305542	9027657.722942583
2.443037271499634	8474400.496839559
2.445782423019409	7503831.2046316005
2.4485268592834473	6475882.742890042
2.451270818710327	6172264.64720724
2.454014539718628	7246087.282322474
2.4567582607269287	8435797.72185514
2.4595019817352295	8256807.553715604
2.4622461795806885	8318390.007258734
2.4649908542633057	8431597.242344288
2.4677364826202393	6885424.321776381
2.4704833030700684	4934810.369788214
2.473231554031372	3627421.0385867204
2.4759814739227295	2812640.7208183226
2.4787333011627197	2534271.442316492
2.481487512588501	2933977.319982453
