#wavelength	surface flux
0.6450077295303345	134993.9728813067
0.6472567915916443	205326.25587711827
0.6494921445846558	251529.79684066048
0.6517150402069092	268096.69660028594
0.6539263725280762	282718.57129585824
0.6561272740364075	297092.67878055637
0.6583186388015747	311564.5528929507
0.6605015397071838	326243.40242245834
0.6626768708229065	340677.927692619
0.6648455858230591	353773.3814492691
0.6670085787773132	354857.3299183316
0.6691668033599854	325644.36378559156
0.6713210344314575	312263.671419027
0.6734722256660461	363356.24608451646
0.6756211519241333	420849.70691576606
0.6777685880661011	447652.4154452286
0.6799154281616211	465471.4621084953
0.6820623278617859	482345.2462220946
0.6842101216316223	499386.5586580233
0.6863595843315125	516129.4781404204
0.688511312007904	531799.6568652372
0.6906660795211792	545028.3235500138
0.6928245425224304	558649.5281449361
0.6949873566627502	577472.6681846544
0.6971551775932312	597794.8083829137
0.6993286609649658	615160.7818069793
0.7015084028244019	630974.4565859025
0.7036949396133423	647623.5905279624
0.7058889269828796	665135.9499393308
0.7080909013748169	681469.471300279
0.710301399230957	697171.4728320112
0.712520956993103	712498.3514588764
0.7147500514984131	723973.7206009297
0.7169892191886902	732095.5995038821
0.7192389369010925	743359.3250010544
0.7214996814727783	755777.4456044087
0.723771870136261	763747.0198980536
0.7260559797286987	769055.1673752501
0.7283523678779602	772887.4120815585
0.7306615710258484	775777.8938849181
0.7329838871955872	778185.2499652754
0.7353196740150452	776118.3746431462
0.7376693487167358	767741.8268264418
0.7400332689285278	752226.740031349
0.7424117922782898	726179.6574658639
0.7448052167892456	689364.9236743383
0.7472138404846191	640162.7399484408
0.7496379613876343	575314.9957615064
0.7520779371261597	493977.25447143684
0.7545340061187744	397492.0035223158
0.7570064663887024	291100.608013106
0.7594954967498779	185126.05236281513
0.7620013952255249	94245.82751305524
0.7645244002342224	33701.23234506137
0.7670646905899048	8011.472089947327
0.7696225643157959	9504.041144656898
0.7721980810165405	43778.43153550304
0.7747915983200073	124324.88791093402
0.7774031162261963	233209.02465659293
0.7800329327583313	362480.361770817
0.7826811671257019	541772.4231149168
0.7853479981422424	741376.0341398736
0.7880334854125977	907667.4200959612
0.7907378077507019	969335.4283945457
0.7934610247612	885853.9487840754
0.7962033748626709	975485.2478247599
0.7989648580551147	1311872.2168703822
0.801745593547821	1549701.367645721
0.8045456409454346	1662543.2479638113
0.8073651194572449	1751571.7918781284
0.8102040886878967	1821861.5699503757
0.8130625486373901	1895082.950856124
0.8159406185150146	1988643.8631952833
0.8188382983207703	2081983.2282895125
0.8217556476593018	2166481.9901710884
0.8246926665306091	2253752.7926226985
0.8276493549346924	2336566.5459610904
0.8306257724761963	2410022.5900959317
0.8336219191551208	2483901.7634786977
0.8366377949714661	2556291.3137919637
0.8396733403205872	2640658.034926312
0.8427285552024841	2747905.6978723616
0.8458034992218018	2848772.5232380275
0.8488980531692505	2915564.411836577
0.8520121574401855	2973890.278894733
0.8551458716392517	3082551.9716767594
0.8582990765571594	3199959.762464723
0.8614717125892639	3257358.0506345015
0.8646637797355652	3312704.192956974
0.8678751587867737	3414681.3859621845
0.8711057901382446	3524296.0619072444
0.8743556141853333	3618582.2646053545
0.87762451171875	3698903.4273182345
0.8809124231338501	3771434.7509650965
0.8842192888259888	3851973.5252424898
0.8875449895858765	3917223.8815050577
0.8908893465995789	3923603.3593216534
0.894252359867096	3937025.8479622845
0.8976338505744934	4080112.7785803755
0.9010337591171265	4299102.389849421
0.9044519662857056	4476326.794499662
0.9078882932662964	4607324.098612401
0.9113426208496094	4709591.504219443
0.914814829826355	4765092.204454601
0.9183048605918884	4826682.043227228
0.9218124747276306	4878049.827025806
0.925337553024292	4611227.070478255
0.9288799166679382	4068958.5028071916
0.9324395060539246	3861408.921135251
0.9360161423683167	4125799.9753309228
0.9396095871925354	4473139.63139888
0.943219780921936	4519494.24418204
0.9468464851379395	4418526.877689226
0.9504896402359009	4555638.644675378
0.9541489481925964	4820292.446567302
0.9578243494033813	4877616.707889072
0.9615156054496765	4671863.699205136
0.9652225375175476	4605115.687776965
0.9689450263977051	4942739.798656102
0.9726828336715698	5550173.470025841
0.9764357805252075	6009941.200558977
0.9802037477493286	6255082.3573111445
0.983986496925354	6493476.176916847
0.9877838492393494	6761879.703810265
0.9915955662727356	7057676.634003295
0.9954215884208679	7310649.413553344
0.9992615580558777	7503598.873927446
1.0031154155731201	7680401.281889929
1.0069829225540161	7897973.82745373
1.0108637809753418	8153886.3136450425
1.0147579908370972	8408556.332606073
1.018665075302124	8618220.651055608
1.022585153579712	8745283.502573734
1.0265177488327026	8830686.900155654
1.0304628610610962	8987520.3273555
1.0344202518463135	9262008.477634447
1.0383895635604858	9528377.928744726
1.0423706769943237	9721296.343641318
1.0463634729385376	9881390.140188249
1.0503677129745483	10031222.760955216
1.0543830394744873	10216523.3641558
1.058409333229065	10421488.927671826
1.0624464750289917	10602616.93613235
1.0664942264556885	10760755.757552236
1.0705522298812866	10912109.822418697
1.0746204853057861	11084964.609599445
1.0786986351013184	11271762.274575207
1.0827864408493042	11437925.860862076
1.086883783340454	11510117.246749414
1.0909905433654785	11437824.43444788
1.0951062440872192	11163207.02308477
1.0992310047149658	10143820.894346068
1.10336434841156	8593311.779520318
1.1075061559677124	7981235.17356775
1.1116561889648438	7889559.754524238
1.115814208984375	7359888.200464478
1.1199802160263062	6967787.394612973
1.124153733253479	7189230.3311307365
1.1283347606658936	7474789.996428881
1.1325229406356812	7060059.991952479
1.1367181539535522	7376322.287356489
1.1409201622009277	8750861.704963356
1.145128846168518	9548643.084473135
1.1493438482284546	8638044.59564521
1.1535650491714478	6605357.449541724
1.1577922105789185	5841111.099569205
1.1620250940322876	6776606.190517376
1.1662636995315552	8245355.492731978
1.170507550239563	9278640.01445988
1.174756646156311	10379101.475693656
1.1790107488632202	11995823.161485953
1.1832695007324219	13269703.487744983
1.1875330209732056	13978714.444551535
1.191800832748413	14617724.686577981
1.1960728168487549	15380291.160645802
1.2003488540649414	15895843.394771788
1.2046287059783936	16157142.06469023
1.2089121341705322	16410581.170585869
1.2131990194320679	16752058.710813813
1.2174891233444214	17175327.369956907
1.2217823266983032	17588346.82638397
1.2260783910751343	17938098.607589755
1.230377197265625	18222548.671851665
1.2346785068511963	18468313.016541753
1.238982081413269	18737430.6865205
1.2432878017425537	18986193.278259337
1.2475954294204712	19135267.989559136
1.2519049644470215	19240596.023512084
1.256216049194336	19509300.912502542
1.2605286836624146	19799727.57045784
1.2648425102233887	19939497.623837363
1.2691574096679688	20052696.355172187
1.2734732627868652	20195997.76364426
1.2777899503707886	20329650.23609781
1.2821072340011597	20392374.32016085
1.2864248752593994	20323085.83856031
1.2907428741455078	20118212.482153326
1.2950609922409058	20092930.702632744
1.2993791103363037	20119873.58718047
1.303696870803833	19907551.546030868
1.3080145120620728	19815089.08041158
1.3123314380645752	20030648.092004325
1.3166478872299194	20393721.271786842
1.3209635019302368	19999328.372068655
1.3252781629562378	18255501.78801141
1.3295916318893433	14858520.969229
1.3339040279388428	9566479.58513065
1.3382149934768677	4514413.048578167
1.3425244092941284	2230290.605259248
1.3468321561813354	2071549.6321354576
1.3511382341384888	1736423.756968429
1.3554422855377197	1162330.891231802
1.3597444295883179	1028130.5437261506
1.3640443086624146	1129064.6054272472
1.3683418035507202	1521281.1807812664
1.3726370334625244	2764058.127332323
1.3769296407699585	4106110.563450451
1.381219506263733	3261940.5451634536
1.3855066299438477	1378333.0859260946
1.3897908926010132	744683.8123407902
1.3940720558166504	878651.1204195713
1.3983501195907593	1199275.368255413
1.4026249647140503	2061715.4715879816
1.4068963527679443	2741675.4096741294
1.4111642837524414	2115548.9092059215
1.4154287576675415	1520183.270803111
1.419689416885376	1497985.3080734324
1.4239463806152344	1443491.2086575923
1.4281994104385376	1839900.1614660944
1.4324485063552856	2239837.939734056
1.436693549156189	2349070.69427209
1.440934419631958	2829201.0127928252
1.4451709985733032	4183598.272428211
1.449403166770935	6342916.444522388
1.453631043434143	7843515.513679179
1.4578542709350586	8564172.59666742
1.4620729684829712	9433944.092746511
1.4662868976593018	9543449.759823384
1.4704961776733398	8792329.751237256
1.4747005701065063	8463917.374173198
1.4788999557495117	9049247.438173395
1.4830944538116455	10851176.993570343
1.4872838258743286	12816981.5041748
1.491468071937561	13372433.406354548
1.4956470727920532	13269475.946744813
1.4998208284378052	14291254.109818099
1.5039892196655273	15778377.509652838
1.5081522464752197	16124902.406456543
1.5123097896575928	16609919.880664479
1.5164618492126465	18285646.60539559
1.5206083059310913	20674547.533834465
1.5247491598129272	22385624.33182349
1.5288842916488647	22674695.037213087
1.5330137014389038	23213957.579345763
1.5371372699737549	24263181.518338177
1.541254997253418	24792846.569799315
1.545366883277893	25382871.148552123
1.5494728088378906	26268456.787447646
1.5535727739334106	26767360.141332217
1.5576666593551636	26789053.585530296
1.561754584312439	27238059.227636874
1.5658363103866577	28334219.33397193
1.5699119567871094	28955991.56086663
1.5739814043045044	28504764.110367406
1.5780447721481323	27744197.29770176
1.582101821899414	28278663.024106834
1.5861525535583496	29786211.294231124
1.5901970863342285	30412108.935720105
1.5942351818084717	30049312.835805837
1.5982669591903687	29479453.80960831
1.6022924184799194	29206627.62245208
1.606311559677124	29254201.29600896
1.6103241443634033	29108433.967562877
1.6143304109573364	28534067.184046727
1.6183301210403442	27698087.842582814
1.6223233938217163	26707903.426664434
1.6263102293014526	25558563.803946927
1.6302905082702637	24500684.037432145
1.634264349937439	25392469.926696423
1.638231635093689	28370549.440664697
1.6421923637390137	29894390.228077326
1.646146535873413	28485325.563929927
1.6500942707061768	26868394.048000403
1.6540353298187256	27505241.65549636
1.6579699516296387	28598137.604422048
1.661897897720337	27121251.283411432
1.6658192873001099	22641060.35021595
1.6697341203689575	20656246.385691155
1.6736423969268799	23988403.690601792
1.677544116973877	26369465.77653969
1.6814392805099487	26010617.510519795
1.6853278875350952	25420690.36583221
1.6892099380493164	24310394.271573648
1.6930854320526123	21952570.250997245
1.696954369544983	19455051.28319641
1.7008168697357178	18943091.268219374
1.7046726942062378	19943345.063422885
1.708522081375122	21202868.895011496
1.712364912033081	22302730.259977926
1.7162011861801147	23465018.07805382
1.7200311422348022	24702812.50877466
1.723854422569275	24930280.927525863
1.7276713848114014	24098840.24558986
1.731481909751892	22619243.295021545
1.7352858781814575	21039001.363357045
1.7390835285186768	20114484.973199572
1.7428747415542603	19199107.97499538
1.7466596364974976	17603405.98301214
1.7504380941390991	15650673.659763345
1.7542102336883545	14562527.458537295
1.7579760551452637	16659386.948960098
1.7617355585098267	19206821.905244038
1.7654887437820435	17579368.937082652
1.7692357301712036	13282306.39896041
1.7729763984680176	8999057.67593564
1.776710867881775	5564615.121314235
1.7804391384124756	4289722.15287024
1.7841613292694092	4430607.5988437105
1.7878772020339966	3978629.0134037775
1.7915871143341064	4250428.090647935
1.7952908277511597	5990418.085283122
1.7989884614944458	6643985.549788736
1.8026801347732544	4478163.149191347
1.806365728378296	2048888.4502744498
1.8100452423095703	2095768.3234809078
1.8137187957763672	2765598.3834436275
1.817386507987976	2319309.7509029885
1.8210482597351074	2690823.3919378133
1.8247040510177612	2987986.0543402983
1.828354001045227	1703998.8825315791
1.8319982290267944	1263226.108694415
1.8356364965438843	2351665.4191110847
1.8392690420150757	3474036.3780602575
1.8428958654403687	3511804.790724549
1.8465168476104736	3406203.299889228
1.8501322269439697	3746356.9743763735
1.8537418842315674	3014175.7950083353
1.8573459386825562	1968359.5107572754
1.860944390296936	1585462.4419393698
1.864537239074707	1137760.272252288
1.8681244850158691	1204405.8090815826
1.871706247329712	2201045.708696716
1.8752825260162354	3618570.829082151
1.8788533210754395	5725572.209771032
1.8824186325073242	7309165.1167318085
1.8859784603118896	6732931.901461282
1.8895330429077148	6172002.501779703
1.8930821418762207	7730147.747525414
1.8966259956359863	7683128.245617106
1.9001644849777222	3990078.782776884
1.9036977291107178	1435418.7467944543
1.9072256088256836	1542590.2702385641
1.9107483625411987	1522872.5145840438
1.9142658710479736	866180.6822965
1.9177782535552979	798693.3838230808
1.9212853908538818	1191752.3958437485
1.9247875213623047	1230440.396728212
1.9282845258712769	1292632.6358200156
1.9317764043807983	1768989.9489405178
1.9352631568908691	2021190.3704788592
1.9387450218200684	1967200.9269775155
1.942221760749817	2264498.891833362
1.9456936120986938	2730520.670125272
1.9491604566574097	3263142.7556487764
1.952622413635254	3191962.648932056
1.956079363822937	2413712.484678856
1.959531545639038	2250771.495849099
1.962978720664978	2543355.7062857645
1.966421127319336	3452408.0238091997
1.9698586463928223	5124920.260006094
1.9732913970947266	6003751.015863726
1.9767193794250488	6526265.966278552
1.9801424741744995	7910823.736892671
1.9835609197616577	9379847.190424662
1.9869745969772339	9560713.969709175
1.990383505821228	8216288.356273214
1.9937876462936401	7745332.759303472
1.9971871376037598	8039810.360522296
2.000581979751587	8858280.062266625
2.003972291946411	11257958.323820306
2.007357597351074	13360264.014568293
2.0107386112213135	15264561.52944451
2.0141148567199707	15890487.348260123
2.017486572265625	14341715.26123863
2.0208535194396973	14814274.558897942
2.0242159366607666	17439863.723149307
2.027573823928833	19122737.427043017
2.0309269428253174	20333829.22108485
2.034275770187378	21847977.626627058
2.0376198291778564	23107597.13861545
2.040959596633911	24405031.024362538
2.044294595718384	26146749.346359275
2.0476250648498535	27907383.556085832
2.0509510040283203	28223648.343494367
2.054272413253784	27196664.789460693
2.057589530944824	27400100.494370364
2.0609018802642822	28822590.509233825
2.0642096996307373	30008094.102693576
2.0675129890441895	30774946.949495606
2.0708119869232178	31045698.917364534
2.074106216430664	30755295.955622256
2.0773961544036865	30513883.61078649
2.080681324005127	30813130.11009272
2.0839622020721436	31200746.1817353
2.087238311767578	31430819.1392088
2.090510129928589	31350669.415963095
2.0937774181365967	30927686.179188218
2.0970399379730225	30727260.367581856
2.1002981662750244	30667729.819363844
2.1035518646240234	30335052.01872744
2.1068007946014404	29922231.502899144
2.1100454330444336	30048099.086413
2.1132853031158447	30311450.63084128
2.116520881652832	29822995.211216964
2.1197516918182373	29271064.778126232
2.1229779720306396	29295054.09112157
2.12619948387146	29509041.638968557
2.1294167041778564	29558454.39244476
2.132629156112671	29501339.50583343
2.1358368396759033	29007629.385068655
2.139039993286133	28060642.29834309
2.1422386169433594	27112949.376229063
2.145432472229004	26253175.90785641
2.1486217975616455	25626416.32961748
2.151806354522705	24980484.038834922
2.1549863815307617	24868791.052510638
2.1581614017486572	24959251.57360206
2.16133189201355	24159892.774918403
2.1644976139068604	23414222.077581007
2.167658567428589	23229442.462414194
2.1708147525787354	23302188.075016506
2.173966407775879	23275942.91531895
2.1771130561828613	22862575.443029508
2.1802549362182617	22092553.788850028
2.183391809463501	21003951.040545177
2.1865241527557373	19758406.692637462
2.1896514892578125	18248195.755690373
2.1927738189697266	15689192.315345129
2.1958916187286377	12034140.102781989
2.1990041732788086	8864589.229113083
2.2021119594573975	7247228.850093844
2.2052149772644043	6758014.372762452
2.208312749862671	6990541.591539707
2.2114057540893555	7892227.933829216
2.214493751525879	8791139.84658022
2.217576742172241	8821571.273191534
2.2206547260284424	8449042.60967764
2.2237277030944824	8143009.52416846
2.2267956733703613	7229342.563687424
2.2298583984375	5931754.063784795
2.2329163551330566	5134675.556858031
2.235969066619873	4907342.12686954
2.2390167713165283	4702628.376141174
2.2420592308044434	4095985.365252903
2.2450966835021973	3447008.682606302
2.248128890991211	3571769.09815211
2.2511560916900635	4220827.752652698
2.254178285598755	4574112.465347874
2.257194995880127	4819913.0140923625
2.260206699371338	4863144.339148478
2.2632133960723877	4241893.270591265
2.266214609146118	3489555.3636884154
2.2692108154296875	3264750.050179854
2.2722020149230957	3632567.881507743
2.2751877307891846	4083338.2316414146
2.278168201446533	4058493.0382842436
2.2811436653137207	3714319.485866141
2.284113883972168	3433071.5840238016
2.287078857421875	3183613.1686464176
2.290038824081421	2960366.39678561
2.2929933071136475	2955251.37766825
2.295942783355713	3131169.2990157963
2.298887014389038	3330706.9347430947
2.301826238632202	3627914.0122061046
2.304760217666626	4334864.410471823
2.3076889514923096	5498714.6287203245
2.310612440109253	6487781.777217707
2.3135311603546143	6144224.754639833
2.3164443969726562	4252843.935789896
2.319352865219116	2569652.7796282875
2.322256088256836	2145188.7064007656
2.3251543045043945	2164379.9543650732
2.328047275543213	2116507.0821179836
2.330935478210449	2123780.0268189474
2.3338186740875244	2146902.6114135045
2.3366971015930176	2113928.875317422
2.3395702838897705	2067853.057534846
2.3424389362335205	1958120.1231951662
2.3453025817871094	1782491.435581509
2.348161458969116	1721661.9050897905
2.351015567779541	1990815.689532539
2.353865146636963	2555345.659959825
2.3567099571228027	3074575.5716197216
2.3595502376556396	3463096.9753746707
2.3623859882354736	3804037.0930652334
2.3652172088623047	3659163.4187181834
2.368043899536133	2731431.852589148
2.370866537094116	1733384.223644562
2.3736846446990967	1461376.1156777048
2.3764986991882324	1659572.5091061136
2.3793084621429443	1834706.433527082
2.3821144104003906	2053596.9496634125
2.384916305541992	2477335.3793846755
2.387714147567749	2838828.4493250307
2.3905084133148193	2825463.906067244
2.393299102783203	2722185.93090001
2.3960859775543213	2797844.777652567
2.398869514465332	2965461.670706719
2.4016497135162354	2971879.609039229
2.4044265747070312	2878421.661378198
2.407200336456299	3187604.8928304487
2.409970998764038	3866374.1133342646
2.4127390384674072	4309525.852795994
2.415503978729248	4489013.956867738
2.418266534805298	4935470.9570007175
2.4210267066955566	5345101.679905139
2.4237842559814453	4923061.779120221
2.426539897918701	4255527.243863698
2.429293394088745	4498791.775882037
2.4320452213287354	5293313.9009226905
2.4347951412200928	5604303.118749867
2.4375438690185547	5445884.9689582875
2.440291166305542	5328758.326703438
2.443037271499634	5109649.404408041
2.445782423019409	4496265.553455295
2.4485268592834473	3771579.5314114555
2.451270818710327	3576417.301399321
2.454014539718628	4236922.007464989
2.4567582607269287	4908181.625038062
2.4595019817352295	4858531.000088246
2.4622461795806885	5035877.4119058
2.4649908542633057	5136836.342367379
2.4677364826202393	4153733.993920592
2.4704833030700684	2950478.520000842
2.473231554031372	2184257.558798566
2.4759814739227295	1719956.7673188215
2.4787333011627197	1551396.8304495749
2.481487512588501	1758627.4305712935
