#wavelength	surface flux
0.6450077295303345	193581.42603199175
0.6472567915916443	290727.17491788865
0.6494921445846558	348278.9328025688
0.6517150402069092	361858.54409964953
0.6539263725280762	372630.9343247072
0.6561272740364075	383233.03309090587
0.6583186388015747	394441.92052896036
0.6605015397071838	406157.9493122531
0.6626768708229065	417215.24563161033
0.6648455858230591	428787.6266281525
0.6670085787773132	439132.4317648514
0.6691668033599854	441326.6273215037
0.6713210344314575	446890.82398631965
0.6734722256660461	468612.41217074404
0.6756211519241333	491433.36752394104
0.6777685880661011	506267.2508831696
0.6799154281616211	517978.00586496224
0.6820623278617859	531270.5837481711
0.6842101216316223	547684.1980616224
0.6863595843315125	563397.8672638632
0.688511312007904	576986.9991827378
0.6906660795211792	588984.3287614854
0.6928245425224304	603385.4806347027
0.6949873566627502	622144.472205705
0.6971551775932312	640552.8530896117
0.6993286609649658	657092.1834975037
0.7015084028244019	673522.9537507012
0.7036949396133423	690352.2122808467
0.7058889269828796	707599.1686135272
0.7080909013748169	725032.7793428054
0.710301399230957	742724.4905694332
0.712520956993103	760905.2602101353
0.7147500514984131	779360.9346365276
0.7169892191886902	797991.8461157458
0.7192389369010925	817247.5014598741
0.7214996814727783	836942.883483056
0.723771870136261	856748.4659955668
0.7260559797286987	876975.8678783538
0.7283523678779602	897678.3073058269
0.7306615710258484	918955.6833825818
0.7329838871955872	940929.3378175886
0.7353196740150452	963200.2257020626
0.7376693487167358	985716.0709702829
0.7400332689285278	1008528.8252487718
0.7424117922782898	1031252.6183614185
0.7448052167892456	1053880.9152261978
0.7472138404846191	1076339.1407557167
0.7496379613876343	1097879.5130066064
0.7520779371261597	1117107.79998509
0.7545340061187744	1131474.9381884264
0.7570064663887024	1134848.7546955785
0.7594954967498779	1106956.5808981736
0.7620013952255249	976716.854588254
0.7645244002342224	671253.3335787742
0.7670646905899048	357388.55029029143
0.7696225643157959	343744.0354728455
0.7721980810165405	696433.297830852
0.7747915983200073	1106630.826402419
0.7774031162261963	1315239.3218261315
0.7800329327583313	1398216.6745542106
0.7826811671257019	1460517.5631199523
0.7853479981422424	1516959.6688551304
0.7880334854125977	1563581.7609281319
0.7907378077507019	1584304.4386009378
0.7934610247612	1554774.9137242965
0.7962033748626709	1573332.3502787626
0.7989648580551147	1684199.7897269207
0.801745593547821	1771384.9799439718
0.8045456409454346	1816675.6326135534
0.8073651194572449	1859235.3657577778
0.8102040886878967	1901196.0435797244
0.8130625486373901	1944583.2899341276
0.8159406185150146	1990624.3432875336
0.8188382983207703	2037387.9235798826
0.8217556476593018	2084725.7340057015
0.8246926665306091	2133808.06680686
0.8276493549346924	2183697.0946554528
0.8306257724761963	2233880.233113088
0.8336219191551208	2284950.4336233023
0.8366377949714661	2336514.8336718827
0.8396733403205872	2389799.6600816613
0.8427285552024841	2445895.962336171
0.8458034992218018	2502719.0284431637
0.8488980531692505	2559346.7485684366
0.8520121574401855	2617038.613168916
0.8551458716392517	2676820.599095705
0.8582990765571594	2734752.7273574276
0.8614717125892639	2785076.9654390076
0.8646637797355652	2839064.5780788446
0.8678751587867737	2905006.2824188014
0.8711057901382446	2972441.1948761595
0.8743556141853333	3039197.845791258
0.87762451171875	3106497.5408792445
0.8809124231338501	3173604.2359086983
0.8842192888259888	3243710.915192599
0.8875449895858765	3313256.0320322933
0.8908893465995789	3378950.316989194
0.894252359867096	3449654.3091451363
0.8976338505744934	3529822.3905397602
0.9010337591171265	3611874.3877224033
0.9044519662857056	3692068.4033475523
0.9078882932662964	3771354.811228298
0.9113426208496094	3849392.8703816775
0.914814829826355	3925328.304599483
0.9183048605918884	4003650.693063799
0.9218124747276306	4081995.0638276692
0.925337553024292	4133685.6471252474
0.9288799166679382	4162448.6499351035
0.9324395060539246	4225148.860799617
0.9360161423683167	4331399.243498223
0.9396095871925354	4441694.2091751285
0.943219780921936	4528235.040240033
0.9468464851379395	4604878.038754255
0.9504896402359009	4699639.291103339
0.9541489481925964	4803951.543024592
0.9578243494033813	4891117.848036797
0.9615156054496765	4957579.180706953
0.9652225375175476	5036978.387493704
0.9689450263977051	5150949.999086092
0.9726828336715698	5291754.42549498
0.9764357805252075	5423445.625951454
0.9802037477493286	5535956.623215223
0.983986496925354	5646970.070581223
0.9877838492393494	5756320.029548165
0.9915955662727356	5865532.782178671
0.9954215884208679	5980410.3674979005
0.9992615580558777	6093593.631091958
1.0031154155731201	6201339.796150821
1.0069829225540161	6318212.867651557
1.0108637809753418	6444905.445961681
1.0147579908370972	6573251.791971059
1.018665075302124	6698568.8868458085
1.022585153579712	6812662.993803456
1.0265177488327026	6922068.40328577
1.0304628610610962	7043944.215747205
1.0344202518463135	7178615.329844242
1.0383895635604858	7311460.512468915
1.0423706769943237	7438020.03826905
1.0463634729385376	7563981.776955787
1.0503677129745483	7690399.46945889
1.0543830394744873	7819017.263167827
1.058409333229065	7947868.981686879
1.0624464750289917	8074485.155691427
1.0664942264556885	8201772.202875371
1.0705522298812866	8331117.500203959
1.0746204853057861	8463697.291223273
1.0786986351013184	8598971.636485724
1.0827864408493042	8733043.273314094
1.086883783340454	8858851.668691467
1.0909905433654785	8972451.085502965
1.0951062440872192	9069806.618401797
1.0992310047149658	9101125.7423368
1.10336434841156	9079051.178800793
1.1075061559677124	9140524.548768114
1.1116561889648438	9257901.558967821
1.115814208984375	9345157.858235706
1.1199802160263062	9456463.960571103
1.124153733253479	9630878.278398506
1.1283347606658936	9777372.48083416
1.1325229406356812	9802047.26935596
1.1367181539535522	9938178.549775911
1.1409201622009277	10246325.336087856
1.145128846168518	10475692.80057684
1.1493438482284546	10508285.335166091
1.1535650491714478	10434281.031240651
1.1577922105789185	10492623.721325032
1.1620250940322876	10719185.942143047
1.1662636995315552	10996071.06318518
1.170507550239563	11216150.939345123
1.174756646156311	11429145.938092282
1.1790107488632202	11697159.065836867
1.1832695007324219	11934899.709424527
1.1875330209732056	12119433.223722927
1.191800832748413	12298794.678761182
1.1960728168487549	12491544.259160794
1.2003488540649414	12665914.971331578
1.2046287059783936	12820773.889776662
1.2089121341705322	12975237.028770624
1.2131990194320679	13140435.445213376
1.2174891233444214	13315147.025518551
1.2217823266983032	13484760.079328012
1.2260783910751343	13644106.039586764
1.230377197265625	13796867.773526415
1.2346785068511963	13947103.82553955
1.238982081413269	14101564.723051181
1.2432878017425537	14258990.61430632
1.2475954294204712	14408784.303346567
1.2519049644470215	14552289.59708284
1.256216049194336	14713235.78453394
1.2605286836624146	14877195.019457769
1.2648425102233887	15023135.081711154
1.2691574096679688	15165301.817986349
1.2734732627868652	15310118.515326317
1.2777899503707886	15454741.663513947
1.2821072340011597	15595656.83002775
1.2864248752593994	15729297.272485042
1.2907428741455078	15855569.08946085
1.2950609922409058	15994156.743718153
1.2993791103363037	16135054.415037384
1.303696870803833	16258195.529024428
1.3080145120620728	16391631.38937753
1.3123314380645752	16546881.575892368
1.3166478872299194	16700255.71132582
1.3209635019302368	16794096.204482384
1.3252781629562378	16771116.040301463
1.3295916318893433	16441451.893228255
1.3339040279388428	15389970.206454514
1.3382149934768677	13662077.084002635
1.3425244092941284	12763485.842411784
1.3468321561813354	13227497.283465471
1.3511382341384888	13094816.870245937
1.3554422855377197	12325585.732993191
1.3597444295883179	12195244.371309357
1.3640443086624146	12690856.389720699
1.3683418035507202	13644859.202686623
1.3726370334625244	14866805.769558098
1.3769296407699585	15600110.864322307
1.381219506263733	14609381.197307207
1.3855066299438477	13028325.55502952
1.3897908926010132	12521594.364352902
1.3940720558166504	12539254.499087173
1.3983501195907593	12820109.47470289
1.4026249647140503	14001080.442263294
1.4068963527679443	14981159.444265457
1.4111642837524414	14169617.292150838
1.4154287576675415	13662086.64443564
1.419689416885376	14154251.292777034
1.4239463806152344	14183832.972612245
1.4281994104385376	14506037.653301325
1.4324485063552856	14614903.187443377
1.436693549156189	14469502.807167437
1.440934419631958	15252030.064533697
1.4451709985733032	16575506.062114907
1.449403166770935	17736136.06419868
1.453631043434143	18345348.726140838
1.4578542709350586	18657324.371575754
1.4620729684829712	18974030.96640169
1.4662868976593018	19114404.053587336
1.4704961776733398	19106065.5843259
1.4747005701065063	19238716.956451785
1.4788999557495117	19522890.940818593
1.4830944538116455	19924993.9267025
1.4872838258743286	20314799.160637148
1.491468071937561	20498656.237949543
1.4956470727920532	20639765.10995049
1.4998208284378052	20955641.97010151
1.5039892196655273	21297018.98033697
1.5081522464752197	21439050.54286756
1.5123097896575928	21558816.470717482
1.5164618492126465	21821933.06365378
1.5206083059310913	22174591.32488109
1.5247491598129272	22442331.98500902
1.5288842916488647	22550768.352528214
1.5330137014389038	22692149.67573658
1.5371372699737549	22891339.39070397
1.541254997253418	23040804.104197197
1.545366883277893	23201006.328164507
1.5494728088378906	23388472.354076955
1.5535727739334106	23528139.846778437
1.5576666593551636	23613480.66542838
1.561754584312439	23738626.14058431
1.5658363103866577	23933740.437961284
1.5699119567871094	24095089.31487591
1.5739814043045044	24170227.141582474
1.5780447721481323	24220170.120939456
1.582101821899414	24354842.423784547
1.5861525535583496	24551649.662209846
1.5901970863342285	24696413.40039383
1.5942351818084717	24791107.404305965
1.5982669591903687	24880761.822122544
1.6022924184799194	24992800.75101591
1.606311559677124	25116292.046123397
1.6103241443634033	25219555.792846046
1.6143304109573364	25310548.647233486
1.6183301210403442	25403061.586625516
1.6223233938217163	25507902.539785817
1.6263102293014526	25622237.743380047
1.6302905082702637	25714667.803380527
1.634264349937439	25799928.625921145
1.638231635093689	25903200.673821915
1.6421923637390137	26005119.904353466
1.646146535873413	26096398.96166983
1.6500942707061768	26174901.150932558
1.6540353298187256	26251781.504716378
1.6579699516296387	26327956.340378907
1.661897897720337	26391697.412714135
1.6658192873001099	26447433.991083194
1.6697341203689575	26519102.250215318
1.6736423969268799	26648591.98922182
1.677544116973877	26785506.560496893
1.6814392805099487	26877591.02957623
1.6853278875350952	26949575.563188236
1.6892099380493164	26982738.0953214
1.6930854320526123	26961029.23632911
1.696954369544983	26966830.24700877
1.7008168697357178	27058245.892771192
1.7046726942062378	27138347.953687638
1.708522081375122	27146395.436178338
1.712364912033081	27137085.646129068
1.7162011861801147	27172067.082053076
1.7200311422348022	27242403.3947766
1.723854422569275	27279199.746826407
1.7276713848114014	27247009.395440143
1.731481909751892	27126288.228023484
1.7352858781814575	26969404.126914214
1.7390835285186768	26853190.262246102
1.7428747415542603	26693572.710616793
1.7466596364974976	26440182.36209677
1.7504380941390991	26096241.12680789
1.7542102336883545	25860395.981202357
1.7579760551452637	26283503.34127452
1.7617355585098267	26904134.452716105
1.7654887437820435	26731562.74576164
1.7692357301712036	25872023.514590923
1.7729763984680176	24594117.184518628
1.776710867881775	23036365.806924257
1.7804391384124756	22382334.18559429
1.7841613292694092	22453956.167625114
1.7878772020339966	22053598.002697572
1.7915871143341064	22128105.373062827
1.7952908277511597	22438544.394045718
1.7989884614944458	21467952.34764831
1.8026801347732544	19416981.34856789
1.806365728378296	17391776.622393403
1.8100452423095703	17423422.32271516
1.8137187957763672	18797597.32363548
1.817386507987976	18715419.775348287
1.8210482597351074	19297710.09476821
1.8247040510177612	19902861.546277482
1.828354001045227	18515582.834462125
1.8319982290267944	18734196.57723232
1.8356364965438843	20713785.29619738
1.8392690420150757	22188531.210618917
1.8428958654403687	22602510.11922351
1.8465168476104736	22395670.822548844
1.8501322269439697	21519535.146482926
1.8537418842315674	19198155.706962913
1.8573459386825562	17939355.190893117
1.860944390296936	17958702.504269112
1.864537239074707	17735616.829990767
1.8681244850158691	19192855.94121494
1.871706247329712	21628484.787076797
1.8752825260162354	23013292.163589533
1.8788533210754395	23853555.082923703
1.8824186325073242	24300990.759376254
1.8859784603118896	23996367.706272088
1.8895330429077148	23939300.222643763
1.8930821418762207	24732051.0465467
1.8966259956359863	24641519.355654404
1.9001644849777222	22402467.008577872
1.9036977291107178	20195744.809728518
1.9072256088256836	20408083.054398354
1.9107483625411987	20410978.821739927
1.9142658710479736	18613271.615160577
1.9177782535552979	18492941.39564508
1.9212853908538818	19868226.137148835
1.9247875213623047	19880508.17441638
1.9282845258712769	20042002.68889067
1.9317764043807983	21429055.77107547
1.9352631568908691	21907218.969623946
1.9387450218200684	21144448.164216433
1.942221760749817	20835437.89227561
1.9456936120986938	20987747.620090988
1.9491604566574097	20976296.314201478
1.952622413635254	20504198.35893911
1.956079363822937	19967903.586789943
1.959531545639038	20493109.127803843
1.962978720664978	21178233.944374327
1.966421127319336	21999905.862245742
1.9698586463928223	23356958.384173397
1.9732913970947266	23920167.325376976
1.9767193794250488	24114648.54563275
1.9801424741744995	24952347.523106728
1.9835609197616577	25754664.465291087
1.9869745969772339	25760501.805152778
1.990383505821228	25012379.21458632
1.9937876462936401	24691415.663143866
1.9971871376037598	24761031.280094035
2.000581979751587	25091843.327726465
2.003972291946411	26131869.486524407
2.007357597351074	26876254.106653545
2.0107386112213135	27383636.19940932
2.0141148567199707	27691578.359684434
2.017486572265625	27349133.16010316
2.0208535194396973	27405223.397986896
2.0242159366607666	28070304.44294965
2.027573823928833	28528495.353694852
2.0309269428253174	28782136.327709917
2.034275770187378	29054579.21582585
2.0376198291778564	29253352.402086664
2.040959596633911	29426422.29867006
2.044294595718384	29655967.936364517
2.0476250648498535	29898003.66402608
2.0509510040283203	29990667.810384937
2.054272413253784	29897456.49338209
2.057589530944824	29926960.234166235
2.0609018802642822	30115868.60106548
2.0642096996307373	30282334.99285813
2.0675129890441895	30399157.92164385
2.0708119869232178	30449328.935688276
2.074106216430664	30427912.726372033
2.0773961544036865	30422464.9425439
2.080681324005127	30481398.328977104
2.0839622020721436	30559136.613534123
2.087238311767578	30625288.342114273
2.090510129928589	30641432.462357372
2.0937774181365967	30621795.780351438
2.0970399379730225	30643319.002672117
2.1002981662750244	30682088.787653983
2.1035518646240234	30685538.88813725
2.1068007946014404	30687834.12774566
2.1100454330444336	30768447.208338894
2.1132853031158447	30873730.491222348
2.116520881652832	30895436.156405292
2.1197516918182373	30900976.97504393
2.1229779720306396	30948890.71286715
2.12619948387146	30991596.705116455
2.1294167041778564	31011478.279324364
2.132629156112671	31036043.492323484
2.1358368396759033	31048062.61072602
2.139039993286133	31032603.32148965
2.1422386169433594	31032120.77555392
2.145432472229004	31049375.995585553
2.1486217975616455	31049783.672852315
2.151806354522705	31035854.07548226
2.1549863815307617	31037016.228181496
2.1581614017486572	31061015.606456377
2.16133189201355	31081595.30214504
2.1644976139068604	31086670.67765037
2.167658567428589	31077348.018378787
2.1708147525787354	31049282.60738485
2.173966407775879	31007082.5370825
2.1771130561828613	30988071.01561862
2.1802549362182617	31017461.00130769
2.183391809463501	31053490.42348381
2.1865241527557373	31066448.3607504
2.1896514892578125	31066928.34708611
2.1927738189697266	31032022.87583198
2.1958916187286377	30940962.84385265
2.1990041732788086	30864480.25884963
2.2021119594573975	30858189.380504824
2.2052149772644043	30877617.29670957
2.208312749862671	30899299.020910256
2.2114057540893555	30920585.68771191
2.214493751525879	30912799.03718341
2.217576742172241	30879310.534941733
2.2206547260284424	30865348.762822844
2.2237277030944824	30867783.82342998
2.2267956733703613	30837436.35063072
2.2298583984375	30790739.97646188
2.2329163551330566	30771497.468117308
2.235969066619873	30784532.40936131
2.2390167713165283	30778851.512431063
2.2420592308044434	30678015.51091139
2.2450966835021973	30524739.120693844
2.248128890991211	30458696.77726511
2.2511560916900635	30515478.655137565
2.254178285598755	30598846.96719689
2.257194995880127	30641414.439936053
2.260206699371338	30621220.70063577
2.2632133960723877	30484547.138140596
2.266214609146118	30287875.85240006
2.2692108154296875	30195203.4775573
2.2722020149230957	30257470.65078263
2.2751877307891846	30364707.61241296
2.278168201446533	30350782.80768395
2.2811436653137207	30224267.818677336
2.284113883972168	30180912.980416052
2.287078857421875	30227922.59648885
2.290038824081421	30038273.301323906
2.2929933071136475	29270548.633404784
2.295942783355713	27977176.8471309
2.298887014389038	26550507.62906139
2.301826238632202	25325641.78549468
2.304760217666626	24332747.174845614
2.3076889514923096	23628548.821168125
2.310612440109253	23664330.436268575
2.3135311603546143	24238750.437843062
2.3164443969726562	24428845.250075392
2.319352865219116	24147626.98772223
2.322256088256836	23862056.780100334
2.3251543045043945	23762638.74095077
2.328047275543213	23847066.605879247
2.330935478210449	24124675.63201079
2.3338186740875244	24577149.409426082
2.3366971015930176	25098502.450536937
2.3395702838897705	25656824.405042805
2.3424389362335205	26296988.64316111
2.3453025817871094	27045500.27546227
2.348161458969116	27486474.478745766
2.351015567779541	27214139.202736676
2.353865146636963	26583687.283616643
2.3567099571228027	26068433.163324397
2.3595502376556396	26010450.71220481
2.3623859882354736	26521697.77723796
2.3652172088623047	26673010.655269753
2.368043899536133	25954368.74759347
2.370866537094116	25802147.72258537
2.3736846446990967	26545182.51762173
2.3764986991882324	26207076.69017314
2.3793084621429443	24778326.070698425
2.3821144104003906	24183609.87079447
2.384916305541992	25030018.955697708
2.387714147567749	26567412.927122302
2.3905084133148193	27704470.21639548
2.393299102783203	27767216.53140843
2.3960859775543213	26712262.64809777
2.398869514465332	25387429.674054705
2.4016497135162354	24652368.184429877
2.4044265747070312	24548171.485093933
2.407200336456299	24827189.970628593
2.409970998764038	25114232.417037085
2.4127390384674072	25190480.87543473
2.415503978729248	25309278.076375157
2.418266534805298	25683053.067859475
2.4210267066955566	26012739.689242642
2.4237842559814453	25979169.982100297
2.426539897918701	25661758.921502966
2.429293394088745	25242470.887489256
2.4320452213287354	24975950.49112474
2.4347951412200928	25055353.152412355
2.4375438690185547	25162053.783014048
2.440291166305542	24854750.79533078
2.443037271499634	24162308.335291676
2.445782423019409	23458097.28672089
2.4485268592834473	22906683.017982643
2.451270818710327	22606973.798352834
2.454014539718628	23227612.12081976
2.4567582607269287	24199117.919943906
2.4595019817352295	24008492.528279744
2.4622461795806885	23874311.66389666
2.4649908542633057	23992180.367298193
2.4677364826202393	22667784.90092667
2.4704833030700684	20385462.12967751
2.473231554031372	17998064.14321324
2.4759814739227295	15976491.287348995
