#wavelength (Angstrom)	surface_flux (erg / (Angstrom cm2 s))
6300.0	16.83297405855959
6301.3125	25.111163398539706
6302.6252734375	29.645918422296845
6303.938320369467	30.23686507426787
6305.251640852877	30.617581437921253
6306.565234944722	31.004805455266983
6307.8791027020025	31.393799747225398
6309.193244181732	31.78293711525273
6310.5076594409375	32.17241576879846
6311.822348536654	32.56493748687733
6313.137311525933	32.96602711142491
6314.452548465834	33.376086183830935
6315.768059413431	33.789593373347294
6317.083844425809	34.203447990686094
6318.399903560065	34.617450674528705
6319.716236873307	35.03286174318775
6321.032844422655	35.453684552692685
6322.349726265244	35.881977199905855
6323.666882458216	36.31421192483609
6324.984313058728	36.747075386032705
6326.302018123949	37.18004855716331
6327.619997711058	37.61397169920263
6328.938251877249	38.05302545967799
6330.256780679723	38.50149512108288
6331.575584175699	38.956605300343035
6332.894662422402	39.41326530788777
6334.214015477073	39.8700553668837
6335.533643396964	40.327087488368015
6336.853546239339	40.78555512529813
6338.173724061472	41.24745634594648
6339.494176920652	41.71253581726516
6340.814904874177	42.17870572121064
6342.135907979359	42.64502860580013
6343.457186293522	43.11170594704454
6344.778739874001	43.582462588054064
6346.100568778142	44.066954409955805
6347.422673063304	44.56817602226892
6348.745052786858	45.077046477861494
6350.067708006189	45.58685266425521
6351.39063877869	46.09679242652532
6352.713845161769	46.60775471424912
6354.037327212845	47.12339692315119
6355.3610849893485	47.64660849922362
6356.685118548721	48.17453432177314
6358.009427948419	48.70340821657324
6359.334013245908	49.232410416905715
6360.658874498668	49.7623356685993
6361.984011764189	50.29837321887002
6363.309425099973	50.84761289562522
6364.635114563535	51.40772790643586
6365.961080212403	51.97095097311328
6367.2873221041145	52.53441555010597
6368.61384029622	53.098043447400315
6369.940634846282	53.662366632069116
6371.267705811875	54.22854303232496
6372.595053250586	54.79671836689885
6373.922677220014	55.36574938624135
6375.250577777768	55.93495908060471
6376.578754981471	56.504437425160255
6377.907208888761	57.07741840183554
6379.235939557279	57.66461119965798
6380.564947044686	58.272048667407034
6381.894231408654	58.89047949336347
6383.223792706865	59.51065388948153
6384.553630997012	60.130970695566525
6385.883746336804	60.75159348882224
6387.2141387839565	61.373447951536996
6388.544808396204	61.99755017581073
6389.875755231287	62.62331709622233
6391.20697934696	63.24956816376148
6392.53848080099	63.87595891367718
6393.870259651158	64.5026262766935
6395.202315955253	65.13081958399327
6396.534649771077	65.76274201998977
6397.867261156446	66.39823756579862
6399.2001501691875	67.03503213661782
6400.533316867139	67.67203322638021
6401.866761308153	68.30941837132
6403.200483550093	68.95127744053696
6404.534483650832	69.60893935228549
6405.868761668259	70.28659719371636
6407.2033176602745	70.97376326854058
6408.5381516847865	71.66216217792338
6409.873263799722	72.35067926370644
6411.2086540630135	73.03837481455638
6412.544322532611	73.72123011824722
6413.880269266471	74.39583774260049
6415.216494322568	75.06521661838322
6416.552997758886	75.73369300322108
6417.8897796334195	76.40230343525154
6419.226840004177	77.07287513409761
6420.5641789291785	77.75795253301314
6421.9017964664545	78.47581998838636
6423.239692674053	79.22162263015558
6424.577867610025	79.97563375188943
6425.9163213324455	80.73016027924162
6427.25505389939	81.48526638289363
6428.594065368952	82.24608084000647
6429.933355799238	83.0243256197867
6431.272925248362	83.82214182664393
6432.612773774456	84.62812662995336
6433.9529014356585	85.43501674804712
6435.293308290125	86.24205798230209
6436.63399439602	87.04883045625358
6437.974959811519	87.85384982785709
6439.316204594813	88.65617866190931
6440.657728804104	89.45706585811236
6441.999532497605	90.25786568529017
6443.341615733541	91.05883550296916
6444.683978570154	91.86034191073126
6446.026621065689	92.66441855102762
6447.369543278411	93.47343720126732
6448.7127452665945	94.28620942881433
6450.056227088525	95.10002695342989
6451.399988802502	95.9140409480629
6452.744030466836	96.72838544224331
6454.088352139851	97.544541155813
6455.43295387988	98.36527934278962
6456.777835745272	99.19056540554571
6458.122997794385	100.01757527532963
6459.468440085592	100.84486400925692
6460.814162677278	101.6722490448441
6462.160165627836	102.49836268623548
6463.506448995675	103.3191875110895
6464.853012839217	104.13299542934249
6466.199857216891	104.94343404022537
6467.546982187145	105.75359577106055
6468.894387808435	106.56397551751697
6470.242074139227	107.3765612514667
6471.590041238007	108.20030635474288
6472.938289163264	109.04336908035845
6474.286817973508	109.8992927898392
6475.6356277272525	110.75798780083369
6476.984718483029	111.616926386639
6478.334090299379	112.47999550165777
6479.683743234858	113.37661913968832
6481.033677348033	114.35240691995313
6482.38389269748	115.39794196179015
6483.734389341793	116.46472078539475
6485.085167339573	117.53274211365081
6486.436226749436	118.6007517536716
6487.787567630007	119.66570311863057
6489.139190039932	120.72024074877858
6490.491094037857	121.76260317911274
6491.843279682447	122.79984268747161
6493.195747032382	123.83676327485321
6494.548496146348	124.8737844520118
6495.901527083045	125.90763636451256
6497.254839901187	126.92600257975646
6498.6084346595	127.92041414506733
6499.962311416722	128.90102130237136
6501.316470231601	129.879537282946
6502.670911162898	130.85825704319456
6504.025634269391	131.8386217819683
6505.3806396098635	132.82894372773225
6506.735927243117	133.83949230651453
6508.091497227958	134.86580244706073
6509.447349623215	135.8963269061722
6510.80348448772	136.92720464605887
6512.159901880322	137.95665008358642
6513.51660185988	138.96762398341082
6514.873584485267	139.9257875094215
6516.23084981537	140.82935625833946
6517.58839790908	141.7128196019973
6518.946228825313	142.59498453838907
6520.304342622985	143.47730274595108
6521.662739361031	144.3591916717707
6523.021419098398	145.23885641979146
6524.380381894044	146.1154232130752
6525.739627806938	146.99048791845766
6527.099156896065	147.8655049068122
6528.458969220418	148.74096313447512
6529.819064839006	149.62934567611615
6531.179443810848	150.59105320587085
6532.540106194976	151.68573005909673
6533.9010520504335	152.87187042925657
6535.262281436278	154.07779402022604
6536.6237944115765	155.28438444534902
6537.985591035413	156.49411991134576
6539.347671366879	157.7294400985958
6540.71003546508	159.0267523095921
6542.072683389135	160.38043054015557
6543.435615198176	161.75218165727742
6544.798830951341	163.1251983636632
6546.162330707791	164.49751816983658
6547.526114526688	165.85515314754198
6548.890182467215	167.162418490034
6550.254534588562	168.40895764830992
6551.619170949934	169.62855379870138
6552.984091610549	170.84553124604543
6554.349296629635	172.06223294832017
6555.7147860664345	173.262538723023
6557.080559980198	174.38262114344775
6558.446618430195	175.37423349956538
6559.8129614757	176.28793203065487
6561.1795891760075	177.18786743008334
6562.54650159042	178.08782584514984
6563.913698778251	178.98913073075693
6565.281180798831	179.8990246879234
6566.648947711497	180.82717227979953
6568.016999575604	181.7701409335867
6569.385336450516	182.71727703415127
6570.753958395609	183.6647638527217
6572.122865470276	184.61525373743885
6573.492057733915	185.59913361137976
6574.861535245943	186.6801198624642
6576.231298065786	187.86427775833394
6577.601346252884	189.08828776612077
6578.971679866686	190.3157308996177
6580.342298966659	191.5438632222224
6581.7132036122775	192.7817899982034
6583.08439386303	194.05924484585657
6584.455869778419	195.39250278382767
6585.827631417956	196.75569168957847
6587.199678841168	198.12347244402312
6588.572012107595	199.49149282468497
6589.944631276783	200.8557651356114
6591.3175364083	202.1958661525547
6592.690727561718	203.49010643997758
6594.064204796627	204.75169510362448
6595.437968172626	206.0060876748774
6596.812017749329	207.2605438543874
6598.18635358636	208.51092712770625
6599.5609757433585	209.72123636535645
6600.935884279972	210.82936653175122
6602.311079255864	211.84104275374807
6603.686560730708	212.82070162989095
6605.062328764195	213.79860261892034
6606.43838341602	214.7766322347417
6607.814724745898	215.7535841125195
6609.191352813554	216.7261731151482
6610.568267678725	217.69324868944852
6611.9454694011565	218.65787010457205
6613.322958040616	219.62239228108288
6614.700733656875	220.5867899450631
6616.07879630972	221.54031056587573
6617.457146058951	222.43834404952895
6618.835782964381	223.24457300628677
6620.214707085831	223.9931632053312
6621.593918483141	224.7309903790311
6622.973417216159	225.46881513934537
6624.353203344746	226.2083571096212
6625.733276928776	226.96024890414103
6627.113638028136	227.7396101095516
6628.494286702727	228.54195689590637
6629.8752230124555	229.35088303744968
6631.25644701725	230.16023757669262
6632.637958777046	230.97477963787466
6634.019758351792	231.85261863221697
6635.401845801448	232.9228872689868
6636.784221185991	234.20589962938348
6638.166884565405	235.5752559084522
6639.54983599969	236.95260124691643
6640.933075548856	238.327945925829
6642.316603272929	239.64594980855782
6643.700419231944	240.7139861073227
6645.084523485952	241.4154496099956
6646.468916095012	241.91466867766314
6647.853597119198	242.3832917718159
6649.238566618597	242.85135326528314
6650.623824653309	243.2886535915369
6652.009371283446	243.53152491806597
6653.39520656913	243.39515150814017
6654.781330570499	242.97827431634497
6656.167743347702	242.49398330336305
6657.554444960899	242.007595306886
6658.941435470266	241.51528997083605
6660.328714935989	240.96447382947116
6661.716283418268	240.25878334372382
6663.104140977314	239.40184203792387
6664.492287673351	238.49239877441332
6665.880723566617	237.57938482808973
6667.269448717359	236.65747084643783
6668.658463185843	235.5794746335677
6670.04776703234	233.92654542465385
6671.437360317139	231.52976655761773
6672.827243100539	228.7721283542915
6674.21741544285	225.9693666175392
6675.607877404403	223.16263727081162
6676.998629045529	220.22753946533336
6678.389670426579	216.61469309844676
6679.781001607919	211.840218159777
6681.17262264992	206.30947074719737
6682.564533612973	200.62796365557656
6683.956734557476	194.94230741229555
6685.349225543842	189.17408281722044
6686.742006632498	182.74547198455843
6688.135077883879	174.79162295560715
6689.528439358438	165.51731775516345
6690.9220911166385	155.84912616641358
6692.316033218955	146.16012697166352
6693.710265725876	136.42495947956888
6695.104788697902	126.08788402208793
6696.4996021955485	113.84242486992589
6697.894706279339	99.41319042691073
6699.290101009814	84.06263242500013
6700.685786447524	68.62117979452437
6702.081762653035	53.22032162773272
6703.478029686921	39.01572314638951
6704.874587609773	30.227738008461994
6706.27143648219	29.649728040622033
6707.668576364793	33.777878232009385
6709.066007318201	38.672674407419066
6710.46372940306	43.578386035129725
6711.861742680019	48.7129702169291
6713.260047209744	55.35977562357614
6714.658643052912	65.06426406240176
6716.0575302702155	77.11033125825568
6717.4567089223565	89.74796096179678
6718.856179070049	102.40756608511909
6720.255940774021	115.07114099127185
6721.6559940950165	127.75174380225543
6723.056339093787	140.4746683702027
6724.456975831098	153.24028752376
6725.85790436773	166.02299981086247
6727.259124764472	178.8093885685416
6728.660637082132	191.58086044545905
6730.062441381524	204.01731915109727
6731.464537723479	215.16047230176667
6732.866926168839	224.57227923259765
6734.269606778457	233.1135809027593
6735.672579613203	241.54153107498112
6737.075844733956	249.96854932011
6738.4794022016085	258.2863376471385
6739.883252077068	265.97707237386464
6741.2873944212515	272.5435212333308
6742.691829295089	278.3494981858217
6744.096556759525	283.99751295604773
6745.5015768755175	289.6435117458835
6746.906889704033	295.26929859422245
6748.312495306054	300.71479408654545
6749.718393742578	305.7274990396081
6751.124585074607	310.3531743103038
6752.531069363165	314.8590653014509
6753.937846669282	319.3594730528024
6755.344917054005	323.85711977794386
6756.752280578391	328.2998607531021
6758.159937303512	332.5576611448116
6759.567887290451	336.5966397804007
6760.976130600304	340.5409741711472
6762.384667294178	344.4766200710057
6763.793497433198	348.41060895066056
6765.202621078498	352.2720400221283
6766.612038291223	355.78795530562275
6768.021749132533	358.7597017343104
6769.431753663604	361.40627623533874
6770.842051945616	363.99636965079395
6772.252644039771	366.58603138115024
6773.66353000728	369.1461335020378
6775.074709909365	371.49198375298164
6776.486183807264	373.3842231634693
6777.897951762223	374.9163024808606
6779.310013835508	376.35392221285827
6780.722370088391	377.78850086805966
6782.135020582158	379.23214510748875
6783.547965378113	380.7754998507113
6784.961204537568	382.6034464371962
6786.374738121846	384.7292666353742
6787.788566192289	386.96829882242514
6789.2026888102455	389.21670985879035
6790.617106037082	391.4676201913541
6792.031817934173	393.76277179158393
6793.446824562909	396.2353730731087
6794.862125984693	398.95427545992777
6796.27772226094	401.8020543588474
6797.693613453079	404.6682692861596
6799.109799622548	407.53397087453993
6800.5262808308025	410.338179434501
6801.9430571393095	412.77801828750705
6803.360128609546	414.5428603374244
6804.777495303007	415.8334133723638
6806.195157281196	417.01840241483114
6807.6131146056305	418.2010365712298
6809.031367337839	419.3832337535429
6810.449915539369	420.55940109118075
6811.868759271772	421.72006460924894
6813.287898596622	422.8663015764381
6814.707333575495	424.0079861626481
6816.12706426999	425.1496315158109
6817.547090741715	426.30084693215747
6818.967413052284	427.60210895607094
6820.388031263337	429.4228385173741
6821.808945436517	431.8816715377604
6823.230155633484	434.6323041785375
6824.651661915907	437.4158819813901
6826.073464345473	440.19831751807294
6827.49556298388	442.922967530417
6828.917957892834	445.3599628910275
6830.340649134063	447.3285065810534
6831.763636769299	449.00769533508964
6833.186920860294	450.63404380958264
6834.610501468806	452.2598429575739
6836.034378656611	453.8646138462272
6837.458552485498	455.31032993883474
6838.883023017267	456.4086644522423
6840.307790313729	457.2225439791998
6841.732854436711	457.9582496646177
6843.158215448053	458.6909645241596
6844.583873409604	459.437700139655
6846.009828383232	460.3530426855181
6847.436080430813	461.77081909277547
6848.862629614236	463.733855707506
6850.289475995406	465.913036915189
6851.716619636238	468.11112080515426
6853.144060598662	470.30055005888585
6854.57179894462	472.27098491530523
6855.999834736067	473.3115655616721
6857.428168034971	473.0141456087355
6858.856798903312	471.99198750368004
6860.285727403084	470.86252013433995
6861.7149535962935	469.7331384717725
6863.144477544959	468.6591383349274
6864.5742993111135	467.92690570350834
6866.004418956804	467.8499044256349
6867.434836544087	468.24961095792344
6868.865552135034	468.76120300629117
6870.296565791729	469.2760430036204
6871.72787757627	469.83912313026144
6873.159487550764	470.879935095756
6874.591395777338	473.169150437882
6876.023602318125	476.65822212419727
6877.456107235274	480.55349666442584
6878.888910590949	484.4743781133307
6880.322012447323	488.3737061470115
6881.755412866582	491.8957276789885
6883.18911191093	494.06314001183495
6884.623109642579	494.51539866371854
6886.057406123754	494.15542209881863
6887.492001416697	493.6987280602993
6888.926895583659	493.2423993844023
6890.362088686906	492.8133581036871
6891.797580788715	492.52819036669854
6893.233371951381	492.4866836416809
6894.669462237203	492.60099738074064
6896.105851708503	492.7451583120589
6897.542540427609	492.890082845017
6898.979528456865	493.0794157692632
6900.416815858628	493.617468829626
6901.854402695265	494.947767143098
6903.29228902916	496.95434364200986
6904.730474922708	499.15906391005814
6906.168960438317	501.3734869367359
6907.607745638409	503.5786263605097
6909.0468305854165	505.6524739713621
6910.48621534179	507.31287183767023
6911.925899969986	508.50664848593044
6913.365884532479	509.50815957938056
6914.806169091757	510.49243727498487
6916.246753710318	511.4798687659888
6917.687638450675	512.5429086534328
6919.128823375352	513.9384172629757
6920.570308546889	515.8295247181605
6922.012094027836	518.0008804585502
6923.454179880759	520.217457134427
6924.896566168235	522.4342368306751
6926.339252952854	524.6032698821037
6927.782240297219	526.45767806232
6929.225528263946	527.6841464600132
6930.669116915669	528.43772304242
6932.113006315028	529.0756018262036
6933.557196524675	529.7101262001967
6935.001687607285	530.3422423537456
6936.446479625538	530.9483100028649
6937.8915726421255	531.4839405017034
6939.33696671976	531.9496189207011
6940.782661921161	532.3905302567777
6942.228658309061	532.8298098321904
6943.67495594621	533.2803573197335
6945.121554895365	533.9392048701201
6946.568455219301	535.3828319889184
6948.015656980806	537.8590342054681
6949.463160242676	540.8446280388554
6950.910965067728	543.8952874146186
6952.359071518784	546.9466632499111
6953.807479658683	549.9948981397257
6955.256189550279	553.0231315594575
6956.705201256435	556.0158560769916
6958.154514840031	558.9851872636373
6959.604130363956	561.9502154908417
6961.054047891116	564.9156070375111
6962.504267484427	567.8512982198814
6963.954789206819	570.5353736674234
6965.405613121237	572.6249612640934
6966.856739290638	574.1899211215542
6968.30816777799	575.5950272075635
6969.759898646277	576.9923331619453
6971.211931958496	578.3900225418543
6972.6642677776545	579.789330098205
6974.116906166776	581.1932448465167
6975.569847188894	582.6024711328565
6977.023090907059	584.0141394639035
6978.47663738433	585.4263126913759
6979.930486683786	586.8379410215935
6981.3846388685115	588.2263258323183
6982.83909400161	589.5063859750308
6984.293852146194	590.6187870744172
6985.748913365391	591.6328854282083
6987.204277722341	592.630483784185
6988.659945280201	593.6286566868325
6990.115916102135	594.6792046517705
6991.572190251322	596.0912893643276
6993.028767790958	598.2511734528272
6994.485648784248	600.9929802829978
6995.942833294413	603.8839978547371
6997.400321384683	606.7805432073526
6998.858113118305	609.646268597166
7000.316208558537	612.168360602612
7001.774607768653	613.7248087575894
7003.23331081194	614.285885266428
7004.692317751692	614.4765381067567
7006.151628651223	614.6390219520883
7007.6112435738605	614.7983772599908
7009.071162582939	614.890573716598
7010.5313857418105	614.7156432149136
7011.9919131138395	614.1762459602368
7013.452744762405	613.4508668917324
7014.913880750897	612.7006892866789
7016.375321142722	611.9495696460685
7017.837066001293	611.1648057847127
7019.299115390043	610.1897089757582
7020.761469372417	608.8704939602509
7022.224128011869	607.3145190478606
7023.687091371872	605.7070748132012
7025.150359515908	604.0982322212408
7026.613932507475	602.5301285491174
7028.07781041008	601.3329765729247
7029.541993287248	601.0523735279072
7031.0064812025175	601.6096833035344
7032.471274219435	602.4327396068746
7033.936372401564	603.2701285643715
7035.401775812481	604.1199352509321
7036.867484515776	605.1567660636056
7038.33349857505	606.8275140534064
7039.79981805392	609.2650434883127
7041.266443016016	612.047721928505
7042.733373524977	614.86837611718
7044.200609644461	617.6833530438646
7045.668151438137	620.2974797016325
7047.135998969687	621.9358157244876
7048.604152302806	622.0141302647303
7050.072611501203	621.1489388734866
7051.541376628598	620.1172240482745
7053.010447748729	619.0837472775235
7054.479824925345	618.0834247925239
7055.949508222204	617.3229521748848
7057.419497703085	617.0754396093184
7058.889793431773	617.2414456633666
7060.360395472071	617.5193501094423
7061.831303887795	617.8017065362179
