#wavelength (Angstrom)	surface_flux (erg / (Angstrom cm2 s))
6300.0	8.473918785036082
6301.3125	12.636398106461888
6302.6252734375	14.907560634408345
6303.938320369467	15.19084951207795
6305.251640852877	15.367583881058492
6306.565234944722	15.547098012875479
6307.8791027020025	15.72737048953993
6309.193244181732	15.907706979821365
6310.5076594409375	16.088176851816335
6311.822348536654	16.26977490593352
6313.137311525933	16.454535398275894
6314.452548465834	16.64260617854998
6315.768059413431	16.831954286692653
6317.083844425809	17.021438046198618
6318.399903560065	17.21099468896774
6319.716236873307	17.401304993533873
6321.032844422655	17.594531431704496
6322.349726265244	17.79178571414125
6323.666882458216	17.991162266456804
6324.984313058728	18.19087133568077
6326.302018123949	18.390629150713558
6327.619997711058	18.590719398244193
6328.938251877249	18.792556183136597
6330.256780679723	18.99758900300059
6331.575584175699	19.204879087801572
6332.894662422402	19.412704515897207
6334.214015477073	19.620585166836793
6335.533643396964	19.828608526508216
6336.853546239339	20.037582155237445
6338.173724061472	20.24885806624585
6339.494176920652	20.462263480873293
6340.814904874177	20.676385646817767
6342.135907979359	20.890590221187168
6343.457186293522	21.104942215375132
6344.778739874001	21.320929706817864
6346.100568778142	21.542410224872842
6347.422673063304	21.77058011838233
6348.745052786858	22.00181154676033
6350.067708006189	22.233422620258512
6351.39063877869	22.465097745416976
6352.713845161769	22.697355861357078
6354.037327212845	22.932331339343804
6355.3610849893485	23.171710392399284
6356.685118548721	23.413826833261375
6358.009427948419	23.65648280426495
6359.334013245908	23.89919778042265
6360.658874498668	24.142204803259
6361.984011764189	24.38704550946594
6363.309425099973	24.63582616442887
6364.635114563535	24.887855523252792
6365.961080212403	25.14082606956832
6367.2873221041145	25.39388620742439
6368.61384029622	25.647015391801276
6369.940634846282	25.900402703227904
6371.267705811875	26.154459708991332
6372.595053250586	26.409238204517994
6373.922677220014	26.66433184437801
6375.250577777768	26.919499999781028
6376.578754981471	27.17479024362911
6377.907208888761	27.43168802669127
6379.235939557279	27.69511235382222
6380.564947044686	27.967834266888993
6381.894231408654	28.245604400922257
6383.223792706865	28.524174090814313
6384.553630997012	28.80281163550394
6385.883746336804	29.081831687299594
6387.2141387839565	29.36293342818641
6388.544808396204	29.64798200003209
6389.875755231287	29.935907067368692
6391.20697934696	30.224541529978524
6392.53848080099	30.513252550416347
6393.870259651158	30.802084986876963
6395.202315955253	31.0915627009727
6396.534649771077	31.382609517146445
6397.867261156446	31.67516001582729
6399.2001501691875	31.968260645402385
6400.533316867139	32.26145330528385
6401.866761308153	32.55479707997815
6403.200483550093	32.84975697400941
6404.534483650832	33.150391038033455
6405.868761668259	33.458201249538845
6407.2033176602745	33.76943089139759
6408.5381516847865	34.08111569715566
6409.873263799722	34.39287591852195
6411.2086540630135	34.70507134917239
6412.544322532611	35.01924398516457
6413.880269266471	35.3367012757509
6415.216494322568	35.6562848888057
6416.552997758886	35.97633487375106
6417.8897796334195	36.296460443211984
6419.226840004177	36.61699964681939
6420.5641789291785	36.940341212310656
6421.9017964664545	37.269966867435826
6423.239692674053	37.604952152960514
6424.577867610025	37.941540704618475
6425.9163213324455	38.27826761042376
6427.25505389939	38.61513292364115
6428.594065368952	38.952965449852854
6429.933355799238	39.29365943631445
6431.272925248362	39.63756088892693
6432.612773774456	39.98282715099834
6433.9529014356585	40.328284505462385
6435.293308290125	40.673844272763674
6436.63399439602	41.02024453129097
6437.974959811519	41.37009632634757
6439.316204594813	41.72504869004955
6440.657728804104	42.082904875202786
6441.999532497605	42.44128278976491
6443.341615733541	42.79974492091231
6444.683978570154	43.158728506502
6446.026621065689	43.5206909930203
6447.369543278411	43.88849843245688
6448.7127452665945	44.260714685006825
6450.056227088525	44.634067012452014
6451.399988802502	45.007529398183564
6452.744030466836	45.381126057978335
6454.088352139851	45.7553766255405
6455.43295387988	46.13125362250244
6456.777835745272	46.508744911318445
6458.122997794385	46.88685944366702
6459.468440085592	47.265090148697496
6460.814162677278	47.643457178687676
6462.160165627836	48.02299514829613
6463.506448995675	48.406743014295664
6464.853012839217	48.79600800564044
6466.199857216891	49.18803099937456
6467.546982187145	49.58047282321968
6468.894387808435	49.97302250694219
6470.242074139227	50.366674442563124
6471.590041238007	50.76591363373687
6472.938289163264	51.17482678141925
6474.286817973508	51.590179570726626
6475.6356277272525	52.006917791517274
6476.984718483029	52.423768826583384
6478.334090299379	52.84104290790807
6479.683743234858	53.26124345539846
6481.033677348033	53.688250968318386
6482.38389269748	54.12126426965842
6483.734389341793	54.55615667921491
6485.085167339573	54.991226495399204
6486.436226749436	55.426518214662835
6487.787567630007	55.863739474854
6489.139190039932	56.307013010138064
6490.491094037857	56.757326155463794
6491.843279682447	57.210726198002114
6493.195747032382	57.664520570074814
6494.548496146348	58.11844235545903
6495.901527083045	58.573421069927356
6497.254839901187	59.03295800996796
6498.6084346595	59.49946072659111
6499.962311416722	59.97004378391224
6501.316470231601	60.44137742596627
6502.670911162898	60.91281268634614
6504.025634269391	61.38420829455955
6505.3806396098635	61.85476904510766
6506.735927243117	62.32351248760212
6508.091497227958	62.790865819481716
6509.447349623215	63.257933788840454
6510.80348448772	63.725085717750446
6512.159901880322	64.19226170951174
6513.51660185988	64.65870388930867
6514.873584485267	65.1228849083107
6516.23084981537	65.58472541581618
6517.58839790908	66.04575949296502
6518.946228825313	66.50682368006866
6520.304342622985	66.96817291710506
6521.662739361031	67.43341571883931
6523.021419098398	67.91366969749264
6524.380381894044	68.41434717215718
6525.739627806938	68.92556380651672
6527.099156896065	69.4383116728594
6528.458969220418	69.95116590375878
6529.819064839006	70.46379674298554
6531.179443810848	70.9746387915669
6532.540106194976	71.4821462527917
6533.9010520504335	71.98739486831163
6535.262281436278	72.49224242083878
6536.6237944115765	72.99718623316838
6537.985591035413	73.50264575854743
6539.347671366879	74.01180446502745
6540.71003546508	74.52982736743928
6542.072683389135	75.05591633506025
6543.435615198176	75.58463884465817
6544.798830951341	76.11361050731871
6546.162330707791	76.64282129186249
6547.526114526688	77.17410583367854
6548.890182467215	77.71214444993552
6550.254534588562	78.25829549772536
6551.619170949934	78.80812813234513
6552.984091610549	79.3584520992966
6554.349296629635	79.90887988549532
6555.7147860664345	80.45907830947331
6557.080559980198	81.00772849734985
6558.446618430195	81.55383352707598
6559.8129614757	82.09843808920051
6561.1795891760075	82.64286778305203
6562.54650159042	83.1874036961604
6563.913698778251	83.73168305745043
6565.281180798831	84.27339374836816
6566.648947711497	84.8094504542469
6568.016999575604	85.34094903833484
6569.385336450516	85.87129063619511
6570.753958395609	86.40169375054985
6572.122865470276	86.93272084290982
6573.492057733915	87.46993315987221
6574.861535245943	88.02499170530837
6576.231298065786	88.59900652336306
6577.601346252884	89.1803892711502
6578.971679866686	89.7624747813301
6580.342298966659	90.34473492453309
6581.7132036122775	90.9282904446033
6583.08439386303	91.51680116956746
6584.455869778419	92.11227035447241
6585.827631417956	92.7115135070391
6587.199678841168	93.31141174056165
6588.572012107595	93.91142402642795
6589.944631276783	94.51075027162733
6591.3175364083	95.10528342034121
6592.690727561718	95.69066178413617
6594.064204796627	96.26954170212898
6595.437968172626	96.84704224538594
6596.812017749329	97.42462556796706
6598.18635358636	98.00217921102774
6599.5609757433585	98.57845719057481
6600.935884279972	99.151310060611
6602.311079255864	99.72093599225232
6603.686560730708	100.28956517380017
6605.062328764195	100.85824491515571
6606.43838341602	101.4271317124126
6607.814724745898	101.99764850551529
6609.191352813554	102.57367007394824
6610.568267678725	103.1565535298606
6611.9454694011565	103.74269064691285
6613.322958040616	104.3293039530055
6614.700733656875	104.91601733774078
6616.07879630972	105.5020878646888
6617.457146058951	106.08443459861583
6618.835782964381	106.66054933278676
6620.214707085831	107.23279171919225
6621.593918483141	107.80439921267353
6622.973417216159	108.37611128738367
6624.353203344746	108.9474134116346
6625.733276928776	109.51470774886619
6627.113638028136	110.0728781573485
6628.494286702727	110.62344191437754
6629.8752230124555	111.17195060714793
6631.25644701725	111.72048563707145
6632.637958777046	112.2690952961135
6634.019758351792	112.8173205480375
6635.401845801448	113.36414127748542
6636.784221185991	113.90939702878792
6638.166884565405	114.45408637567061
6639.54983599969	114.99882834019746
6640.933075548856	115.54343475127716
6642.316603272929	116.08188152583489
6643.700419231944	116.59320004606874
6645.084523485952	117.0646971199102
6646.468916095012	117.51426093802858
6647.853597119198	117.96057653002593
6649.238566618597	118.4068839610688
6650.623824653309	118.84804547704954
6652.009371283446	119.25627511220988
6653.39520656913	119.60019660890737
6654.781330570499	119.89657329151032
6656.167743347702	120.18158158067907
6657.554444960899	120.46630661819208
6658.941435470266	120.74770931751986
6660.328714935989	120.99520979709271
6661.716283418268	121.1527785360941
6663.104140977314	121.22252241849668
6664.492287673351	121.26185793509022
6665.880723566617	121.29923567513906
6667.269448717359	121.33408921251797
6668.658463185843	121.32363195581763
6670.04776703234	121.14610189442728
6671.437360317139	120.7523941183221
6672.827243100539	120.25384585332229
6674.21741544285	119.74224309835427
6675.607877404403	119.22919351076767
6676.998629045529	118.66491789495757
6678.389670426579	117.82963992998144
6679.781001607919	116.52978622979103
6681.17262264992	114.92751719423745
6682.564533612973	113.26506475755684
6683.956734557476	111.60100996382413
6685.349225543842	109.89130506705452
6686.742006632498	107.81429992223856
6688.135077883879	104.88856295134784
6689.528439358438	101.22808892778279
6690.9220911166385	97.3486656291621
6692.316033218955	93.45797244306672
6693.710265725876	89.52173586393378
6695.104788697902	84.97687694936538
6696.4996021955485	78.49966588971458
6697.894706279339	69.81107430989239
6699.290101009814	60.19022712049695
6700.685786447524	50.478520802319224
6702.081762653035	40.79379155531674
6703.478029686921	31.90101525197171
6704.874587609773	26.59379387416583
6706.27143648219	26.721152835198698
6707.668576364793	29.963792573650124
6709.066007318201	33.714008778802054
6710.46372940306	37.470904717643826
6711.861742680019	41.3305776698167
6713.260047209744	45.867502044146875
6714.658643052912	51.77348378598543
6716.0575302702155	58.7279681982815
6717.4567089223565	65.94758333555254
6718.856179070049	73.17736047612463
6720.255940774021	80.38875003935965
6721.6559940950165	87.38678739305273
6723.056339093787	93.7938140632519
6724.456975831098	99.6042717765576
6725.85790436773	105.20042890306362
6727.259124764472	110.78262055723586
6728.660637082132	116.35607848464328
6730.062441381524	121.74061129660063
6731.464537723479	126.3967688469865
6732.866926168839	130.07796549984812
6734.269606778457	133.26879307842412
6735.672579613203	136.39547492996329
6737.075844733956	139.52174914928062
6738.4794022016085	142.6084555663288
6739.883252077068	145.46794445954225
6741.2873944212515	147.92002805540832
6742.691829295089	150.09654580713277
6744.096556759525	152.21583609800334
6745.5015768755175	154.33440049097607
6746.906889704033	156.44344387095185
6748.312495306054	158.46840301239328
6749.718393742578	160.2916665936036
6751.124585074607	161.93454948842833
6752.531069363165	163.5215315984826
6753.937846669282	165.10585304936475
6755.344917054005	166.68879642722797
6756.752280578391	168.24627956652694
6758.159937303512	169.71824809392572
6759.567887290451	171.08905455094416
6760.976130600304	172.4160481645238
6762.384667294178	173.73892610016622
6763.793497433198	175.0617443000209
6765.202621078498	176.37490406554875
6766.612038291223	177.64145167109228
6768.021749132533	178.83449298302668
6769.431753663604	179.98367640821974
6770.842051945616	181.12537804481985
6772.252644039771	182.26718963806636
6773.66353000728	183.40554695200905
6775.074709909365	184.5177944524891
6776.486183807264	185.5745708264085
6777.897951762223	186.5873393941339
6779.310013835508	187.58869276674085
6780.722370088391	188.58984483104817
6782.135020582158	189.59123754803116
6783.547965378113	190.5932026505885
6784.961204537568	191.59641670339127
6786.374738121846	192.60092835059123
6787.788566192289	193.60606191791192
6789.2026888102455	194.61143750038948
6790.617106037082	195.6170038424517
6792.031817934173	196.6223767653657
6793.446824562909	197.62633016718144
6794.862125984693	198.62823033419284
6796.27772226094	199.62915817187263
6797.693613453079	200.63013029875216
6799.109799622548	201.63122020081116
6800.5262808308025	202.62779120323356
6801.9430571393095	203.59678268209532
6803.360128609546	204.51454390629607
6804.777495303007	205.3963565539873
6806.195157281196	206.27029492898896
6807.6131146056305	207.14421629067996
6809.031367337839	208.0179203318708
6810.449915539369	208.8881383079404
6811.868759271772	209.74933316334383
6813.287898596622	210.60213451555404
6814.707333575495	211.452313329928
6816.12706426999	212.30250732317572
6817.547090741715	213.15329134669133
6818.967413052284	214.01088085642627
6820.388031263337	214.89162101193773
6821.808945436517	215.8007609254395
6823.230155633484	216.7229783282474
6824.651661915907	217.64682017226625
6826.073464345473	218.57079719109052
6827.49556298388	219.49300591514316
6828.917957892834	220.40572388320984
6830.340649134063	221.30287722106553
6831.763636769299	222.1904827537455
6833.186920860294	223.07648627233206
6834.610501468806	223.96263447610195
6836.034378656611	224.84694630122578
6837.458552485498	225.71636655094946
6838.883023017267	226.55308238365885
6840.307790313729	227.36304573775809
6841.732854436711	228.16576773019386
6843.158215448053	228.96835931553986
6844.583873409604	229.7713326235403
6846.009828383232	230.5770788729895
6847.436080430813	231.39076183169664
6848.862629614236	232.21304398457576
6850.289475995406	233.03883450856478
6851.716619636238	233.86508244199908
6853.144060598662	234.6908177848114
6854.57179894462	235.50023547112136
6855.999834736067	236.2399209661589
6857.428168034971	236.879205859054
6858.856798903312	237.46417119944616
6860.285727403084	238.0412111064902
6861.7149535962935	238.6184393221215
6863.144477544959	239.2025534456357
6864.5742993111135	239.82839167575113
6866.004418956804	240.5340861689548
6867.434836544087	241.29791999530755
6868.865552135034	242.07551342856596
6870.296565791729	242.85364904472047
6871.72787757627	243.6343657201964
6873.159487550764	244.43924786390733
6874.591395777338	245.30702609184056
6876.023602318125	246.23526067498014
6877.456107235274	247.18406609022887
6878.888910590949	248.13431528142354
6880.322012447323	249.0829483736256
6881.755412866582	250.00111637869614
6883.18911191093	250.80956710725707
6884.623109642579	251.47906302354414
6886.057406123754	252.08282434573462
6887.492001416697	252.67887444189384
6888.926895583659	253.27502789494727
6890.362088686906	253.87120398315693
6891.797580788715	254.46697030611656
6893.233371951381	255.0619567709676
6894.669462237203	255.6564892102494
6896.105851708503	256.251034893458
6897.542540427609	256.84569018838476
6898.979528456865	257.4386003390685
6900.416815858628	258.01694898809717
6901.854402695265	258.562056672029
6903.29228902916	259.0788074823363
6904.730474922708	259.58733853858763
6906.168960438317	260.09558588900427
6907.607745638409	260.60159261800845
6909.0468305854165	261.0759800931164
6910.48621534179	261.45080687005344
6911.925899969986	261.71326966899795
6913.365884532479	261.9294312062977
6914.806169091757	262.14143786775367
6916.246753710318	262.3548108261064
6917.687638450675	262.6020366241352
6919.128823375352	262.99828401125194
6920.570308546889	263.61669581848565
6922.012094027836	264.3607150576198
6923.454179880759	265.12496223580933
6924.896566168235	265.88944922103764
6926.339252952854	266.6469241508763
6927.782240297219	267.35768717479203
6929.225528263946	267.9751306838577
6930.669116915669	268.5223190889928
6932.113006315028	269.05238733875575
6933.557196524675	269.5820504092028
6935.001687607285	270.11533485715927
6936.446479625538	270.6849132914308
6937.8915726421255	271.35213402763947
6939.33696671976	272.11632672513355
6940.782661921161	272.91504257682817
6942.228658309061	273.71630698863316
6943.67495594621	274.51858559292754
6945.121554895365	275.33681508045294
6946.568455219301	276.21469737121
6948.015656980806	277.17101743718223
6949.463160242676	278.16611370196034
6950.910965067728	279.166302628964
6952.359071518784	280.1664527069953
6953.807479658683	281.15558889488767
6955.256189550279	282.0836100485769
6956.705201256435	282.9044357178154
6958.154514840031	283.6540667892835
6959.604130363956	284.3892296623929
6961.054047891116	285.12424731700565
6962.504267484427	285.8564510675929
6963.954789206819	286.5641235770079
6965.405613121237	287.21371028948136
6966.856739290638	287.8120479610001
6968.30816777799	288.3948345720826
6969.759898646277	288.97695060336633
6971.211931958496	289.55841020730895
6972.6642677776545	290.12881242076605
6974.116906166776	290.6629784158877
6975.569847188894	291.15497534288323
6977.023090907059	291.628976251468
6978.47663738433	292.10130014791577
6979.930486683786	292.5736796844701
6981.3846388685115	293.04499463292666
6982.83909400161	293.51104112498956
6984.293852146194	293.9688874482391
6985.748913365391	294.4219605362561
6987.204277722341	294.87430230558147
6988.659945280201	295.3267683294064
6990.115916102135	295.7830490099619
6991.572190251322	296.2651927956824
6993.028767790958	296.8007467299982
6994.485648784248	297.3778810334454
6995.942833294413	297.9657360736828
6997.400321384683	298.5540635888688
6998.858113118305	299.1388432470032
7000.316208558537	299.68353674877795
7001.774607768653	300.115489897274
7003.23331081194	300.4312303350012
7004.692317751692	300.70375539793713
7006.151628651223	300.97304230556426
7007.6112435738605	301.2420044000315
7009.071162582939	301.50292914094115
7010.5313857418105	301.7317300684529
7011.9919131138395	301.91668246317005
7013.452744762405	302.0792851254965
7014.913880750897	302.23895284365386
7016.375321142722	302.39866712976584
7017.837066001293	302.55942445769256
7019.299115390043	302.7259495258099
7020.761469372417	302.9028794831809
7022.224128011869	303.08697712141105
7023.687091371872	303.2726553120415
7025.150359515908	303.4584183969744
7026.613932507475	303.6490393458519
7028.07781041008	303.8832615568564
7029.541993287248	304.2250991713447
7031.0064812025175	304.6653259458193
7032.471274219435	305.1368104627947
7033.936372401564	305.6100547167169
7035.401775812481	306.0820636459899
7036.867484515776	306.53381372759236
7038.33349857505	306.9166155261149
7039.79981805392	307.2159933667142
7041.266443016016	307.4778845641144
7042.733373524977	307.73575598673415
7044.200609644461	307.9936859771009
7045.668151438137	308.25200174576923
7047.135998969687	308.51198069503585
7048.604152302806	308.77458586674777
7050.072611501203	309.03880102462523
7051.541376628598	309.30334542300295
7053.010447748729	309.5678965129053
7054.479824925345	309.82719145350825
7055.949508222204	310.04833159166304
7057.419497703085	310.1878474082995
7058.889793431773	310.2615664818325
