#wavelength (Angstrom)	surface_flux (erg / (Angstrom cm2 s))
6300.0	18.677976311724013
6301.3125	27.837903052388935
6302.6252734375	32.8081193292544
6303.938320369467	33.38904801545434
6305.251640852877	33.73296842101742
6306.565234944722	34.081549698146596
6307.8791027020025	34.43140981210006
6309.193244181732	34.78138711674083
6310.5076594409375	35.13164080433847
6311.822348536654	35.48428348850816
6313.137311525933	35.8436352304395
6314.452548465834	36.210010010794875
6315.768059413431	36.57909051786571
6317.083844425809	36.94845222068805
6318.399903560065	37.31794579377981
6319.716236873307	37.6886903991395
6321.032844422655	38.0642410146427
6322.349726265244	38.446425229170785
6323.666882458216	38.83211039401198
6324.984313058728	39.21835426399206
6326.302018123949	39.60469174100637
6327.619997711058	39.99165918259248
6328.938251877249	40.381928444110734
6330.256780679723	40.77823825310891
6331.575584175699	41.17881486783418
6332.894662422402	41.58040483482889
6334.214015477073	41.982100878125664
6335.533643396964	42.384016497466725
6336.853546239339	42.78725570759621
6338.173724061472	43.19366684073595
6339.494176920652	43.603013697579165
6340.814904874177	44.0133649201653
6342.135907979359	44.42385330821114
6343.457186293522	44.83460234147242
6344.778739874001	45.2481472144662
6346.100568778142	45.6710598853144
6347.422673063304	46.105378539349175
6348.745052786858	46.54492253622119
6350.067708006189	46.98512282342815
6351.39063877869	47.42544021574287
6352.713845161769	47.866707648813524
6354.037327212845	48.312351087389
6355.3610849893485	48.765077140108836
6356.685118548721	49.222211348388754
6358.009427948419	49.68022584893124
6359.334013245908	50.13835008109314
6360.658874498668	50.59703908762439
6361.984011764189	51.0592891242867
6363.309425099973	51.529193834000836
6364.635114563535	52.00540974341133
6365.961080212403	52.483452065973886
6367.2873221041145	52.96166567717036
6368.61384029622	53.43997292903017
6369.940634846282	53.918304504098536
6371.267705811875	54.39650949149002
6372.595053250586	54.874568920885075
6373.922677220014	55.352631837760775
6375.250577777768	55.83078651359496
6376.578754981471	56.309152130983186
6377.907208888761	56.79012787124814
6379.235939557279	57.28165850629762
6380.564947044686	57.788219596207604
6381.894231408654	58.30294792165647
6383.223792706865	58.818981393687764
6384.553630997012	59.33513959132348
6385.883746336804	59.85201745096234
6387.2141387839565	60.37282068717511
6388.544808396204	60.90106811818328
6389.875755231287	61.43474042458472
6391.20697934696	61.96974910591003
6392.53848080099	62.50490019076127
6393.870259651158	63.04025896542621
6395.202315955253	63.57664797663476
6396.534649771077	64.11551777424098
6397.867261156446	64.65676564303661
6399.2001501691875	65.19889436406284
6400.533316867139	65.74118465257979
6401.866761308153	66.28371626921279
6403.200483550093	66.82857772844143
6404.534483650832	67.38155418885403
6405.868761668259	67.94478687353714
6407.2033176602745	68.51292021548586
6408.5381516847865	69.08172836463177
6409.873263799722	69.65066671199915
6411.2086540630135	70.22013240894393
6412.544322532611	70.79182805596349
6413.880269266471	71.36719727934239
6415.216494322568	71.94496111956835
6416.552997758886	72.52328675647985
6417.8897796334195	73.10174400760346
6419.226840004177	73.68090095682528
6420.5641789291785	74.26474536418704
6421.9017964664545	74.85908965129605
6423.239692674053	75.46239052160827
6424.577867610025	76.06837707729558
6425.9163213324455	76.67460378636152
6427.25505389939	77.28105830848392
6428.594065368952	77.88897331519027
6429.933355799238	78.50116608936897
6431.272925248362	79.11815124366562
6432.612773774456	79.73718823401889
6433.9529014356585	80.35653141764955
6435.293308290125	80.97603959910344
6436.63399439602	81.59658446296605
6437.974959811519	82.22124973143572
6439.316204594813	82.85198296389265
6440.657728804104	83.4861897534341
6441.999532497605	84.121056796054
6443.341615733541	84.75606924326358
6444.683978570154	85.39187645168644
6446.026621065689	86.03212226824195
6447.369543278411	86.68105641024358
6448.7127452665945	87.33654940869368
6450.056227088525	87.99374853074015
6451.399988802502	88.65113234116657
6452.744030466836	89.30869058308048
6454.088352139851	89.96676813477102
6455.43295387988	90.62601043850427
6456.777835745272	91.2864094568861
6458.122997794385	91.94730748774113
6459.468440085592	92.60836802581709
6460.814162677278	93.26962689796319
6462.160165627836	93.93217423569561
6463.506448995675	94.59921204247436
6464.853012839217	95.27211768944625
6466.199857216891	95.94798404241628
6467.546982187145	96.62434644756586
6468.894387808435	97.30088832690383
6470.242074139227	97.97909377687755
6471.590041238007	98.66565478771939
6472.938289163264	99.36666905000376
6474.286817973508	100.07731070966183
6475.6356277272525	100.79003848245398
6476.984718483029	101.50295314221187
6478.334090299379	102.21641976318354
6479.683743234858	102.93344241810698
6481.033677348033	103.65867765271479
6482.38389269748	104.39116407674325
6483.734389341793	105.12594974977732
6485.085167339573	105.86099266661034
6486.436226749436	106.59650075105269
6487.787567630007	107.33653330866129
6489.139190039932	108.09089070148225
6490.491094037857	108.86191996401479
6491.843279682447	109.64022487517272
6493.195747032382	110.41940477326511
6494.548496146348	111.19877640469186
6495.901527083045	111.97916615886795
6497.254839901187	112.76368748243522
6498.6084346595	113.55448123936645
6499.962311416722	114.34898165250446
6501.316470231601	115.14422784544267
6502.670911162898	115.93964051028665
6504.025634269391	116.73491660458909
6505.3806396098635	117.52831259381357
6506.735927243117	118.31767440049539
6508.091497227958	119.10393866408796
6509.447349623215	119.88952758464563
6510.80348448772	120.67525079568871
6512.159901880322	121.46068212771979
6513.51660185988	122.24110863113712
6514.873584485267	123.00703236912187
6516.23084981537	123.7579598059598
6517.58839790908	124.50343055940628
6518.946228825313	125.24864657735914
6520.304342622985	125.99441129460632
6521.662739361031	126.74823683897986
6523.021419098398	127.53326763402322
6524.380381894044	128.36077093296956
6525.739627806938	129.21016970387024
6527.099156896065	130.06271140544604
6528.458969220418	130.91541025827843
6529.819064839006	131.76664307028466
6531.179443810848	132.60861830137785
6532.540106194976	133.433641977868
6533.9010520504335	134.24706831873846
6535.262281436278	135.05814399941877
6536.6237944115765	135.86933981020027
6537.985591035413	136.68157956118924
6539.347671366879	137.5016482239638
6540.71003546508	138.34055407662015
6542.072683389135	139.1965960372127
6543.435615198176	140.05819565911867
6544.798830951341	140.9202710395753
6546.162330707791	141.78262191140902
6547.526114526688	142.64661292595346
6548.890182467215	143.51572539789004
6550.254534588562	144.3909697151048
6551.619170949934	145.26905016528218
6552.984091610549	146.14759380672206
6554.349296629635	147.02628751575554
6555.7147860664345	147.90412391403666
6557.080559980198	148.77711465033312
6558.446618430195	149.642244966095
6559.8129614757	150.50267400515207
6561.1795891760075	151.36241038844014
6562.54650159042	152.22230387028512
6563.913698778251	153.08123387622456
6565.281180798831	153.93206010940034
6566.648947711497	154.76525449650956
6568.016999575604	155.584201235768
6569.385336450516	156.3994036439693
6570.753958395609	157.2146246532124
6572.122865470276	158.03117815592637
6573.492057733915	158.8616563469617
6574.861535245943	159.7324629710091
6576.231298065786	160.6461114605093
6577.601346252884	161.57636256201874
6578.971679866686	162.50812446307458
6580.342298966659	163.44013147068137
6581.7132036122775	164.37345351237002
6583.08439386303	165.31158457621265
6584.455869778419	166.25643714995516
6585.827631417956	167.20497107265848
6587.199678841168	168.15420881584154
6588.572012107595	169.10360547896968
6589.944631276783	170.05075418476991
6591.3175364083	170.98326982825392
6592.690727561718	171.88799944494124
6594.064204796627	172.772953343809
6595.437968172626	173.65356834638067
6596.812017749329	174.53425379393636
6598.18635358636	175.41472457541298
6599.5609757433585	176.2916736774058
6600.935884279972	177.15939619418438
6602.311079255864	178.01841806640846
6603.686560730708	178.8746584425438
6605.062328764195	179.73089697537412
6606.43838341602	180.58755189469395
6607.814724745898	181.44844639359937
6609.191352813554	182.3239913833768
6610.568267678725	183.21783318785188
6611.9454694011565	184.1202770248946
6613.322958040616	185.02386022223175
6614.700733656875	185.92758531191075
6616.07879630972	186.82988970233703
6617.457146058951	187.72429420627512
6618.835782964381	188.6055240782187
6620.214707085831	189.47854162606677
6621.593918483141	190.35015516735297
6622.973417216159	191.2219192337598
6624.353203344746	192.0926564427846
6625.733276928776	192.95414857980896
6627.113638028136	193.79470931016075
6628.494286702727	194.61780438727646
6629.8752230124555	195.4361147546685
6631.25644701725	196.2543947407102
6632.637958777046	197.07296254795088
6634.019758351792	197.89317685739795
6635.401845801448	198.71805693379125
6636.784221185991	199.5480777720349
6638.166884565405	200.3802840742808
6639.54983599969	201.21284387354268
6640.933075548856	202.04515223975
6642.316603272929	202.86693146924557
6643.700419231944	203.6424069826919
6645.084523485952	204.3499229110177
6646.468916095012	205.01999830603776
6647.853597119198	205.68451170707579
6649.238566618597	206.34900363505287
6650.623824653309	207.00550504332267
6652.009371283446	207.6109017154829
6653.39520656913	208.11650854304563
6654.781330570499	208.54833641030012
6656.167743347702	208.96251861722564
6657.554444960899	209.3762556477163
6658.941435470266	209.78494432574595
6660.328714935989	210.142153592928
6661.716283418268	210.36281085255882
6663.104140977314	210.4501150976158
6664.492287673351	210.49124483332716
6665.880723566617	210.52939809892263
6667.269448717359	210.5634217371359
6668.658463185843	210.5233973057499
6670.04776703234	210.21035102012027
6671.437360317139	209.5440395447811
6672.827243100539	208.70640130904826
6674.21741544285	207.84742568382032
6675.607877404403	206.98588104383478
6676.998629045529	206.03278834900067
6678.389670426579	204.59532709977515
6679.781001607919	202.3275110051163
6681.17262264992	199.51917988908448
6682.564533612973	196.60329063309263
6683.956734557476	193.68450822005678
6685.349225543842	190.67669396315299
6686.742006632498	186.95204729404907
6688.135077883879	181.57090434109907
6689.528439358438	174.75576147454262
6690.9220911166385	167.5133394340465
6692.316033218955	160.24898938771082
6693.710265725876	152.91048086630335
6695.104788697902	144.5833868469032
6696.4996021955485	133.11800115757106
6697.894706279339	118.06118822742448
6699.290101009814	101.4902168376594
6700.685786447524	84.77149507662654
6702.081762653035	68.0980644051895
6703.478029686921	52.75649761039123
6704.874587609773	43.445207349303686
6706.27143648219	43.273972482922204
6707.668576364793	48.342084688835484
6709.066007318201	54.26378282092165
6710.46372940306	60.197069009831516
6711.861742680019	66.33564547539632
6713.260047209744	73.82883001375271
6714.658643052912	84.06067886883845
6716.0575302702155	96.3898766505809
6717.4567089223565	109.2491761547287
6718.856179070049	122.12847614875501
6720.255940774021	134.97346394002392
6721.6559940950165	147.42157430394928
6723.056339093787	158.77049614231547
6724.456975831098	169.00989300969476
6725.85790436773	178.85064873008207
6727.259124764472	188.66531567485123
6728.660637082132	198.46244689556772
6730.062441381524	207.88553625619508
6731.464537723479	215.86728931256286
6732.866926168839	221.91983986116418
6734.269606778457	227.00194583282286
6735.672579613203	231.9568839642862
6737.075844733956	236.91087352689112
6738.4794022016085	241.79193179953245
6739.883252077068	246.25496890839037
6741.2873944212515	249.96861758137993
6742.691829295089	253.17533194462337
6744.096556759525	256.2766385792592
6745.5015768755175	259.37645355671634
6746.906889704033	262.4605237997417
6748.312495306054	265.40617472419484
6749.718393742578	268.01990720015084
6751.124585074607	270.3367893414289
6752.531069363165	272.56162072214903
6753.937846669282	274.7819942297815
6755.344917054005	277.0002117079808
6756.752280578391	279.17935478416814
6758.159937303512	281.2273590881804
6759.567887290451	283.1202367947877
6760.976130600304	284.94590522130153
6762.384667294178	286.7652207788972
6763.793497433198	288.5843935479513
6765.202621078498	290.38848706227725
6766.612038291223	292.11999792300884
6768.021749132533	293.7370763796811
6769.431753663604	295.2858580639184
6770.842051945616	296.8229475123807
6772.252644039771	298.3601629601973
6773.66353000728	299.8924632728369
6775.074709909365	301.3877234505335
6776.486183807264	302.8043098621402
6777.897951762223	304.1584772134734
6779.310013835508	305.4964410305002
6780.722370088391	306.8341023477815
6782.135020582158	308.17222702355457
6783.547965378113	309.5127246348929
6784.961204537568	310.8594899375362
6786.374738121846	312.2128027811756
6787.788566192289	313.56877315204093
6789.2026888102455	314.9252137644205
6790.617106037082	316.28191050400807
6792.031817934173	317.63831948669724
6793.446824562909	318.992704919059
6794.862125984693	320.3441696507326
6796.27772226094	321.6942439149175
6797.693613453079	323.0443669339051
6799.109799622548	324.3946479381111
6800.5262808308025	325.7387904254752
6801.9430571393095	327.04547838703866
6803.360128609546	328.2825944564533
6804.777495303007	329.47089094103654
6806.195157281196	330.6484923569525
6807.6131146056305	331.8260678034017
6809.031367337839	333.0030125724633
6810.449915539369	334.1721570562347
6811.868759271772	335.321356395034
6813.287898596622	336.45199154273496
6814.707333575495	337.57672034617826
6816.12706426999	338.70132826956103
6817.547090741715	339.82663671769245
6818.967413052284	340.959663850222
6820.388031263337	342.11886573335704
6821.808945436517	343.3101693843756
6823.230155633484	344.5162737436688
6824.651661915907	345.72424666364213
6826.073464345473	346.9325009131198
6827.49556298388	348.14189523833636
6828.917957892834	349.3559284504427
6830.340649134063	350.5773524515322
6831.763636769299	351.8034413276372
6833.186920860294	353.03059522684964
6834.610501468806	354.2579893462398
6836.034378656611	355.4822140707225
6837.458552485498	356.6811439362241
6838.883023017267	357.82459040274136
6840.307790313729	358.92264057774287
6841.732854436711	360.00836115003705
6843.158215448053	361.09380344817595
6844.583873409604	362.1796834911372
6846.009828383232	363.26836012714006
6847.436080430813	364.36492720597766
6848.862629614236	365.470038253559
6850.289475995406	366.5786714024845
6851.716619636238	367.6878170217698
6853.144060598662	368.7961106070451
6854.57179894462	369.87855153436857
6855.999834736067	370.8506481359955
6857.428168034971	371.6638887963501
6858.856798903312	372.3911649839733
6860.285727403084	373.1058633840082
6861.7149535962935	373.8208991980278
6863.144477544959	374.55153954175114
6864.5742993111135	375.3773693286661
6866.004418956804	376.3854982421916
6867.434836544087	377.5263157531953
6868.865552135034	378.6984400773414
6870.296565791729	379.87167436799535
6871.72787757627	381.0458903118988
6873.159487550764	382.2276662901066
6874.591395777338	383.4288063809694
6876.023602318125	384.64856706212424
6877.456107235274	385.8747923523223
6878.888910590949	387.1016528860465
6880.322012447323	388.3263803680867
6881.755412866582	389.5109883033361
6883.18911191093	390.5511224996766
6884.623109642579	391.40828484744975
6886.057406123754	392.17888702453257
6887.492001416697	392.93933047296554
6888.926895583659	393.699894704089
6890.362088686906	394.46007530855536
6891.797580788715	395.21756431875315
6893.233371951381	395.97038632259245
6894.669462237203	396.72028028998733
6896.105851708503	397.4697400861616
6897.542540427609	398.21895677760523
6898.979528456865	398.91058503031445
6900.416815858628	399.1486570934406
6901.854402695265	398.35606198862774
6903.29228902916	396.683695095122
6904.730474922708	394.75370079125383
6906.168960438317	392.81127870877725
6907.607745638409	390.89509684162016
6909.0468305854165	389.3387535817591
6910.48621534179	388.91373310778465
6911.925899969986	389.7654185079208
6913.365884532479	391.14365913810616
6914.806169091757	392.5698774250534
6916.246753710318	393.99775497536024
6917.687638450675	395.4607613800336
6919.128823375352	397.0775502808885
6920.570308546889	398.9234777575564
6922.012094027836	400.8990651994207
6923.454179880759	402.8957445350372
6924.896566168235	404.89176908303057
6926.339252952854	406.7960588944603
6927.782240297219	408.09847571747673
6929.225528263946	408.20011750274256
6930.669116915669	407.3973585892873
6932.113006315028	406.37297581160004
6933.557196524675	405.3417465073922
6935.001687607285	404.3460444998617
6936.446479625538	403.71847518947595
6937.8915726421255	404.0835613728687
6939.33696671976	405.4344787336626
6940.782661921161	407.13550096415383
6942.228658309061	408.8611278658026
6943.67495594621	410.5916112900123
6945.121554895365	412.4062306240038
6946.568455219301	414.53694251015617
6948.015656980806	417.08345186518284
6949.463160242676	419.83524676550206
6950.910965067728	422.6135449392552
6952.359071518784	425.3908316761336
6953.807479658683	428.09712986343783
6955.256189550279	430.41293170358836
6956.705201256435	432.0443703782774
6958.154514840031	433.22103247217586
6959.604130363956	434.3046763956009
6961.054047891116	435.3867250842838
6962.504267484427	436.4656598444474
6963.954789206819	437.5170381168148
6965.405613121237	438.5030947120475
6966.856739290638	439.4315243179665
6968.30816777799	440.3425045417223
6969.759898646277	441.2527831748137
6971.211931958496	442.16142339777525
6972.6642677776545	443.04397686955326
6974.116906166776	443.84125866003166
6975.569847188894	444.539323096839
6977.023090907059	445.194990905907
6978.47663738433	445.84662123672
6979.930486683786	446.49833427050123
6981.3846388685115	447.148780384992
6982.83909400161	447.7928893056631
6984.293852146194	448.42712510290403
6985.748913365391	449.05562099879154
6987.204277722341	449.6832519452637
6988.659945280201	450.31107751779047
6990.115916102135	450.9461785967465
6991.572190251322	451.6308974077093
6993.028767790958	452.41813577674867
6994.485648784248	453.2851755726282
6995.942833294413	454.17275339314415
6997.400321384683	455.0611898448961
6998.858113118305	455.94452897210675
7000.316208558537	456.7701854594883
7001.774607768653	457.4335965882049
7003.23331081194	457.9297650004964
7004.692317751692	458.36374725889186
7006.151628651223	458.7930779194403
7007.6112435738605	459.2218191713886
7009.071162582939	459.63622599659493
7010.5313857418105	459.99337235846133
7011.9919131138395	460.27236287574897
7013.452744762405	460.51151194579984
7014.913880750897	460.7454199133629
7016.375321142722	460.97944932824345
7017.837066001293	461.21761670133634
7019.299115390043	461.47905536680497
7020.761469372417	461.78254411511176
7022.224128011869	462.1149733829468
7023.687091371872	462.4537172645232
7025.150359515908	462.79269338161424
7026.613932507475	463.1403451670277
7028.07781041008	463.56585243339964
7029.541993287248	464.18351817181053
7031.0064812025175	464.976868097318
7032.471274219435	465.82603304336016
7033.936372401564	466.67834167568606
7035.401775812481	467.5277773692845
7036.867484515776	468.3308356792512
7038.33349857505	468.9761699027285
7039.79981805392	469.43067595885066
7041.266443016016	469.79940677223885
7042.733373524977	470.15889690529883
7044.200609644461	470.5188931459373
7045.668151438137	470.89312314539427
7047.135998969687	471.3360566105428
7048.604152302806	471.8887584917164
7050.072611501203	472.50789463171225
7051.541376628598	473.1388518330367
7053.010447748729	473.76998002189845
7054.479824925345	474.3917583280158
7055.949508222204	474.94545794652885
7057.419497703085	475.3534795616195
7058.889793431773	475.6440776764806
7060.360395472071	475.90295225045116
