#wavelength (Angstrom)	surface_flux (erg / (Angstrom cm2 s))
6300.0	1.5518270066659436
6301.3125	2.3145181527182364
6302.6252734375	2.7314375758040628
6303.938320369467	2.784524022470289
6305.251640852877	2.8181384499022526
6306.565234944722	2.852288177843457
6307.8791027020025	2.886583876271682
6309.193244181732	2.9208918180434837
6310.5076594409375	2.955228473734031
6311.822348536654	2.9898177647213524
6313.137311525933	3.025117585585075
6314.452548465834	3.061161215844341
6315.768059413431	3.0974910521024057
6317.083844425809	3.1338501117949544
6318.399903560065	3.1702228413538163
6319.716236873307	3.206733446199114
6321.032844422655	3.2437764608136166
6322.349726265244	3.2815547124760447
6323.666882458216	3.3197205367750664
6324.984313058728	3.3579474004575003
6326.302018123949	3.396183610014227
6327.619997711058	3.4344848824491545
6328.938251877249	3.4731288539838947
6330.256780679723	3.512400109624307
6331.575584175699	3.552114337250183
6332.894662422402	3.591933465785941
6334.214015477073	3.631763247775094
6335.533643396964	3.671627835522113
6336.853546239339	3.7117425871302423
6338.173724061472	3.7524680544493156
6339.494176920652	3.7937581604899964
6340.814904874177	3.835236154255263
6342.135907979359	3.8767328696090955
6343.457186293522	3.918258287476191
6344.778739874001	3.960102764772767
6346.100568778142	4.003018991064541
6347.422673063304	4.047240400545398
6348.745052786858	4.092059120999872
6350.067708006189	4.136951856212175
6351.39063877869	4.181856783930691
6352.713845161769	4.226866983186515
6354.037327212845	4.272365307065387
6355.3610849893485	4.31865422024838
6356.685118548721	4.365434850466292
6358.009427948419	4.4123129570473685
6359.334013245908	4.459202480111838
6360.658874498668	4.506159792979321
6361.984011764189	4.553555307383702
6363.309425099973	4.601895099560353
6364.635114563535	4.651013082174954
6365.961080212403	4.700354823009608
6367.2873221041145	4.749715706852271
6368.61384029622	4.799090674873029
6369.940634846282	4.848523745151914
6371.267705811875	4.898110731330392
6372.595053250586	4.947863691118531
6373.922677220014	4.997688025708212
6375.250577777768	5.04752771560635
6376.578754981471	5.097390707561911
6377.907208888761	5.14755540895107
6379.235939557279	5.198943753457718
6380.564947044686	5.252075097557442
6381.894231408654	5.30615301351451
6383.223792706865	5.3603812047634225
6384.553630997012	5.414622856523185
6385.883746336804	5.468957528426463
6387.2141387839565	5.523813185726165
6388.544808396204	5.579659593305512
6389.875755231287	5.6362271695015265
6391.20697934696	5.692970095045159
6392.53848080099	5.749728967143447
6393.870259651158	5.806510016332509
6395.202315955253	5.863401758910334
6396.534649771077	5.920560292178872
6397.867261156446	5.977974562658613
6399.2001501691875	6.0354834507950175
6400.533316867139	6.093009552502162
6401.866761308153	6.150566407866711
6403.200483550093	6.20845942413537
6404.534483650832	6.26753457718314
6405.868761668259	6.32810498195835
6407.2033176602745	6.389387480844632
6408.5381516847865	6.450764117287038
6409.873263799722	6.512155826666053
6411.2086540630135	6.573641221681977
6412.544322532611	6.635557203421677
6413.880269266471	6.698189428261151
6415.216494322568	6.761284818938715
6416.552997758886	6.824480702615453
6417.8897796334195	6.887691623614451
6419.226840004177	6.950980210871413
6420.5641789291785	7.01479053539959
6421.9017964664545	7.079769859827831
6423.239692674053	7.145746324881185
6424.577867610025	7.212021612591694
6425.9163213324455	7.278323392077612
6427.25505389939	7.344651409212599
6428.594065368952	7.411156533436534
6429.933355799238	7.478183578777126
6431.272925248362	7.545795529633376
6432.612773774456	7.613656963550989
6433.9529014356585	7.681554226560204
6435.293308290125	7.74947215515706
6436.63399439602	7.817568872641226
6437.974959811519	7.886403755376629
6439.316204594813	7.95633008307566
6440.657728804104	8.026877235894036
6441.999532497605	8.097534886680098
6443.341615733541	8.168209319696158
6444.683978570154	8.238995278770815
6446.026621065689	8.310425215866399
6447.369543278411	8.38312011505659
6448.7127452665945	8.456768809183156
6450.056227088525	8.530662197300073
6451.399988802502	8.604577960497416
6452.744030466836	8.6785146050916
6454.088352139851	8.752522580874869
6455.43295387988	8.826696305846829
6456.777835745272	8.901034603283632
6458.122997794385	8.975441259806146
6459.468440085592	9.049867048545405
6460.814162677278	9.124316939231617
6462.160165627836	9.198945541048642
6463.506448995675	9.274206983526783
6464.853012839217	9.350296614169029
6466.199857216891	9.426802122173415
6467.546982187145	9.503373952378102
6468.894387808435	9.57996828486739
6470.242074139227	9.656838205832186
6471.590041238007	9.735124802801055
6472.938289163264	9.815867825891289
6474.286817973508	9.898244389666742
6475.6356277272525	9.980968585302739
6476.984718483029	10.06371676790876
6478.334090299379	10.14660346827361
6479.683743234858	10.230531744361903
6481.033677348033	10.316901409211184
6482.38389269748	10.405423450590567
6483.734389341793	10.494609244518678
6485.085167339573	10.58384493172044
6486.436226749436	10.673132266230994
6487.787567630007	10.762901287391854
6489.139190039932	10.854190236434642
6490.491094037857	10.947247756383746
6491.843279682447	11.041078421291322
6493.195747032382	11.135004151832465
6494.548496146348	11.228955720679329
6495.901527083045	11.323110223442399
6497.254839901187	11.418134769129377
6498.6084346595	11.514488073340793
6499.962311416722	11.61162036880964
6501.316470231601	11.708897231118351
6502.670911162898	11.806194104359067
6504.025634269391	11.903412476572692
6505.3806396098635	11.999982636596757
6506.735927243117	12.095200727380343
6508.091497227958	12.189372791056611
6509.447349623215	12.283290280256903
6510.80348448772	12.37721777759999
6512.159901880322	12.471121476478139
6513.51660185988	12.564552743196009
6514.873584485267	12.656607452134587
6516.23084981537	12.747238623532786
6517.58839790908	12.83735435235785
6518.946228825313	12.927449822636717
6520.304342622985	13.017641300870542
6521.662739361031	13.109403503620559
6523.021419098398	13.207279950854105
6524.380381894044	13.313482534388505
6525.739627806938	13.42397173852605
6527.099156896065	13.535066216526603
6528.458969220418	13.646180139725796
6529.819064839006	13.757010092637005
6531.179443810848	13.866100241847633
6532.540106194976	13.972012984001195
6533.9010520504335	14.07574874048272
6535.262281436278	14.179035229212905
6536.6237944115765	14.28233374252039
6537.985591035413	14.385721159778763
6539.347671366879	14.489720026104898
6540.71003546508	14.59517814379449
6542.072683389135	14.701964506102756
6543.435615198176	14.80918740285689
6544.798830951341	14.916455454018617
6546.162330707791	15.023781106762524
6547.526114526688	15.131666055411015
6548.890182467215	15.241390169080043
6550.254534588562	15.353324899929849
6551.619170949934	15.466258595863128
6552.984091610549	15.579318854257494
6554.349296629635	15.692407935490905
6555.7147860664345	15.805685744020279
6557.080559980198	15.919785472341115
6558.446618430195	16.03518574760924
6559.8129614757	16.151385042314445
6561.1795891760075	16.26774696793292
6562.54650159042	16.38413233033483
6563.913698778251	16.500278146479893
6565.281180798831	16.614535954710988
6566.648947711497	16.72470603486062
6568.016999575604	16.831569682668956
6569.385336450516	16.937551762591834
6570.753958395609	17.04352100747084
6572.122865470276	17.149679497583737
6573.492057733915	17.257837756232345
6574.861535245943	17.371792151114693
6576.231298065786	17.491904066654584
6577.601346252884	17.614400784965365
6578.971679866686	17.737112383172153
6580.342298966659	17.85987830257001
6581.7132036122775	17.98330260963567
6583.08439386303	18.109357900523367
6584.455869778419	18.23912389795515
6585.827631417956	18.370884189579797
6587.199678841168	18.50295772368063
6588.572012107595	18.63505496721262
6589.944631276783	18.766865171138882
6591.3175364083	18.89679542588845
6592.690727561718	19.023154063657696
6594.064204796627	19.146971330593324
6595.437968172626	19.270232633589924
6596.812017749329	19.393505338316636
6598.18635358636	19.516836028390287
6599.5609757433585	19.640493028907013
6600.935884279972	19.76493921950621
6602.311079255864	19.890131936110215
6603.686560730708	20.01559093326847
6605.062328764195	20.141090690548403
6606.43838341602	20.266659645574215
6607.814724745898	20.39298936673247
6609.191352813554	20.521963061417196
6610.568267678725	20.654240304488784
6611.9454694011565	20.788067425151358
6613.322958040616	20.92209451444933
6614.700733656875	21.056146219834623
6616.07879630972	21.190107825609356
6617.457146058951	21.323504051256222
6618.835782964381	21.45594796857956
6620.214707085831	21.587803592658144
6621.593918483141	21.71957035339212
6622.973417216159	21.85136275611239
6624.353203344746	21.98317427611043
6625.733276928776	22.114948206392867
6627.113638028136	22.246603907079546
6628.494286702727	22.37816530015559
6629.8752230124555	22.509719900075307
6631.25644701725	22.641300521085373
6632.637958777046	22.772955396520732
6634.019758351792	22.90522687086328
6635.401845801448	23.039320153882887
6636.784221185991	23.175424843685875
6638.166884565405	23.312361247640048
6639.54983599969	23.449398079886464
6640.933075548856	23.586448488523754
6642.316603272929	23.72315025160414
6643.700419231944	23.858242542529474
6645.084523485952	23.990962131381394
6646.468916095012	24.122384629460797
6647.853597119198	24.25363356155771
6649.238566618597	24.384901355123496
6650.623824653309	24.51572791917199
6652.009371283446	24.643628027121295
6653.39520656913	24.765795329718046
6654.781330570499	24.883729175103632
6656.167743347702	25.000665256324478
6657.554444960899	25.117594916438616
6658.941435470266	25.234158746688802
6660.328714935989	25.34682831064131
6661.716283418268	25.449138681529178
6663.104140977314	25.541332964462836
6664.492287673351	25.63003612816456
6665.880723566617	25.718530929334076
6667.269448717359	25.806818666938693
6668.658463185843	25.891088754454163
6670.04776703234	25.960497024286518
6671.437360317139	26.010670178038694
6672.827243100539	26.051523955385406
6674.21741544285	26.091232856246556
6675.607877404403	26.130783192898214
6676.998629045529	26.16392897580372
6678.389670426579	26.163099713123266
6679.781001607919	26.10401201837703
6681.17262264992	26.00700859128522
6682.564533612973	25.902476944118213
6683.956734557476	25.79775133901582
6685.349225543842	25.684646996797188
6686.742006632498	25.503830568898728
6688.135077883879	25.166494543587202
6689.528439358438	24.693667033405802
6690.9220911166385	24.18049310147325
6692.316033218955	23.66528241995522
6693.710265725876	23.13604197760079
6695.104788697902	22.417521900714153
6696.4996021955485	21.09773110341896
6697.894706279339	19.08982620510635
6699.290101009814	16.791915743866426
6700.685786447524	14.465871827424932
6702.081762653035	12.146719396230448
6703.478029686921	10.029025859886604
6704.874587609773	8.823328514987482
6706.27143648219	8.999916806104324
6707.668576364793	9.968889659592794
6709.066007318201	11.066991841021094
6710.46372940306	12.166663430319801
6711.861742680019	13.280551293363365
6713.260047209744	14.487437037165405
6714.658643052912	15.88219274010831
6716.0575302702155	17.420858582526154
6717.4567089223565	18.996005468552436
6718.856179070049	20.572667690515974
6720.255940774021	22.141645817871115
6721.6559940950165	23.624414399645293
6723.056339093787	24.868864865707295
6724.456975831098	25.872758467057604
6725.85790436773	26.79006037347532
6727.259124764472	27.70145897501565
6728.660637082132	28.61116987839583
6730.062441381524	29.485007638479335
6731.464537723479	30.220629178775624
6732.866926168839	30.771252911319852
6734.269606778457	31.22881432230021
6735.672579613203	31.67417538338047
6737.075844733956	32.11947814593653
6738.4794022016085	32.55968661238401
6739.883252077068	32.970599558072614
6741.2873944212515	33.32897812747489
6742.691829295089	33.65182568612341
6744.096556759525	33.9673013858688
6745.5015768755175	34.28269284805365
6746.906889704033	34.5969921096587
6748.312495306054	34.9015328423843
6749.718393742578	35.18264532571961
6751.124585074607	35.442806946886606
6752.531069363165	35.6964857534144
6753.937846669282	35.949869739500194
6755.344917054005	36.203140612299954
6756.752280578391	36.45395941661548
6758.159937303512	36.69649342762756
6759.567887290451	36.92922290377012
6760.976130600304	37.15771784348657
6762.384667294178	37.38583380400854
6763.793497433198	37.61397126668861
6765.202621078498	37.841385378254536
6766.612038291223	38.0652085362037
6768.021749132533	38.283353762060095
6769.431753663604	38.49812177671309
6770.842051945616	38.71233536969366
6772.252644039771	38.926583987651576
6773.66353000728	39.140624987379915
6775.074709909365	39.352910516719774
6776.486183807264	39.56143457523124
6777.897951762223	39.76698035905794
6779.310013835508	39.97177464728415
6780.722370088391	40.176583595209514
6782.135020582158	40.38144311322186
6783.547965378113	40.586434909636104
6784.961204537568	40.79172562931847
6786.374738121846	40.997327252141844
6787.788566192289	41.203073348930424
6789.2026888102455	41.40887034233214
6790.617106037082	41.61469956417435
6792.031817934173	41.82034221095222
6793.446824562909	42.02510000871119
6794.862125984693	42.22861204520346
6796.27772226094	42.43149387393435
6797.693613453079	42.63432443741851
6799.109799622548	42.83719126757879
6800.5262808308025	43.0398060752934
6801.9430571393095	43.24073333315693
6803.360128609546	43.4385007793611
6804.777495303007	43.634059710870076
6806.195157281196	43.829157770962865
6807.6131146056305	44.02428428696478
6809.031367337839	44.21949806979362
6810.449915539369	44.41518065175383
6811.868759271772	44.611978316569555
6813.287898596622	44.8098175897889
6814.707333575495	45.008024912175884
6816.12706426999	45.20629242917245
6817.547090741715	45.40460918141105
6818.967413052284	45.6030945391938
6820.388031263337	45.80206240487484
6821.808945436517	46.00161359103526
6823.230155633484	46.201453854782926
6824.651661915907	46.40136325823149
6826.073464345473	46.6013048626287
6827.49556298388	46.80097604573785
6828.917957892834	46.99914771688595
6830.340649134063	47.19485317153345
6831.763636769299	47.38905003897044
6833.186920860294	47.58300295923581
6834.610501468806	47.77699245269883
6836.034378656611	47.97102665468233
6837.458552485498	48.165133312325125
6838.883023017267	48.359350281371334
6840.307790313729	48.55366492413441
6841.732854436711	48.74803579349726
6843.158215448053	48.942447777930326
6844.583873409604	49.13685163229888
6846.009828383232	49.33070526334235
6847.436080430813	49.52283801751537
6848.862629614236	49.713099720220995
6850.289475995406	49.9026445204968
6851.716619636238	50.092164113548556
6853.144060598662	50.28171168376924
6854.57179894462	50.4710216511362
6855.999834736067	50.65919644779848
6857.428168034971	50.845720730764775
6858.856798903312	51.03136885157949
6860.285727403084	51.21692042256652
6861.7149535962935	51.40251576597042
6863.144477544959	51.58849709526343
6864.5742993111135	51.77665286419552
6866.004418956804	51.9689406244921
6867.434836544087	52.164245526841775
6868.865552135034	52.36028930903592
6870.296565791729	52.55639325494741
6871.72787757627	52.75231817047494
6873.159487550764	52.94610201744934
6874.591395777338	53.134224146047735
6876.023602318125	53.31690634227353
6877.456107235274	53.497774261641496
6878.888910590949	53.67856658905791
6880.322012447323	53.85938716001147
6881.755412866582	54.040086152191286
6883.18911191093	54.220251969504126
6884.623109642579	54.39973277169762
6886.057406123754	54.57890884252317
6887.492001416697	54.758081539447325
6888.926895583659	54.93727764561387
6890.362088686906	55.11595920897574
6891.797580788715	55.2917765206976
6893.233371951381	55.46271843818114
6894.669462237203	55.63055533656753
6896.105851708503	55.79782613066626
6897.542540427609	55.9651183702153
6898.979528456865	56.13175531641627
6900.416815858628	56.29300448390164
6901.854402695265	56.44196841569237
6903.29228902916	56.580450576714064
6904.730474922708	56.715886663848686
6906.168960438317	56.85120699797818
6907.607745638409	56.98499181170098
6909.0468305854165	57.09766317099039
6910.48621534179	57.14394487812001
6911.925899969986	57.11530481661717
6913.365884532479	57.05576718196962
6914.806169091757	56.993418323313925
6916.246753710318	56.931552455632335
6917.687638450675	56.882356498398345
6919.128823375352	56.889034580563845
6920.570308546889	56.9790253264438
6922.012094027836	57.11610656728722
6923.454179880759	57.26074648060023
6924.896566168235	57.40552327636314
6926.339252952854	57.5532612767525
6927.782240297219	57.72018651033416
6929.225528263946	57.925348324887175
6930.669116915669	58.15931992053965
6932.113006315028	58.400384153726684
6933.557196524675	58.64171040575276
6935.001687607285	58.882959220428894
6936.446479625538	59.12294214350009
6937.8915726421255	59.35942764245331
6939.33696671976	59.59244011223204
6940.782661921161	59.82425113833604
6942.228658309061	60.056023807316485
6943.67495594621	60.28772557474242
6945.121554895365	60.51725525850934
6946.568455219301	60.73846516972943
6948.015656980806	60.948712774830554
6949.463160242676	61.15357742317649
6950.910965067728	61.35779751210366
6952.359071518784	61.56207495831665
6953.807479658683	61.76711180809168
6955.256189550279	61.97610839186001
6956.705201256435	62.19200820955298
6958.154514840031	62.41251163841843
6959.604130363956	62.63399516882683
6961.054047891116	62.85554048368818
6962.504267484427	63.076670756022004
6963.954789206819	63.29401023121693
6965.405613121237	63.502343168470965
6966.856739290638	63.70273228295621
6968.30816777799	63.90072650035695
6969.759898646277	64.09863885845863
6971.211931958496	64.29601098892763
6972.6642677776545	64.48506645644055
6974.116906166776	64.6469799492086
6975.569847188894	64.77731567909481
6977.023090907059	64.89414695324186
6978.47663738433	65.00967489379074
6979.930486683786	65.1252472482076
6981.3846388685115	65.24144140046397
6982.83909400161	65.36041793033488
6984.293852146194	65.48368359717605
6985.748913365391	65.60947715540121
6987.204277722341	65.73572129098744
6988.659945280201	65.86200039061461
6990.115916102135	65.9887077220992
6991.572190251322	66.11822523992579
6993.028767790958	66.25352892607546
6994.485648784248	66.3933407821201
6995.942833294413	66.53432696522177
6997.400321384683	66.67537979396143
6998.858113118305	66.81545699478468
7000.316208558537	66.94455386800293
7001.774607768653	67.04277667461523
7003.23331081194	67.10917463357026
7004.692317751692	67.16373543841435
7006.151628651223	67.21740541167235
7007.6112435738605	67.27105365893654
7009.071162582939	67.32401389463793
7010.5313857418105	67.37420528918202
7011.9919131138395	67.4206149445779
7013.452744762405	67.46510014498261
7014.913880750897	67.50933813659854
7016.375321142722	67.55364616015154
7017.837066001293	67.60083829709998
7019.299115390043	67.66436608799955
7020.761469372417	67.75743181412685
7022.224128011869	67.87081889100563
7023.687091371872	67.98862034161111
7025.150359515908	68.10654854229432
7026.613932507475	68.22564782493315
7028.07781041008	68.35513552591551
7029.541993287248	68.51024107319202
7031.0064812025175	68.68876948026211
7032.471274219435	68.8747497031616
7033.936372401564	69.06116395736241
7035.401775812481	69.24658744770953
7036.867484515776	69.41633662992152
7038.33349857505	69.53282996610012
7039.79981805392	69.58489422361474
7041.266443016016	69.60798666716425
7042.733373524977	69.62793909650044
7044.200609644461	69.64809437212868
7045.668151438137	69.67472771127036
7047.135998969687	69.73274450272223
7048.604152302806	69.8409210265231
7050.072611501203	69.9794434318412
7051.541376628598	70.12334070855023
7053.010447748729	70.26729494575032
7054.479824925345	70.40786212864796
7055.949508222204	70.52387664123218
7057.419497703085	70.58737201531261
7058.889793431773	70.60853105047171
7060.360395472071	70.61823964523894
7061.831303887795	70.6275012870172
7063.302518742772	70.63724026925341
