#wavelength (Angstrom)	surface_flux (erg / (Angstrom cm2 s))
6300.0	0.10188624082967511
6301.3125	0.1518421807992033
6302.6252734375	0.17892858534880973
6303.938320369467	0.18206299446199475
6305.251640852877	0.18389558587768784
6306.565234944722	0.18574667737961806
6307.8791027020025	0.18760291667842194
6309.193244181732	0.1894597182698355
6310.5076594409375	0.1913184639335923
6311.822348536654	0.19319532224438968
6313.137311525933	0.19512335618672563
6314.452548465834	0.19710496873465766
6315.768059413431	0.19910711787517013
6317.083844425809	0.2011112477437229
6318.399903560065	0.20311607743041027
6319.716236873307	0.20512735948781072
6321.032844422655	0.20716336668272758
6322.349726265244	0.2092334929170323
6323.666882458216	0.21132163622593214
6324.984313058728	0.21341267332823974
6326.302018123949	0.2155041821484671
6327.619997711058	0.217597349661309
6328.938251877249	0.21969812261585792
6330.256780679723	0.22181259659743874
6331.575584175699	0.22393682387749805
6332.894662422402	0.2260635633623434
6334.214015477073	0.22819080001338923
6335.533643396964	0.23032058440312492
6336.853546239339	0.23247001460667202
6338.173724061472	0.23466771619697835
6339.494176920652	0.2369100308971748
6340.814904874177	0.23916704693096064
6342.135907979359	0.24142533349377387
6343.457186293522	0.24368515598649404
6344.778739874001	0.24596193826279789
6346.100568778142	0.24829566343310813
6347.422673063304	0.2506987315980671
6348.745052786858	0.25313354036377694
6350.067708006189	0.2555722920718947
6351.39063877869	0.25801170076331253
6352.713845161769	0.26045664539946495
6354.037327212845	0.2629271943438628
6355.3610849893485	0.26543920216760364
6356.685118548721	0.2679770026137436
6358.009427948419	0.27051993041268574
6359.334013245908	0.2730634606130103
6360.658874498668	0.2756090411581249
6361.984011764189	0.2781663787341605
6363.309425099973	0.280748735111703
6364.635114563535	0.28335175803397084
6365.961080212403	0.28596091867748613
6367.2873221041145	0.2885708551633456
6368.61384029622	0.2911822613477236
6369.940634846282	0.29380586102556705
6371.267705811875	0.29646499703709
6372.595053250586	0.2991626066145226
6373.922677220014	0.301875642071393
6375.250577777768	0.3045904548703025
6376.578754981471	0.30730633225755005
6377.907208888761	0.3100340272616833
6379.235939557279	0.3128091480975719
6380.564947044686	0.31565175409389923
6381.894231408654	0.3185310845663161
6383.223792706865	0.3214163838967898
6384.553630997012	0.3243023979875561
6385.883746336804	0.32719412160826505
6387.2141387839565	0.33011830670013703
6388.544808396204	0.3331043180851535
6389.875755231287	0.33613530428289096
6391.20697934696	0.3391771462936267
6392.53848080099	0.3422198808736188
6393.870259651158	0.34526431850325584
6395.202315955253	0.3483196006686273
6396.534649771077	0.3514018483489563
6397.867261156446	0.35450991986239766
6399.2001501691875	0.35762717530642135
6400.533316867139	0.36074562057564413
6401.866761308153	0.3638654508715365
6403.200483550093	0.36699863174722475
6404.534483650832	0.3701783076320379
6405.868761668259	0.37341674605814684
6407.2033176602745	0.37668326382061973
6408.5381516847865	0.3799536501079822
6409.873263799722	0.3832248842699001
6411.2086540630135	0.3865027921722271
6412.544322532611	0.389812329227202
6413.880269266471	0.3931746549681587
6415.216494322568	0.3965710230024308
6416.552997758886	0.39997456880125243
6417.8897796334195	0.4033789484736176
6419.226840004177	0.4067867201391315
6420.5641789291785	0.4102163548378062
6421.9017964664545	0.4136947753066419
6423.239692674053	0.4172148331420599
6424.577867610025	0.4207474820421928
6425.9163213324455	0.4242813945158331
6427.25505389939	0.42781580510040623
6428.594065368952	0.4313478225921406
6429.933355799238	0.4348708388399656
6431.272925248362	0.438383646956718
6432.612773774456	0.4418926755211143
6433.9529014356585	0.44540201941745944
6435.293308290125	0.4489123551085978
6436.63399439602	0.4524300172929895
6437.974959811519	0.455977413678214
6439.316204594813	0.45956869608774065
6440.657728804104	0.4631850123189798
6441.999532497605	0.4668059195617053
6443.341615733541	0.4704277057588039
6444.683978570154	0.4740571744038738
6446.026621065689	0.4777324317806875
6447.369543278411	0.48149792020989785
6448.7127452665945	0.4853313701207581
6450.056227088525	0.48918203274851185
6451.399988802502	0.4930339949657962
6452.744030466836	0.4968859722762443
6454.088352139851	0.5007307193957306
6455.43295387988	0.5045546760540593
6456.777835745272	0.5083580118891331
6458.122997794385	0.5121545462898396
6459.468440085592	0.5159513501528951
6460.814162677278	0.5197481841510095
6462.160165627836	0.523531364582374
6463.506448995675	0.5272606977928671
6464.853012839217	0.5309188944129032
6466.199857216891	0.5345424477056366
6467.546982187145	0.53816229655686
6468.894387808435	0.5417833649143887
6470.242074139227	0.545424469725098
6471.590041238007	0.5491703561547218
6472.938289163264	0.5530982433335735
6474.286817973508	0.5571470178611406
6475.6356277272525	0.5612211789357213
6476.984718483029	0.5652967536284432
6478.334090299379	0.5693984282035127
6479.683743234858	0.5737142232944621
6481.033677348033	0.5785355864375018
6482.38389269748	0.583802343264028
6483.734389341793	0.5892045542107933
6485.085167339573	0.5946144101212489
6486.436226749436	0.6000280011394736
6487.787567630007	0.6054792559118126
6489.139190039932	0.6110500882524961
6490.491094037857	0.6167601152236375
6491.843279682447	0.6225308008572241
6493.195747032382	0.6283086468103843
6494.548496146348	0.6340874558775912
6495.901527083045	0.6398603322589108
6497.254839901187	0.6456013117253926
6498.6084346595	0.6512925409560875
6499.962311416722	0.6569554179252146
6501.316470231601	0.6626146355592297
6502.670911162898	0.6682747677585509
6504.025634269391	0.6739180017238389
6505.3806396098635	0.6794400665348996
6506.735927243117	0.6847121394541065
6508.091497227958	0.6897902327821325
6509.447349623215	0.6948192002302108
6510.80348448772	0.6998474642731116
6512.159901880322	0.7048641509653139
6513.51660185988	0.7097386531457673
6514.873584485267	0.7142077608966018
6516.23084981537	0.718257796506063
6517.58839790908	0.7221531235102471
6518.946228825313	0.7260378988554302
6520.304342622985	0.7299361612584068
6521.662739361031	0.7340899678123249
6523.021419098398	0.7392450839856542
6524.380381894044	0.7457645656128822
6525.739627806938	0.7529853727157731
6527.099156896065	0.7603032545818847
6528.458969220418	0.7676217635641562
6529.819064839006	0.7748771622290664
6531.179443810848	0.7817630611645112
6532.540106194976	0.7879769075809006
6533.9010520504335	0.7937292453500453
6535.262281436278	0.7993836821871247
6536.6237944115765	0.8050372455419201
6537.985591035413	0.8106921509261918
6539.347671366879	0.8163496719420907
6540.71003546508	0.8220118747969631
6542.072683389135	0.8276784404803302
6543.435615198176	0.8333471962570534
6544.798830951341	0.8390171886246263
6546.162330707791	0.8446915342654624
6547.526114526688	0.8504153735191917
6548.890182467215	0.8563038638804084
6550.254534588562	0.8623904270039301
6551.619170949934	0.8685660429518953
6552.984091610549	0.8747522161415436
6554.349296629635	0.880940661598648
6555.7147860664345	0.887161303397885
6557.080559980198	0.8935326277803552
6558.446618430195	0.9001441977653986
6559.8129614757	0.906902163778315
6561.1795891760075	0.9136874402166301
6562.54650159042	0.9204739252888074
6563.913698778251	0.9272068423311136
6565.281180798831	0.9335426050788698
6566.648947711497	0.9390227295784235
6568.016999575604	0.943810058952754
6569.385336450516	0.9484100020026504
6570.753958395609	0.9530036261858952
6572.122865470276	0.9576246528303655
6573.492057733915	0.9625595000273939
6574.861535245943	0.9684087396894406
6576.231298065786	0.9752295410730564
6577.601346252884	0.9824250725295635
6578.971679866686	0.9896520591220459
6580.342298966659	0.9968844256091876
6581.7132036122775	1.0042035506939562
6583.08439386303	1.0118751805597606
6584.455869778419	1.0200447741905119
6585.827631417956	1.028481097472803
6587.199678841168	1.0369576800497888
6588.572012107595	1.0454352021449256
6589.944631276783	1.0538536541059036
6591.3175364083	1.0619049644099912
6592.690727561718	1.0692619615656425
6594.064204796627	1.0761238957745938
6595.437968172626	1.0828747465676727
6596.812017749329	1.0896242466144048
6598.18635358636	1.096382745899116
6599.5609757433585	1.1032133144987812
6600.935884279972	1.1102247534239484
6602.311079255864	1.1174070333230368
6603.686560730708	1.124647269342009
6605.062328764195	1.1318924509043504
6606.43838341602	1.1391452783019438
6607.814724745898	1.1465043239556654
6609.191352813554	1.1542380108659274
6610.568267678725	1.1624403512472448
6611.9454694011565	1.1708613847067892
6613.322958040616	1.17930870115439
6614.700733656875	1.1877567955886024
6616.07879630972	1.1961724316534854
6617.457146058951	1.2044178147541702
6618.835782964381	1.2123807653907575
6620.214707085831	1.2201668174585352
6621.593918483141	1.2279207642931085
6622.973417216159	1.2356758366591223
6624.353203344746	1.2434360500553732
6625.733276928776	1.2512253792896135
6627.113638028136	1.2590779164474597
6628.494286702727	1.266983551599582
6629.8752230124555	1.2749052920619022
6631.25644701725	1.2828292688479452
6632.637958777046	1.290765782552279
6634.019758351792	1.2988408737025257
6635.401845801448	1.3073346335172982
6636.784221185991	1.3162911238383654
6638.166884565405	1.32543618169602
6639.54983599969	1.3345998543915645
6640.933075548856	1.343764750486772
6642.316603272929	1.3529142739460094
6643.700419231944	1.3619906578659187
6645.084523485952	1.3709589336265122
6646.468916095012	1.3798683824108013
6647.853597119198	1.3887704806445222
6649.238566618597	1.3976742685976242
6650.623824653309	1.4065727565088553
6652.009371283446	1.4154279961829639
6653.39520656913	1.424197135998427
6654.781330570499	1.4329030707491226
6656.167743347702	1.441595208576649
6657.554444960899	1.4502886776655717
6658.941435470266	1.4589718986456148
6660.328714935989	1.4675358216158785
6661.716283418268	1.475780641285893
6663.104140977314	1.4837138713009959
6664.492287673351	1.4915402636620967
6665.880723566617	1.4993612757146622
6667.269448717359	1.5071860861970197
6668.658463185843	1.5150513489918573
6670.04776703234	1.5230613730299163
6671.437360317139	1.5312582248421347
6672.827243100539	1.5395465266721806
6674.21741544285	1.5478476495089661
6675.607877404403	1.5561487337110729
6676.998629045529	1.5643810785759331
6678.389670426579	1.5722417185704443
6679.781001607919	1.5794638094165079
6681.17262264992	1.586270892763367
6682.564533612973	1.5929968904246719
6683.956734557476	1.599721829331058
6685.349225543842	1.6062524435069752
6686.742006632498	1.611199098685459
6688.135077883879	1.6124818520323176
6689.528439358438	1.6105931992262978
6690.9220911166385	1.6077615144416548
6692.316033218955	1.6048840398403268
6693.710265725876	1.6012555371701171
6695.104788697902	1.5874299150474998
6696.4996021955485	1.541200562876698
6697.894706279339	1.457886561942117
6699.290101009814	1.3589462458266541
6700.685786447524	1.2584947079178994
6702.081762653035	1.1583897348046834
6703.478029686921	1.068325097734077
6704.874587609773	1.0237013074289931
6706.27143648219	1.0479492052630641
6707.668576364793	1.1116786402712084
6709.066007318201	1.181844798017167
6710.46372940306	1.2520781840764634
6711.861742680019	1.3219607118487746
6713.260047209744	1.3894337921231859
6714.658643052912	1.452018385522008
6716.0575302702155	1.5108631832475503
6717.4567089223565	1.5687753529276993
6718.856179070049	1.6266685504591705
6720.255940774021	1.6841845547413334
6721.6559940950165	1.7375085605245455
6723.056339093787	1.779251058991585
6724.456975831098	1.8093032898220545
6725.85790436773	1.8351449547168546
6727.259124764472	1.860695933929657
6728.660637082132	1.8862077718223584
6730.062441381524	1.9108708932235423
6731.464537723479	1.932261622645516
6732.866926168839	1.9492720846713651
6734.269606778457	1.964079483910149
6735.672579613203	1.9785987834149197
6737.075844733956	1.9931187779728448
6738.4794022016085	2.0075801494975742
6739.883252077068	2.0216952680734095
6741.2873944212515	2.0351879414961096
6742.691829295089	2.048260254294228
6744.096556759525	2.0612468769450283
6745.5015768755175	2.074234410641514
6746.906889704033	2.087208305683474
6748.312495306054	2.1000462332414758
6749.718393742578	2.1125552393117184
6751.124585074607	2.1247702937218675
6752.531069363165	2.1368956199700566
6753.937846669282	2.1490185648130176
6755.344917054005	2.1611430956795865
6756.752280578391	2.173255966269348
6758.159937303512	2.1853241431781085
6759.567887290451	2.19733901975366
6760.976130600304	2.2093321423660055
6762.384667294178	2.2213253475803487
6763.793497433198	2.233320935900742
6765.202621078498	2.2453156023196663
6766.612038291223	2.257296621570798
6768.021749132533	2.269254732613082
6769.431753663604	2.2812001459796454
6770.842051945616	2.2931453890218663
6772.252644039771	2.305093081086343
6773.66353000728	2.317042466689642
6775.074709909365	2.3289886646614884
6776.486183807264	2.3409253489108326
6777.897951762223	2.352854989993066
6779.310013835508	2.364784611273872
6780.722370088391	2.3767166300856775
6782.135020582158	2.3886548810799506
6783.547965378113	2.4006381007185382
6784.961204537568	2.412745296216644
6786.374738121846	2.4249821438630654
6787.788566192289	2.4372697313177767
6789.2026888102455	2.449563687281813
6790.617106037082	2.4618606624228176
6792.031817934173	2.4741700695187445
6793.446824562909	2.4865219458291103
6794.862125984693	2.498931816957576
6796.27772226094	2.5113732057136495
6797.693613453079	2.5238212097300683
6799.109799622548	2.5362717251794584
6800.5262808308025	2.5487196756452577
6801.9430571393095	2.561139896713517
6803.360128609546	2.5735065800171144
6804.777495303007	2.5858364021804787
6806.195157281196	2.598159999781762
6807.6131146056305	2.610485962688815
6809.031367337839	2.622819374602147
6810.449915539369	2.635200185348357
6811.868759271772	2.6476960668260388
6813.287898596622	2.660299325187585
6814.707333575495	2.6729394318157005
6816.12706426999	2.6855841509633525
6817.547090741715	2.6982330034734265
6818.967413052284	2.710908554805165
6820.388031263337	2.723670146028953
6821.808945436517	2.736536834322791
6823.230155633484	2.749452993020557
6824.651661915907	2.762377042556733
6826.073464345473	2.775303311246215
6827.49556298388	2.78821642980197
6828.917957892834	2.8010540012762086
6830.340649134063	2.8137669492404127
6831.763636769299	2.826403889642495
6833.186920860294	2.839029024400577
6834.610501468806	2.8516566236472642
6836.034378656611	2.864290811599088
6837.458552485498	2.8769571564544
6838.883023017267	2.889690543880174
6840.307790313729	2.9024793180981305
6841.732854436711	2.915285268748365
6843.158215448053	2.9280944697547913
6844.583873409604	2.940903967045478
6846.009828383232	2.953687317417444
6847.436080430813	2.966387416453823
6848.862629614236	2.978996938771762
6850.289475995406	2.991572183985896
6851.716619636238	3.004146893181003
6853.144060598662	3.016723702283785
6854.57179894462	3.0292906130434334
6855.999834736067	3.041807075143863
6857.428168034971	3.054249806496092
6858.856798903312	3.066653791075041
6860.285727403084	3.0790542505275074
6861.7149535962935	3.0914581174585303
6863.144477544959	3.1039151382846573
6864.5742993111135	3.1166857109082966
6866.004418956804	3.130054853865848
6867.434836544087	3.14386024466794
6868.865552135034	3.157770168121664
6870.296565791729	3.171685803295207
6871.72787757627	3.185573458173111
6873.159487550764	3.1991575952613007
6874.591395777338	3.2119437949692076
6876.023602318125	3.2239632030047765
6877.456107235274	3.235724984145626
6878.888910590949	3.2474733083065987
6880.322012447323	3.259224648341761
6881.755412866582	3.270988042514281
6883.18911191093	3.2827883192788754
6884.623109642579	3.2946346386231475
6886.057406123754	3.306504062819521
6887.492001416697	3.3183784149717854
6888.926895583659	3.3302542090054374
6890.362088686906	3.3420910503332695
6891.797580788715	3.353712556681065
6893.233371951381	3.364967760438081
6894.669462237203	3.37598955573455
6896.105851708503	3.3869685275600445
6897.542540427609	3.3979492366080657
6898.979528456865	3.408947830974197
6900.416815858628	3.4200712680267618
6901.854402695265	3.4314754346578713
6903.29228902916	3.443119572230166
6904.730474922708	3.454835630616721
6906.168960438317	3.466557345651088
6907.607745638409	3.478020543023938
6909.0468305854165	3.485957963945686
6910.48621534179	3.4828137017172605
6911.925899969986	3.4671638758763854
6913.365884532479	3.446355452118081
6914.806169091757	3.4250756128836484
6916.246753710318	3.4038390556295597
6917.687638450675	3.3838182098361576
6919.128823375352	3.369169483947115
6920.570308546889	3.3625325821346306
6922.012094027836	3.3604227869778978
6923.454179880759	3.3590369791969366
6924.896566168235	3.3576689734822995
6926.339252952854	3.3571572305380553
6927.782240297219	3.3622435314117687
6929.225528263946	3.3784947245249373
6930.669116915669	3.403155984851906
6932.113006315028	3.4298808418951343
6933.557196524675	3.456673115498532
6935.001687607285	3.483377754776149
6936.446479625538	3.5091273206591076
6937.8915726421255	3.532293048924934
6939.33696671976	3.552892738544543
6940.782661921161	3.572584374766488
6942.228658309061	3.592216868268751
6943.67495594621	3.6118266563701926
6945.121554895365	3.63094135384659
6946.568455219301	3.648178847451783
6948.015656980806	3.6629450463553437
6949.463160242676	3.676494287961974
6950.910965067728	3.6898918484250807
6952.359071518784	3.7033055205619196
6953.807479658683	3.717314388484718
6955.256189550279	3.734563198223602
6956.705201256435	3.7574844511058916
6958.154514840031	3.7841777323523553
6959.604130363956	3.8116485671815257
6961.054047891116	3.839139381676275
6962.504267484427	3.866508035701286
6963.954789206819	3.8928184487986743
6965.405613121237	3.916624322024684
6966.856739290638	3.9382203392271333
6968.30816777799	3.959145186814677
6969.759898646277	3.980040256518885
6971.211931958496	4.000829326230279
6972.6642677776545	4.020036532878472
6974.116906166776	4.034089085935355
6975.569847188894	4.0421451320252455
6977.023090907059	4.047634739908411
6978.47663738433	4.052873516979549
6979.930486683786	4.058120656121533
6981.3846388685115	4.063577945865973
6982.83909400161	4.070001064760977
6984.293852146194	4.077917012439021
6985.748913365391	4.086709777623228
6987.204277722341	4.095652801568108
6988.659945280201	4.104600711581137
6990.115916102135	4.113690381867087
6991.572190251322	4.123750889143267
6993.028767790958	4.135818071116022
6994.485648784248	4.1494470980000004
6995.942833294413	4.163477569720849
6997.400321384683	4.177524057213452
6998.858113118305	4.191358251124516
7000.316208558537	4.202837682126318
7001.774607768653	4.2077021804955
7003.23331081194	4.205748139362572
7004.692317751692	4.201255847057484
7006.151628651223	4.196569416476207
7007.6112435738605	4.191887918478692
7009.071162582939	4.187330993537172
7010.5313857418105	4.183272281936771
7011.9919131138395	4.179893662926412
7013.452744762405	4.1768616371470015
7014.913880750897	4.17387503340045
7016.375321142722	4.1709037967255815
7017.837066001293	4.168672947854116
7019.299115390043	4.170649648037902
7020.761469372417	4.180236811442171
7022.224128011869	4.1950588440905
7023.687091371872	4.211015689750481
7025.150359515908	4.227001910578719
7026.613932507475	4.243161266902502
7028.07781041008	4.260858897393865
7029.541993287248	4.282350364893411
7031.0064812025175	4.307310579639289
7032.471274219435	4.333374141209844
7033.936372401564	4.359501676656467
7035.401775812481	4.385451795518721
7036.867484515776	4.408616659635087
7038.33349857505	4.4223216841840145
7039.79981805392	4.42458247200937
7041.266443016016	4.421696330562406
7042.733373524977	4.418251058239676
7044.200609644461	4.414844616746517
7045.668151438137	4.41272313155978
7047.135998969687	4.416832645196623
7048.604152302806	4.43090200036542
7050.072611501203	4.450996299127764
7051.541376628598	4.47215646636734
7053.010447748729	4.493326952092249
