#wavelength (Angstrom)	surface_flux (erg / (Angstrom cm2 s))
6300.0	2863.130793978373
6301.3125	4228.6932086201805
6302.6252734375	4901.382874647671
6303.938320369467	4906.3740870094625
6305.251640852877	4921.848936615001
6306.565234944722	4975.621720517274
6307.8791027020025	5039.470961506439
6309.193244181732	5103.702368302255
6310.5076594409375	5168.713907722749
6311.822348536654	5242.46660380362
6313.137311525933	5341.239927431245
6314.452548465834	5466.217014858465
6315.768059413431	5601.128647343044
6317.083844425809	5736.838276394214
6318.399903560065	5871.821282369333
6319.716236873307	5990.694565469396
6321.032844422655	6044.593779728988
6322.349726265244	6008.398221263033
6323.666882458216	5925.167609732738
6324.984313058728	5835.344493053599
6326.302018123949	5745.734334617207
6327.619997711058	5669.543437200755
6328.938251877249	5672.113829994773
6330.256780679723	5820.4229561173
6331.575584175699	6071.0920735866475
6332.894662422402	6344.554861509327
6334.214015477073	6618.5971396346295
6335.533643396964	6885.0814731932005
6336.853546239339	7082.141490974926
6338.173724061472	7106.200370898009
6339.494176920652	6970.4953629604115
6340.814904874177	6783.25790743121
6342.135907979359	6593.085621828152
6343.457186293522	6404.263478669244
6344.778739874001	6236.909986224764
6346.100568778142	6143.178380406252
6347.422673063304	6139.243031121498
6348.745052786858	6176.055801175241
6350.067708006189	6217.35770376245
6351.39063877869	6258.292448109558
6352.713845161769	6286.038367168091
6354.037327212845	6247.918082418589
6355.3610849893485	6102.315043377785
6356.685118548721	5890.352051424832
6358.009427948419	5666.273867970303
6359.334013245908	5442.106347117669
6360.658874498668	5230.120772258873
6361.984011764189	5108.385380718269
6363.309425099973	5183.561316064884
6364.635114563535	5420.6432590729555
6365.961080212403	5702.777589674607
6367.2873221041145	5986.838781742037
6368.61384029622	6270.039325943138
6369.940634846282	6541.726597007645
6371.267705811875	6778.712525217155
6372.595053250586	6978.079462450359
6373.922677220014	7162.722530064936
6375.250577777768	7346.199968967748
6376.578754981471	7528.9485706359455
6377.907208888761	7694.438555954256
6379.235939557279	7787.931875116344
6380.564947044686	7778.5927899691815
6381.894231408654	7713.70792880903
6383.223792706865	7640.556132251897
6384.553630997012	7567.395202667317
6385.883746336804	7498.086935083693
6387.2141387839565	7452.887364070268
6388.544808396204	7454.030954869984
6389.875755231287	7488.757943929919
6391.20697934696	7531.233884208162
6392.53848080099	7573.916991540113
6393.870259651158	7618.404394525527
6395.202315955253	7680.047047889002
6396.534649771077	7785.916471598919
6397.867261156446	7934.095233991669
6399.2001501691875	8096.63995347205
6400.533316867139	8260.126017721852
6401.866761308153	8423.523830585757
6403.200483550093	8584.843189298786
6404.534483650832	8738.571204997157
6405.868761668259	8882.667446601396
6407.2033176602745	9022.235486318856
6408.5381516847865	9161.302342082756
6409.873263799722	9299.452841172926
6411.2086540630135	9402.984494184902
6412.544322532611	9327.603698999766
6413.880269266471	8950.964965608799
6415.216494322568	8381.4624421598
6416.552997758886	7774.430066750462
6417.8897796334195	7166.745671017484
6419.226840004177	6573.123211601154
6420.5641789291785	6091.251679252644
6421.9017964664545	5863.519472902916
6423.239692674053	5852.119244999054
6424.577867610025	5903.429851759395
6425.9163213324455	5957.541549681618
6427.25505389939	6013.567293650834
6428.594065368952	6094.611304085148
6429.933355799238	6253.479134574165
6431.272925248362	6499.815991483368
6432.612773774456	6782.253701883148
6433.9529014356585	7068.07213622628
6435.293308290125	7353.050615838236
6436.63399439602	7615.312335971825
6437.974959811519	7777.4738398942845
6439.316204594813	7790.662989870161
6440.657728804104	7719.985545890404
6441.999532497605	7636.040360361774
6443.341615733541	7552.022032622997
6444.683978570154	7471.266758998945
6446.026621065689	7411.818848000582
6447.369543278411	7394.722898039167
6448.7127452665945	7409.433569037034
6450.056227088525	7431.919829219805
6451.399988802502	7454.65350990187
6452.744030466836	7480.85689508286
6454.088352139851	7542.413770407174
6455.43295387988	7698.997171950307
6456.777835745272	7949.861342525644
6458.122997794385	8234.19446043153
6459.468440085592	8520.881610025772
6460.814162677278	8806.625635924322
6462.160165627836	9073.390690550868
6463.506448995675	9268.199794314249
6464.853012839217	9368.264691421024
6466.199857216891	9421.684694802041
6467.546982187145	9469.238235398061
6468.894387808435	9516.521500745112
6470.242074139227	9553.094972874496
6471.590041238007	9531.84563086227
6472.938289163264	9409.844467824843
6474.286817973508	9221.066872859103
6475.6356277272525	9018.605518748058
6476.984718483029	8815.847272549421
6478.334090299379	8614.22003137379
6479.683743234858	8422.459916425698
6481.033677348033	8254.108647676983
6482.38389269748	8106.370283059939
6483.734389341793	7964.843860162678
6485.085167339573	7823.590872965491
6486.436226749436	7685.239815871152
6487.787567630007	7587.924975759003
6489.139190039932	7623.714213330708
6490.491094037857	7814.656119125672
6491.843279682447	8072.478867723098
6493.195747032382	8337.052008421742
6494.548496146348	8601.487481756232
6495.901527083045	8860.23787490913
6497.254839901187	9092.419242002958
6498.6084346595	9283.671467128526
6499.962311416722	9451.205349362159
6501.316470231601	9614.88191002482
6502.670911162898	9778.604548162777
6504.025634269391	9945.772394665075
6505.3806396098635	10136.060784192894
6506.735927243117	10373.777828313066
6508.091497227958	10648.354403952651
6509.447349623215	10932.457560409526
6510.80348448772	11216.947513824593
6512.159901880322	11496.44473759205
6513.51660185988	11718.685227282722
6514.873584485267	11778.342489035596
6516.23084981537	11669.94315713061
6517.58839790908	11499.275208746842
6518.946228825313	11324.024597424841
6520.304342622985	11151.175244748967
6521.662739361031	11027.271669322308
6523.021419098398	11095.715225001803
6524.380381894044	11426.316978488316
6525.739627806938	11891.582575355016
6527.099156896065	12375.322103282027
6528.458969220418	12858.826399458598
6529.819064839006	13321.991666186752
6531.179443810848	13667.92720363135
6532.540106194976	13800.95558080893
6533.9010520504335	13787.657760083453
6535.262281436278	13743.018631346882
6536.6237944115765	13697.713682351112
6537.985591035413	13650.416860609137
6539.347671366879	13585.754911805192
6540.71003546508	13478.785448862673
6542.072683389135	13333.362846823644
6543.435615198176	13175.721531651685
6544.798830951341	13017.37611420055
6546.162330707791	12859.30093144431
6547.526114526688	12705.811052758712
6548.890182467215	12567.914696365837
6550.254534588562	12448.806707696443
6551.619170949934	12338.065514951135
6552.984091610549	12228.187460702913
6554.349296629635	12118.172828389437
6555.7147860664345	12004.547653330168
6557.080559980198	11873.558351751084
6558.446618430195	11714.80868092122
6559.8129614757	11539.192509850749
6561.1795891760075	11360.533047650672
6562.54650159042	11181.802868548608
6563.913698778251	11003.48646784689
6565.281180798831	10828.402262612728
6566.648947711497	10660.31117039745
6568.016999575604	10497.87739118103
6569.385336450516	10336.955074343143
6570.753958395609	10176.058926463762
6572.122865470276	10018.318521281419
6573.492057733915	9898.275207923547
6574.861535245943	9888.356582643824
6576.231298065786	9995.45709866914
6577.601346252884	10147.600165160602
6578.971679866686	10303.387562686186
6580.342298966659	10459.561839477563
6581.7132036122775	10623.566527311457
6583.08439386303	10819.709057140768
6584.455869778419	11061.294348445692
6585.827631417956	11327.171699894094
6587.199678841168	11596.626144680737
6588.572012107595	11865.988442970258
6589.944631276783	12125.565123771159
6591.3175364083	12325.5181480121
6592.690727561718	12412.919596600717
6594.064204796627	12420.002942318633
6595.437968172626	12408.886077570809
6596.812017749329	12397.305620461262
6598.18635358636	12382.017276729366
6599.5609757433585	12332.2426154572
6600.935884279972	12194.886237954915
6602.311079255864	11974.842670044423
6603.686560730708	11727.20053539698
6605.062328764195	11477.829454007051
6606.43838341602	11229.318446132223
6607.814724745898	10996.317781950596
6609.191352813554	10818.721776750383
6610.568267678725	10710.502939880564
6611.9454694011565	10634.510846074629
6613.322958040616	10562.148485032883
6614.700733656875	10489.610788904265
6616.07879630972	10411.484121428814
6617.457146058951	10305.3229537122
6618.835782964381	10152.854219083907
6620.214707085831	9971.268351079976
6621.593918483141	9784.150782772083
6622.973417216159	9596.913977221166
6624.353203344746	9410.1339281059
6625.733276928776	9227.182078852547
6627.113638028136	9052.852632627842
6628.494286702727	8885.72380792724
6629.8752230124555	8720.593388617248
6631.25644701725	8555.510968935221
6632.637958777046	8393.852520795062
6634.019758351792	8275.659301251726
6635.401845801448	8289.912391415231
6636.784221185991	8450.609526564416
6638.166884565405	8670.65271759317
6639.54983599969	8896.050170774266
6640.933075548856	9120.428088751854
6642.316603272929	9317.985607942483
6643.700419231944	9398.915807663727
6645.084523485952	9308.854720461659
6646.468916095012	9124.415873511063
6647.853597119198	8925.625587918687
6649.238566618597	8726.585559336056
6650.623824653309	8519.451912415374
6652.009371283446	8261.517744653429
6653.39520656913	7904.557896447873
6654.781330570499	7474.337459169826
6656.167743347702	7026.459337659538
6657.554444960899	6577.981447265344
6658.941435470266	6137.078274210867
6660.328714935989	5773.091928454598
6661.716283418268	5613.073424505389
6663.104140977314	5652.24525856582
6664.492287673351	5760.411378172178
6665.880723566617	5873.058015355516
6667.269448717359	5985.392424981971
6668.658463185843	6091.741891079767
6670.04776703234	6175.962999372654
6671.437360317139	6231.545340230762
6672.827243100539	6273.250201212726
6674.21741544285	6313.246734240452
6675.607877404403	6352.937433840489
6676.998629045529	6380.511680113775
6678.389670426579	6343.841711578338
6679.781001607919	6197.014724399325
6681.17262264992	5978.492829885575
6682.564533612973	5745.729950608393
6683.956734557476	5512.707329846748
6685.349225543842	5284.743032612263
6686.742006632498	5098.095346802135
6688.135077883879	5007.034068148747
6689.528439358438	4998.709013525052
6690.9220911166385	5014.977516679465
6692.316033218955	5032.428690734782
6693.710265725876	5049.303129858129
6695.104788697902	5058.295364807361
6696.4996021955485	5042.231125824875
6697.894706279339	4997.490259109453
6699.290101009814	4940.668329532935
6700.685786447524	4882.6817464925225
6702.081762653035	4824.919894346158
6703.478029686921	4773.629425307347
6704.874587609773	4751.622376663303
6706.27143648219	4773.997548393975
6707.668576364793	4821.815970776362
6709.066007318201	4873.783614329119
6710.46372940306	4925.750125833772
6711.861742680019	4974.056814044705
6713.260047209744	4998.029063735229
6714.658643052912	4972.769642819497
6716.0575302702155	4909.8149264709755
6717.4567089223565	4837.3575100864
6718.856179070049	4764.5734314583315
6720.255940774021	4693.281589961756
6721.6559940950165	4638.254953684658
6723.056339093787	4628.1096504216885
6724.456975831098	4663.266864724175
6725.85790436773	4714.761206991669
6727.259124764472	4767.412815801061
6728.660637082132	4819.979366901925
6730.062441381524	4870.712476383371
6731.464537723479	4914.377898926892
6732.866926168839	4948.583032103989
6734.269606778457	4978.02983481315
6735.672579613203	5006.853920905856
6737.075844733956	5035.616481774444
6738.4794022016085	5061.187744154783
6739.883252077068	5068.650145211604
6741.2873944212515	5043.679323049931
6742.691829295089	4996.7560834383285
6744.096556759525	4945.2376207261
6745.5015768755175	4893.628481308024
6746.906889704033	4843.936406808906
6748.312495306054	4810.590116877301
6749.718393742578	4816.34855351491
6751.124585074607	4857.087098377041
6752.531069363165	4908.717704087861
6753.937846669282	4960.937907484832
6755.344917054005	5013.448731244051
6756.752280578391	5070.194111833397
6758.159937303512	5141.009134225348
6759.567887290451	5228.456387566381
6760.976130600304	5323.143834245023
6762.384667294178	5418.570304997406
6763.793497433198	5513.99828291318
6765.202621078498	5608.9018468624745
6766.612038291223	5701.256266906639
6768.021749132533	5789.587988037955
6769.431753663604	5875.521476593868
6770.842051945616	5961.04981572864
6772.252644039771	6046.553385517304
6773.66353000728	6128.087133147778
6775.074709909365	6181.18238060671
6776.486183807264	6174.1280158351165
6777.897951762223	6119.304704546163
6779.310013835508	6051.913354057752
6780.722370088391	5984.065244025837
6782.135020582158	5916.305121840034
6783.547965378113	5849.688900514223
6784.961204537568	5786.370246895737
6786.374738121846	5726.50387575655
6787.788566192289	5667.938672377789
6789.2026888102455	5609.465087694581
6790.617106037082	5551.340411499849
6792.031817934173	5500.986356979665
6793.446824562909	5482.087393846299
6794.862125984693	5506.885302789093
6796.27772226094	5554.501941516287
6797.693613453079	5605.300944235085
6799.109799622548	5656.105822878257
6800.5262808308025	5705.995267067448
6801.9430571393095	5750.452136299905
6803.360128609546	5784.84369937159
6804.777495303007	5812.163337811403
6806.195157281196	5837.910263300681
6807.6131146056305	5863.62360835183
6809.031367337839	5889.2824523908075
6810.449915539369	5914.396889674022
6811.868759271772	5938.137052679199
6813.287898596622	5960.597300395016
6814.707333575495	5982.6425482860595
6816.12706426999	6004.66811801828
6817.547090741715	6027.561100395238
6818.967413052284	6064.309454625513
6820.388031263337	6149.068525449648
6821.808945436517	6292.80696556987
6823.230155633484	6463.506747239892
6824.651661915907	6637.235102121228
6826.073464345473	6810.738050319719
6827.49556298388	6975.515052319369
6828.917957892834	7097.056926901609
6830.340649134063	7148.221457594412
6831.763636769299	7155.895583967697
6833.186920860294	7155.586128064666
6834.610501468806	7155.175210324587
6836.034378656611	7155.692935402073
6837.458552485498	7163.138714929054
6838.883023017267	7185.698291764525
6840.307790313729	7220.636525782381
6841.732854436711	7258.987282804471
6843.158215448053	7297.482649276371
6844.583873409604	7335.21030854156
6846.009828383232	7363.523324535712
6847.436080430813	7363.748741835368
6848.862629614236	7333.491027388415
6850.289475995406	7291.159611099378
6851.716619636238	7247.787429191907
6853.144060598662	7204.88801506617
6854.57179894462	7173.582543991259
6855.999834736067	7191.455897455734
6857.428168034971	7280.08776579064
6858.856798903312	7407.053482701205
6860.285727403084	7539.708092083088
6861.7149535962935	7672.38805538006
6863.144477544959	7803.019209122879
6864.5742993111135	7920.909349672436
6866.004418956804	8014.355322400812
6867.434836544087	8090.022299636337
6868.865552135034	8161.5309091167555
6870.296565791729	8232.939438304971
6871.72787757627	8306.616040209468
6873.159487550764	8402.666082639638
6874.591395777338	8557.166243404701
6876.023602318125	8767.843940893163
6877.456107235274	8997.54667025527
6878.888910590949	9228.457976291584
6880.322012447323	9458.837377377647
6881.755412866582	9679.460988987737
6883.18911191093	9864.989520876266
6884.623109642579	10006.074858253663
6886.057406123754	10126.127684056957
6887.492001416697	10243.699795299191
6888.926895583659	10360.89988734621
6890.362088686906	10462.527669452946
6891.797580788715	10482.177047568799
6893.233371951381	10363.010256746076
6894.669462237203	10155.060225355048
6896.105851708503	9930.079829174749
6897.542540427609	9704.850577605739
6898.979528456865	9486.201774862413
6900.416815858628	9319.578855770045
6901.854402695265	9271.21716502788
6903.29228902916	9323.798349237415
6904.730474922708	9405.918543070002
6906.168960438317	9489.436361703538
6907.607745638409	9572.414447268924
6909.0468305854165	9647.877409054812
6910.48621534179	9699.693861184813
6911.925899969986	9724.823910431975
6913.365884532479	9738.95287177088
6914.806169091757	9752.08758921677
6916.246753710318	9765.764080012035
6917.687638450675	9793.22722783896
6919.128823375352	9881.431766011432
6920.570308546889	10060.198301336546
6922.012094027836	10290.16017984646
6923.454179880759	10528.353778929782
6924.896566168235	10766.760106064035
6926.339252952854	11011.860890931795
6927.782240297219	11300.441177174225
6929.225528263946	11675.686584570276
6930.669116915669	12116.226181644915
6932.113006315028	12572.8263424227
6933.557196524675	13030.004416086864
6935.001687607285	13490.24339026496
6936.446479625538	13981.14076802093
6937.8915726421255	14554.515500400777
6939.33696671976	15209.80137262433
6940.782661921161	15894.249884723917
6942.228658309061	16580.85312508089
6943.67495594621	17266.42165885417
6945.121554895365	17930.192620949998
6946.568455219301	18511.41765948424
6948.015656980806	18983.984554672013
6949.463160242676	19403.02548187607
6950.910965067728	19815.36276340661
6952.359071518784	20227.562642836703
6953.807479658683	20630.97549014152
6955.256189550279	20985.988679191065
6956.705201256435	21256.168556665543
6958.154514840031	21469.97930788343
6959.604130363956	21672.27180275857
6961.054047891116	21874.431463472105
6962.504267484427	22085.889913972387
6963.954789206819	22374.401922717378
6965.405613121237	22844.652509793792
6966.856739290638	23475.31218533384
6968.30816777799	24155.008999544145
6969.759898646277	24837.318312378116
6971.211931958496	25521.254536725006
6972.6642677776545	26226.674948392454
6974.116906166776	27001.65026658655
6975.569847188894	27857.50738310955
6977.023090907059	28748.095935107147
6978.47663738433	29642.26025703639
6979.930486683786	30534.593682150775
6981.3846388685115	31370.470148953107
6982.83909400161	31945.143190084724
6984.293852146194	32115.825517369547
6985.748913365391	32049.421790373162
6987.204277722341	31942.78884204217
6988.659945280201	31835.57811096431
6990.115916102135	31715.749872721244
6991.572190251322	31508.660463818174
6993.028767790958	31121.051050890255
6994.485648784248	30592.970718336233
6995.942833294413	30028.8929981842
6997.400321384683	29463.516725605816
6998.858113118305	28914.839714070495
7000.316208558537	28550.272172635407
7001.774607768653	28702.699079390073
7003.23331081194	29388.03007322053
7004.692317751692	30271.80817659567
7006.151628651223	31170.867021057533
7007.6112435738605	32069.658475699318
7009.071162582939	32958.97618738068
7010.5313857418105	33810.068427602935
7011.9919131138395	34608.939547320406
7013.452744762405	35381.25246332164
7014.913880750897	36150.182428999025
7016.375321142722	36918.600273526004
7017.837066001293	37656.23064436511
7019.299115390043	38218.27033395128
7020.761469372417	38462.59936332805
7022.224128011869	38488.43255578364
7023.687091371872	38467.00553086172
7025.150359515908	38444.509599766636
7026.613932507475	38425.00324658143
7028.07781041008	38432.55868985687
7029.541993287248	38506.94948145338
7031.0064812025175	38642.44312375346
7032.471274219435	38797.32921271869
7033.936372401564	38953.27990720354
7035.401775812481	39116.39638729686
7036.867484515776	39388.40953157537
7038.33349857505	40029.69254163254
7039.79981805392	41117.656087036026
7041.266443016016	42406.644522615214
7042.733373524977	43717.68953591055
7044.200609644461	45015.92478766671
7045.668151438137	45896.22662751732
7047.135998969687	44749.736939786475
7048.604152302806	40363.53067933427
7050.072611501203	34017.55894523558
7051.541376628598	27324.91913835704
7053.010447748729	20628.668913234942
7054.479824925345	14102.97214133594
7055.949508222204	8812.900065710657
7057.419497703085	6165.748408923611
7058.889793431773	5649.110338234906
7060.360395472071	5708.782040997269
7061.831303887795	5791.072749386735
7063.302518742772	5873.39261891209
7064.774040100844	5955.87349486773
7066.245868025865	6038.795067322135
