#wavelength (Angstrom)	surface_flux (erg / (Angstrom cm2 s))
6300.0	10.460133552602585
6301.3125	15.587295996609548
6302.6252734375	18.36443072466292
6303.938320369467	18.68212287466693
6305.251640852877	18.866749477909924
6306.565234944722	19.05376173872245
6307.8791027020025	19.241429889013762
6309.193244181732	19.42915979606679
6310.5076594409375	19.6170329101616
6311.822348536654	19.806130053849465
6313.137311525933	19.998661389313753
6314.452548465834	20.194787550782653
6315.768059413431	20.39229978347232
6317.083844425809	20.589957687334554
6318.399903560065	20.787684778269355
6319.716236873307	20.986051812709487
6321.032844422655	21.18687177709649
6322.349726265244	21.391076715080587
6323.666882458216	21.59706902264557
6324.984313058728	21.803348198757885
6326.302018123949	22.00967694809792
6327.619997711058	22.216323685182875
6328.938251877249	22.42462562093566
6330.256780679723	22.6359534344776
6331.575584175699	22.849419403973155
6332.894662422402	23.06339524136745
6334.214015477073	23.27742688836486
6335.533643396964	23.491577413615804
6336.853546239339	23.7064503623225
6338.173724061472	23.92305618496061
6339.494176920652	24.14126575528161
6340.814904874177	24.36002323361521
6342.135907979359	24.578854536576145
6343.457186293522	24.797825632714087
6344.778739874001	25.018300240941695
6346.100568778142	25.24381351561101
6347.422673063304	25.47546182697033
6348.745052786858	25.70992051617088
6350.067708006189	25.944731821538625
6351.39063877869	26.179607382183352
6352.713845161769	26.415051624750678
6354.037327212845	26.653139145307765
6355.3610849893485	26.895508932886262
6356.685118548721	27.140541464209146
6358.009427948419	27.386100435660374
6359.334013245908	27.63171823158332
6360.658874498668	27.87756176636881
6361.984011764189	28.12474550391664
6363.309425099973	28.374792082491197
6364.635114563535	28.627201798965306
6365.961080212403	28.88030653530955
6367.2873221041145	29.133490669393343
6368.61384029622	29.38676913770579
6369.940634846282	29.640623581795577
6371.267705811875	29.896102399856723
6372.595053250586	30.15333751711972
6373.922677220014	30.411293803387085
6375.250577777768	30.66935827053325
6376.578754981471	30.92752583205326
6377.907208888761	31.186859573648356
6379.235939557279	31.45087985375285
6380.564947044686	31.72156981081371
6381.894231408654	31.9958883301683
6383.223792706865	32.27079479802755
6384.553630997012	32.545768905060534
6385.883746336804	32.82124896364826
6387.2141387839565	33.099584625545084
6388.544808396204	33.38335503453962
6389.875755231287	33.67108010851238
6391.20697934696	33.95976314116552
6392.53848080099	34.24852889312317
6393.870259651158	34.53738144086067
6395.202315955253	34.82654854051899
6396.534649771077	35.1164318323668
6397.867261156446	35.40700288232869
6399.2001501691875	35.6978471404349
6400.533316867139	35.98876545430779
6401.866761308153	36.27982301062807
6403.200483550093	36.57229933993204
6404.534483650832	36.86973872874485
6405.868761668259	37.17345299963566
6407.2033176602745	37.48016105258692
6408.5381516847865	37.787273910791825
6409.873263799722	38.094461054893095
6411.2086540630135	38.402077742452704
6412.544322532611	38.71164634113645
6413.880269266471	39.02445765739655
6415.216494322568	39.339368103714364
6416.552997758886	39.654738859317135
6417.8897796334195	39.970183875202416
6419.226840004177	40.28600138093556
6420.5641789291785	40.60430353656897
6421.9017964664545	40.92816895362462
6423.239692674053	41.25678020901276
6424.577867610025	41.58681585517539
6425.9163213324455	41.91698059038799
6427.25505389939	42.24725934921868
6428.594065368952	42.578201459410586
6429.933355799238	42.911062411571045
6431.272925248362	43.24607153919933
6432.612773774456	43.582007554626685
6433.9529014356585	43.91809253586977
6435.293308290125	44.25427768001444
6436.63399439602	44.59129424873546
6437.974959811519	44.93172911797288
6439.316204594813	45.277216055337774
6440.657728804104	45.625578647519724
6441.999532497605	45.974456852000685
6443.341615733541	46.32341694815944
6444.683978570154	46.6728736946395
6446.026621065689	47.025158993945695
6447.369543278411	47.38299247952474
6448.7127452665945	47.745011380493395
6450.056227088525	48.10811015445364
6451.399988802502	48.47131517449591
6452.744030466836	48.8346350248852
6454.088352139851	49.198430086293506
6455.43295387988	49.56337482604382
6456.777835745272	49.92946083104437
6458.122997794385	50.29600079439028
6459.468440085592	50.66264305704324
6460.814162677278	51.02941585380176
6462.160165627836	51.39729307210297
6463.506448995675	51.76913529474986
6464.853012839217	52.14617302212242
6466.199857216891	52.525809081046724
6467.546982187145	52.90584159962584
6468.894387808435	53.28597560458556
6470.242074139227	53.66705814044997
6471.590041238007	54.05290997202409
6472.938289163264	54.44701255109816
6474.286817973508	54.84661057531638
6475.6356277272525	55.247398378324036
6476.984718483029	55.648291929601676
6478.334090299379	56.04958279256339
6479.683743234858	56.45360751819368
6481.033677348033	56.863987945417726
6482.38389269748	57.27997630146696
6483.734389341793	57.69772097708593
6485.085167339573	58.11563370082659
6486.436226749436	58.53378350227724
6487.787567630007	58.95412192626347
6489.139190039932	59.381360574177776
6490.491094037857	59.81662780350346
6491.843279682447	60.25540631229266
6493.195747032382	60.6946189365603
6494.548496146348	61.133950335267315
6495.901527083045	61.574170582550664
6497.254839901187	62.018180520730375
6498.6084346595	62.46797481917985
6499.962311416722	62.921162884292954
6501.316470231601	63.37498600131828
6502.670911162898	63.828904221599615
6504.025634269391	64.2826206233953
6505.3806396098635	64.73442566984521
6506.735927243117	65.18220728978814
6508.091497227958	65.62688383712049
6509.447349623215	66.07083024691043
6510.80348448772	66.51484048964387
6512.159901880322	66.95887928469428
6513.51660185988	67.40228507691947
6514.873584485267	67.84372462939864
6516.23084981537	68.28312867766172
6517.58839790908	68.72183633847777
6518.946228825313	69.16057783806177
6520.304342622985	69.59962719678421
6521.662739361031	70.04311721999616
6523.021419098398	70.50378083505312
6524.380381894044	70.98781673303417
6525.739627806938	71.48390444195164
6527.099156896065	71.98172723505824
6528.458969220418	72.4796481173755
6529.819064839006	72.97704456571662
6531.179443810848	73.47093889536639
6532.540106194976	73.95839070855233
6533.9010520504335	74.44144623416292
6535.262281436278	74.92363928077219
6536.6237944115765	75.4059139357629
6537.985591035413	75.88857584502051
6539.347671366879	76.37384893537907
6540.71003546508	76.86534141139828
6542.072683389135	77.36249571699886
6543.435615198176	77.86151678167334
6544.798830951341	78.36073891407945
6546.162330707791	78.86022827964008
6547.526114526688	79.36230775437987
6548.890182467215	79.87290321201245
6550.254534588562	80.39373449925138
6551.619170949934	80.91919159164502
6552.984091610549	81.44523521090798
6554.349296629635	81.97138153486702
6555.7147860664345	82.49741689883123
6557.080559980198	83.02249572975016
6558.446618430195	83.54597887023404
6559.8129614757	84.06853611892441
6561.1795891760075	84.59101737586461
6562.54650159042	85.11360025169259
6563.913698778251	85.63578426362498
6565.281180798831	86.15439655210608
6566.648947711497	86.66520322412333
6568.016999575604	87.16970808966748
6569.385336450516	87.6725784136138
6570.753958395609	88.17548630033617
6572.122865470276	88.67897611234903
6573.492057733915	89.18821568159429
6574.861535245943	89.71404108673988
6576.231298065786	90.2574838453469
6577.601346252884	90.8077754004009
6578.971679866686	91.3587220939244
6580.342298966659	91.90985524235917
6581.7132036122775	92.46268039384935
6583.08439386303	93.02211394686866
6584.455869778419	93.59084695230527
6585.827631417956	94.16460153110108
6587.199678841168	94.73918793505841
6588.572012107595	95.31388523516267
6589.944631276783	95.88795806523127
6591.3175364083	96.45763786596653
6592.690727561718	97.01892243177367
6594.064204796627	97.57424917256672
6595.437968172626	98.12831525668109
6596.812017749329	98.68246258498138
6598.18635358636	99.23666983810838
6599.5609757433585	99.79047585826494
6600.935884279972	100.34308509182127
6602.311079255864	100.89457090207436
6603.686560730708	101.4457587571345
6605.062328764195	101.99703630969272
6606.43838341602	102.54852896010863
6607.814724745898	103.10184706647387
6609.191352813554	103.6613757697959
6610.568267678725	104.22865092987514
6611.9454694011565	104.79958905979665
6613.322958040616	105.37104684947546
6614.700733656875	105.94261135518767
6616.07879630972	106.51386206780789
6617.457146058951	107.08305588006658
6618.835782964381	107.64877372044865
6620.214707085831	108.21235063260313
6621.593918483141	108.77561829960095
6622.973417216159	109.33899520102638
6624.353203344746	109.9022060358262
6625.733276928776	110.46332331196977
6627.113638028136	111.01960612135966
6628.494286702727	111.57186734048864
6629.8752230124555	112.12308118518241
6631.25644701725	112.67436275557708
6632.637958777046	113.22574803759672
6634.019758351792	113.7771080902119
6635.401845801448	114.32815634695524
6636.784221185991	114.87884774788505
6638.166884565405	115.42946284216346
6639.54983599969	115.98017555055436
6640.933075548856	116.53084909945326
6642.316603272929	117.07776099585135
6643.700419231944	117.60795397123398
6645.084523485952	118.11358444611265
6646.468916095012	118.60570619869155
6647.853597119198	119.0958654032003
6649.238566618597	119.58606414889297
6650.623824653309	120.07312290765394
6652.009371283446	120.53984623235878
6653.39520656913	120.96681680930139
6654.781330570499	121.36440869833945
6656.167743347702	121.75500983188795
6657.554444960899	122.14547950844842
6658.941435470266	122.5334301727067
6660.328714935989	122.89534710812895
6661.716283418268	123.18814582844014
6663.104140977314	123.41344645184422
6664.492287673351	123.61540000479128
6665.880723566617	123.81588387682075
6667.269448717359	124.01455003490499
6668.658463185843	124.17997621382197
6670.04776703234	124.22274096967935
6671.437360317139	124.1067818936045
6672.827243100539	123.9138645313187
6674.21741544285	123.71139609890449
6675.607877404403	123.50777455151596
6676.998629045529	123.2616061110874
6678.389670426579	122.79015148592234
6679.781001607919	121.9324585632144
6681.17262264992	120.82336025024543
6682.564533612973	119.6642672193241
6683.956734557476	118.50384612696867
6685.349225543842	117.29778837421641
6686.742006632498	115.7237943308949
6688.135077883879	113.29946028768003
6689.528439358438	110.13901122928162
6690.9220911166385	106.75927648405948
6692.316033218955	103.36835479725653
6693.710265725876	99.92333098212347
6695.104788697902	95.75208161545936
6696.4996021955485	89.27452656030871
6697.894706279339	80.15760152133018
6699.290101009814	69.9281437658578
6700.685786447524	59.59049268020134
6702.081762653035	49.28211973154922
6703.478029686921	39.832138546126
6704.874587609773	34.268374622964004
6706.27143648219	34.59488091548518
6707.668576364793	38.29790122084046
6709.066007318201	42.5510939152442
6710.46372940306	46.811321760587454
6711.861742680019	51.1647131464037
6713.260047209744	56.131004827372685
6714.658643052912	62.33608538442836
6716.0575302702155	69.48994359714014
6717.4567089223565	76.88384964973275
6718.856179070049	84.28712879679637
6720.255940774021	91.6637977968085
6721.6559940950165	98.7379541621857
6723.056339093787	104.97515793374687
6724.456975831098	110.36754325074251
6725.85790436773	115.45607347758504
6727.259124764472	120.52425084371926
6728.660637082132	125.58340920219271
6730.062441381524	130.45011270425715
6731.464537723479	134.5751981153979
6732.866926168839	137.70763987904212
6734.269606778457	140.34075510265114
6735.672579613203	142.90844146495968
6737.075844733956	145.47570399038642
6738.4794022016085	148.0084080920841
6739.883252077068	150.3428195964182
6741.2873944212515	152.32171526845346
6742.691829295089	154.06013189864998
6744.096556759525	155.74858110428
6745.5015768755175	157.4363684938194
6746.906889704033	159.11688384948425
6748.312495306054	160.73306808115572
6749.718393742578	162.19491978293368
6751.124585074607	163.5187500461887
6752.531069363165	164.79981642513224
6753.937846669282	166.07886063272673
6755.344917054005	167.35694185594073
6756.752280578391	168.61672670593688
6758.159937303512	169.8149904145815
6759.567887290451	170.9404705631796
6760.976130600304	172.0344448739979
6762.384667294178	173.12548581028557
6763.793497433198	174.2165300108361
6765.202621078498	175.3011646399006
6766.612038291223	176.35470109857843
6768.021749132533	177.3591715534385
6769.431753663604	178.3343839727299
6770.842051945616	179.30464106318135
6772.252644039771	180.27501689722112
6773.66353000728	181.24334677090908
6775.074709909365	182.1958359392786
6776.486183807264	183.11460656712794
6777.897951762223	184.00663858207133
6779.310013835508	184.89177735227284
6780.722370088391	185.77685091152577
6782.135020582158	186.6620143966464
6783.547965378113	187.5462911155006
6784.961204537568	188.42768894505102
6786.374738121846	189.30606480862514
6787.788566192289	190.18340853986433
6789.2026888102455	191.06083901690226
6790.617106037082	191.9384090967032
6792.031817934173	192.8152309986424
6793.446824562909	193.6884715186965
6794.862125984693	194.55666627830104
6796.27772226094	195.42231285176723
6797.693613453079	196.28776026643968
6799.109799622548	197.1533476532122
6800.5262808308025	198.01708033352656
6801.9430571393095	198.86903138315756
6803.360128609546	199.69901985356486
6804.777495303007	200.51362409164813
6806.195157281196	201.32492930603536
6807.6131146056305	202.1363178986613
6809.031367337839	202.94772335577548
6810.449915539369	203.75790023946266
6811.868759271772	204.56473883893395
6813.287898596622	205.3684790720684
6814.707333575495	206.17131981568463
6816.12706426999	206.97426611467844
6817.547090741715	207.77743265288802
6818.967413052284	208.58161664497086
6820.388031263337	209.38891452509384
6821.808945436517	210.19999956645134
6823.230155633484	211.01290658925527
6824.651661915907	211.82616667383274
6826.073464345473	212.63957175114547
6827.49556298388	213.45233297068248
6828.917957892834	214.26124714711565
6830.340649134063	215.06379491349978
6831.763636769299	215.86247201070205
6833.186920860294	216.66057429648842
6834.610501468806	217.45882654548538
6836.034378656611	218.25643809830876
6837.458552485498	219.04819592904641
6838.883023017267	219.82698724574777
6840.307790313729	220.59518872467132
6841.732854436711	221.3605913313248
6843.158215448053	222.12603450216514
6844.583873409604	222.89153332843432
6846.009828383232	223.65593066322666
6847.436080430813	224.416727623542
6848.862629614236	225.17360365918893
6850.289475995406	225.92902245277992
6851.716619636238	226.68446052463844
6853.144060598662	227.43980239585002
6854.57179894462	228.18919478362727
6855.999834736067	228.9128559856767
6857.428168034971	229.59942817716205
6858.856798903312	230.26597719139977
6860.285727403084	230.92968480487446
6861.7149535962935	231.59357199565227
6863.144477544959	232.26104945190235
6864.5742993111135	232.94989225649755
6866.004418956804	233.67955612798644
6867.434836544087	234.43896071960302
6868.865552135034	235.20546272397743
6870.296565791729	235.97231757679054
6871.72787757627	236.73913208428039
6873.159487550764	237.50412071854518
6874.591395777338	238.2640795366723
6876.023602318125	239.0192104006307
6877.456107235274	239.77281286493437
6878.888910590949	240.52646924587927
6880.322012447323	241.2797756724189
6881.755412866582	242.02466991893647
6883.18911191093	242.73900389150438
6884.623109642579	243.41460677957213
6886.057406123754	244.07194100207602
6887.492001416697	244.72722200900014
6888.926895583659	245.38260217657196
6890.362088686906	246.0368314164739
6891.797580788715	246.68442812346868
6893.233371951381	247.32070053060758
6894.669462237203	247.94977874112848
6896.105851708503	248.5775857778562
6897.542540427609	249.2054115508219
6898.979528456865	249.8198164058303
6900.416815858628	250.3278730753572
6901.854402695265	250.59414287840937
6903.29228902916	250.65403856267744
6904.730474922708	250.65356746575893
6906.168960438317	250.65027362854067
6907.607745638409	250.6500808065314
6909.0468305854165	250.6918228248346
6910.48621534179	250.86530730287234
6911.925899969986	251.18745813290363
6913.365884532479	251.57095112773143
6914.806169091757	251.960075617373
6916.246753710318	252.3503628410577
6917.687638450675	252.7683908556003
6919.128823375352	253.3083820845096
6920.570308546889	254.03017650369932
6922.012094027836	254.85477845247203
6923.454179880759	255.69597435999262
6924.896566168235	256.53721864738657
6926.339252952854	257.35860718094267
6927.782240297219	258.04924988329344
6929.225528263946	258.4789618567516
6930.669116915669	258.7121667894311
6932.113006315028	258.8972816972824
6933.557196524675	259.0809950887703
6935.001687607285	259.27470899121494
6936.446479625538	259.5711289618455
6937.8915726421255	260.14432531898734
6939.33696671976	260.99239597353323
6940.782661921161	261.938147946196
6942.228658309061	262.89085612002015
6943.67495594621	263.8447902117356
6945.121554895365	264.8180632736588
6946.568455219301	265.86367065803853
6948.015656980806	267.0043920547997
6949.463160242676	268.1921316530234
6950.910965067728	269.3860429418541
6952.359071518784	270.5797448354173
6953.807479658683	271.753252355529
6955.256189550279	272.81529854278836
6956.705201256435	273.68194074937065
6958.154514840031	274.4187600947517
6959.604130363956	275.1290924043641
6961.054047891116	275.83904997270105
6962.504267484427	276.54771359513484
6963.954789206819	277.24452956994537
6965.405613121237	277.9131918025273
6966.856739290638	278.55702268552284
6968.30816777799	279.1933699589192
6969.759898646277	279.8294649288811
6971.211931958496	280.46454771419275
6972.6642677776545	281.08330905304206
6974.116906166776	281.64868803859144
6975.569847188894	282.15195205709216
6977.023090907059	282.6286815841651
6978.47663738433	283.10289667258866
6979.930486683786	283.57719370821343
6981.3846388685115	284.051170423019
6982.83909400161	284.5233118018967
6984.293852146194	284.9925613007547
6985.748913365391	285.4601539623374
6987.204277722341	285.92754646256486
6988.659945280201	286.39504474439343
6990.115916102135	286.8637497630239
6991.572190251322	287.3402359069459
6993.028767790958	287.83271712766617
6994.485648784248	288.337666053309
6995.942833294413	288.8458810183481
6997.400321384683	289.3543049362694
6998.858113118305	289.8602833723704
7000.316208558537	290.33841765467855
7001.774607768653	290.73820405681744
7003.23331081194	291.0572288614567
7004.692317751692	291.3462343280692
7006.151628651223	291.63300961580313
7007.6112435738605	291.9196272504902
7009.071162582939	292.20168548992126
7010.5313857418105	292.46543756889383
7011.9919131138395	292.70419188996186
7013.452744762405	292.93021838513073
7014.913880750897	293.1545975862896
7016.375321142722	293.3791053683991
7017.837066001293	293.6077048749732
7019.299115390043	293.8593223942373
7020.761469372417	294.15253350730364
7022.224128011869	294.4743705117651
7023.687091371872	294.8024523409822
7025.150359515908	295.13075001036304
7026.613932507475	295.462306698039
7028.07781041008	295.8227732515003
7029.541993287248	296.2545315170043
7031.0064812025175	296.7514730851861
7032.471274219435	297.269152272866
7033.936372401564	297.78803934683344
7035.401775812481	298.3048015820366
7036.867484515776	298.7875941193852
7038.33349857505	299.1549121893689
7039.79981805392	299.3825239039452
7041.266443016016	299.54732703557937
7042.733373524977	299.70534417723076
7044.200609644461	299.8637572750231
7045.668151438137	300.0340789167338
7047.135998969687	300.26199510717936
7048.604152302806	300.5819487237475
7050.072611501203	300.9575935983023
7051.541376628598	301.34312336199184
7053.010447748729	301.7287736320141
7054.479824925345	302.10727628801266
7055.949508222204	302.4338604304818
7057.419497703085	302.6493695501013
7058.889793431773	302.77534297778794
7060.360395472071	302.8771126009748
