#wavelength (Angstrom)	surface_flux (erg / (Angstrom cm2 s))
6300.0	142.5977782718043
6301.3125	211.70008148262684
6302.6252734375	247.67756327613844
6303.938320369467	249.90878654838792
6305.251640852877	250.61181496563233
6306.565234944722	251.58537022205687
6307.8791027020025	252.63019418178868
6309.193244181732	253.67785627627165
6310.5076594409375	254.74934977871104
6311.822348536654	256.0898452386326
6313.137311525933	258.2006911186356
6314.452548465834	261.11832367246484
6315.768059413431	264.3417100855342
6317.083844425809	267.58947784900994
6318.399903560065	270.828082865124
6319.716236873307	273.8570208091718
6321.032844422655	276.0393904764283
6322.349726265244	277.0477669370099
6323.666882458216	277.44339362340787
6324.984313058728	277.7534015703352
6326.302018123949	278.0663507975393
6327.619997711058	278.54723924720463
6328.938251877249	280.0123556189011
6330.256780679723	283.2984191043746
6331.575584175699	287.863518615679
6332.894662422402	292.7136678867435
6334.214015477073	297.57134197865594
6335.533643396964	302.3292436847938
6336.853546239339	306.16857658683483
6338.173724061472	307.71850978752826
6339.494176920652	307.15423728461604
6340.814904874177	305.9081935813942
6342.135907979359	304.62356430992446
6343.457186293522	303.3865952498575
6344.778739874001	302.8911010558687
6346.100568778142	304.9356580213585
6347.422673063304	310.07806176548536
6348.745052786858	316.62682005242834
6350.067708006189	323.3314920863036
6351.39063877869	330.022757874873
6352.713845161769	336.1963657325658
6354.037327212845	339.78051443542415
6355.3610849893485	339.1384251571369
6356.685118548721	335.88745801090784
6358.009427948419	332.1610598340466
6359.334013245908	328.4304862896561
6360.658874498668	324.99140536712287
6361.984011764189	323.70968087405316
6363.309425099973	327.13455911426905
6364.635114563535	334.4293982925571
6365.961080212403	342.80134776738817
6367.2873221041145	351.2196893799591
6368.61384029622	359.5978154030585
6369.940634846282	367.4496730800569
6371.267705811875	373.71724878046876
6372.595053250586	378.2674173446001
6373.922677220014	382.1448255095849
6375.250577777768	385.968101588206
6376.578754981471	389.7883940612924
6377.907208888761	393.5242816124107
6379.235939557279	396.9061331963226
6380.564947044686	399.7820568602277
6381.894231408654	402.38497935224865
6383.223792706865	404.94778905989705
6384.553630997012	407.5106838982982
6385.883746336804	410.06212620976464
6387.2141387839565	412.53934353862184
6388.544808396204	414.87343235978614
6389.875755231287	417.10393471873476
6391.20697934696	419.31091052813133
6392.53848080099	421.51776856813956
6393.870259651158	423.73525984285226
6395.202315955253	426.05036907937455
6396.534649771077	428.61649441101457
6397.867261156446	431.42277098958397
6399.2001501691875	434.3108605364148
6400.533316867139	437.2046939200909
6401.866761308153	440.0938338898388
6403.200483550093	442.89210073594006
6404.534483650832	445.3607758073315
6405.868761668259	447.4115044142394
6407.2033176602745	449.26528066242724
6408.5381516847865	451.09648183020255
6409.873263799722	452.91895275246037
6411.2086540630135	454.4084902537654
6412.544322532611	454.17697771521085
6413.880269266471	451.0474412102702
6415.216494322568	446.06264162117844
6416.552997758886	440.7169045743107
6417.8897796334195	435.3655633775905
6419.226840004177	430.23525913818565
6420.5641789291785	426.8555215947171
6421.9017964664545	427.45574508190873
6423.239692674053	431.44397509710814
6424.577867610025	436.4149450827798
6425.9163213324455	441.4306403750146
6427.25505389939	446.47204041389705
6428.594065368952	451.8385745647967
6429.933355799238	458.2145995189515
6431.272925248362	465.7251167042801
6432.612773774456	473.70439816298995
6433.9529014356585	481.72839335226496
6435.293308290125	489.7398384667732
6436.63399439602	497.39294114575773
6437.974959811519	503.46453793540604
6439.316204594813	507.18213028150484
6440.657728804104	509.574814211971
6441.999532497605	511.75851246220066
6443.341615733541	513.9407767958756
6444.683978570154	516.1020665723256
6446.026621065689	518.1245131873749
6447.369543278411	519.8706496025327
6448.7127452665945	521.4093599505761
6450.056227088525	522.8976193329776
6451.399988802502	524.3846669667735
6452.744030466836	525.8833078952293
6454.088352139851	527.4973701057974
6455.43295387988	529.4211758664655
6456.777835745272	531.6522967183712
6458.122997794385	533.9927021186443
6459.468440085592	536.3410679885903
6460.814162677278	538.6748771666572
6462.160165627836	540.723534627682
6463.506448995675	541.6922174999673
6464.853012839217	541.2390295559376
6466.199857216891	540.0856130212197
6467.546982187145	538.8437736628309
6468.894387808435	537.5993990424054
6470.242074139227	536.2718644991838
6471.590041238007	534.4968200450317
6472.938289163264	531.942272885905
6474.286817973508	528.8709726119752
6475.6356277272525	525.6935128835769
6476.984718483029	522.5138784349354
6478.334090299379	519.4598993674264
6479.683743234858	517.472152764416
6481.033677348033	518.008611480382
6482.38389269748	520.7682506503014
6483.734389341793	524.2005885267873
6485.085167339573	527.6662554573016
6486.436226749436	531.1488080717412
6487.787567630007	534.8585211333541
6489.139190039932	539.3030621306965
6490.491094037857	544.6040084022264
6491.843279682447	550.2746243776468
6493.195747032382	555.9833475920018
6494.548496146348	561.6847337990639
6495.901527083045	567.136390647105
6497.254839901187	571.4254286644535
6498.6084346595	573.9241312133124
6499.962311416722	575.3848248744114
6501.316470231601	576.6756840344918
6502.670911162898	577.9663745582798
6504.025634269391	579.3296452334997
6505.3806396098635	581.182589691334
6506.735927243117	584.0405109308861
6508.091497227958	587.679356001612
6509.447349623215	591.5196987181207
6510.80348448772	595.3678105244502
6512.159901880322	599.1733007317076
6513.51660185988	602.4869461842542
6514.873584485267	604.4034373157833
6516.23084981537	604.875729132369
6517.58839790908	604.8130978957518
6518.946228825313	604.711369998873
6520.304342622985	604.6115147711467
6521.662739361031	604.5496918788205
6523.021419098398	604.6373074574816
6524.380381894044	604.9285965688161
6525.739627806938	605.3245109643319
6527.099156896065	605.7347846291766
6528.458969220418	606.1433240386025
6529.819064839006	606.4596696253908
6531.179443810848	606.246390990064
6532.540106194976	605.071535251465
6533.9010520504335	603.2356939462094
6535.262281436278	601.2579867638904
6536.6237944115765	599.2775680643092
6537.985591035413	597.461753869846
6539.347671366879	597.0902079458187
6540.71003546508	600.239125136601
6542.072683389135	606.5876684369629
6543.435615198176	613.9520936626604
6544.798830951341	621.3739286064347
6546.162330707791	628.7741278513308
6547.526114526688	635.8227971470443
6548.890182467215	641.6783401670831
6550.254534588562	646.0965055979493
6551.619170949934	649.8740392888018
6552.984091610549	653.584607807289
6554.349296629635	657.288365364491
6555.7147860664345	660.7545299454309
6557.080559980198	663.0693027351066
6558.446618430195	663.5419493887316
6559.8129614757	662.8962679017177
6561.1795891760075	662.0506840098564
6562.54650159042	661.2019366335215
6563.913698778251	660.3041066157854
6565.281180798831	659.0515771999302
6566.648947711497	657.0365313134527
6568.016999575604	654.4038159453906
6569.385336450516	651.6029867400285
6570.753958395609	648.7951010444
6572.122865470276	646.0800813410583
6573.492057733915	644.470049572836
6574.861535245943	646.0872608960284
6576.231298065786	651.13373491496
6577.601346252884	657.5004318851334
6578.971679866686	663.9743117530727
6580.342298966659	670.4476522938223
6581.7132036122775	676.8806469138739
6583.08439386303	683.1433262898925
6584.455869778419	689.1645505346947
6585.827631417956	695.0574108580028
6587.199678841168	700.9326686363682
6588.572012107595	706.8073628022844
6589.944631276783	712.5840667294491
6591.3175364083	717.7603652777049
6592.690727561718	721.802694349736
6594.064204796627	725.0359984320125
6595.437968172626	728.0864856494395
6596.812017749329	731.1328413612871
6598.18635358636	734.1046188947744
6599.5609757433585	736.377085076315
6600.935884279972	736.8725221956121
6602.311079255864	735.6902783233874
6603.686560730708	733.9485294644483
6605.062328764195	732.1723711936713
6606.43838341602	730.407678733006
6607.814724745898	728.8445764750159
6609.191352813554	728.0007941797536
6610.568267678725	728.0576605779885
6611.9454694011565	728.5330549533121
6613.322958040616	729.055858793308
6614.700733656875	729.5735496751347
6616.07879630972	729.9119704971719
6617.457146058951	729.3487794882913
6618.835782964381	727.295913035123
6620.214707085831	724.3065937043008
6621.593918483141	721.1398479053804
6622.973417216159	717.9698127700035
6624.353203344746	714.8070507347767
6625.733276928776	711.7055137172963
6627.113638028136	708.7419215174292
6628.494286702727	705.8935218997406
6629.8752230124555	703.0770657731159
6631.25644701725	700.2613415293996
6632.637958777046	697.5751058576299
6634.019758351792	696.5243814632129
6635.401845801448	700.4559044667026
6636.784221185991	709.8961546182303
6638.166884565405	721.5692225151838
6639.54983599969	733.4443813676122
6640.933075548856	745.2963966969303
6642.316603272929	756.5054810197944
6643.700419231944	764.914300661207
6645.084523485952	769.2169294542961
6646.468916095012	771.2537710950694
6647.853597119198	772.94721111634
6649.238566618597	774.6352763955788
6650.623824653309	776.0840046214961
6652.009371283446	776.022137980274
6653.39520656913	773.0141564678869
6654.781330570499	767.8270109624204
6656.167743347702	762.1158357778087
6657.554444960899	756.3881090533702
6658.941435470266	750.7049831942142
6660.328714935989	745.4805686809542
6661.716283418268	741.4736131822356
6663.104140977314	738.6555853452084
6664.492287673351	736.2489550905805
6665.880723566617	733.8684464988673
6667.269448717359	731.4794807488339
6668.658463185843	728.9475258113522
6670.04776703234	725.8897308615067
6671.437360317139	722.1516974700835
6672.827243100539	718.0834980711297
6674.21741544285	713.9737310709288
6675.607877404403	709.8500809861818
6676.998629045529	705.2195402474359
6678.389670426579	697.9065294886036
6679.781001607919	685.994853818431
6681.17262264992	671.0897491159441
6682.564533612973	655.5890843363521
6683.956734557476	640.0732989256796
6685.349225543842	624.2049698270598
6686.742006632498	605.5040193423782
6688.135077883879	580.2583779457922
6689.528439358438	549.3470001436931
6690.9220911166385	516.7468580793525
6692.316033218955	484.0592604103316
6693.710265725876	451.19890737266047
6695.104788697902	416.0769433938674
6696.4996021955485	373.78272526112494
6697.894706279339	323.28114020864297
6699.290101009814	269.31735900786987
6700.685786447524	215.012710624861
6702.081762653035	160.84151852615895
6703.478029686921	110.62254303861249
6704.874587609773	78.30144874319058
6706.27143648219	73.1085727257787
6707.668576364793	83.4659682186374
6709.066007318201	96.35597155748884
6710.46372940306	109.28482464146421
6711.861742680019	123.22882759666335
6713.260047209744	143.89055408645223
6714.658643052912	178.1372804027984
6716.0575302702155	222.7869888725811
6717.4567089223565	270.0634625034026
6718.856179070049	317.43573237443064
6720.255940774021	364.7477642960329
6721.6559940950165	411.3124892677342
6723.056339093787	455.7990115251632
6724.456975831098	498.1877442450026
6725.85790436773	539.8258307144912
6727.259124764472	581.4192678167312
6728.660637082132	622.9204806866991
6730.062441381524	662.4925477281665
6731.464537723479	694.636164050465
6732.866926168839	716.8375667107134
6734.269606778457	734.0368183278348
6735.672579613203	750.5789571075995
6737.075844733956	767.1104997275568
6738.4794022016085	783.0763164063632
6739.883252077068	795.8208375798399
6741.2873944212515	802.794093153492
6742.691829295089	805.8618383901581
6744.096556759525	808.1139381355714
6745.5015768755175	810.3519083895292
6746.906889704033	812.855839888584
6748.312495306054	817.6128268848839
6749.718393742578	827.7571848681822
6751.124585074607	842.7208802166851
6752.531069363165	859.1865565714954
6753.937846669282	875.7353797766976
6755.344917054005	892.2748440921506
6756.752280578391	908.6243967597703
6758.159937303512	924.3337879861143
6759.567887290451	939.2857031520646
6760.976130600304	953.9101109664905
6762.384667294178	968.5046360618868
6763.793497433198	983.0702772257371
6765.202621078498	996.6932186472255
6766.612038291223	1005.8554034911793
6768.021749132533	1007.9964636863446
6769.431753663604	1005.9389687184517
6770.842051945616	1003.1459747098278
6772.252644039771	1000.3433045837833
6773.66353000728	997.516426015966
6775.074709909365	994.5203753689173
6776.486183807264	991.1672815565929
6777.897951762223	987.5304930876761
6779.310013835508	983.8185558838783
6780.722370088391	980.1032341469561
6782.135020582158	976.4711594249677
6783.547965378113	973.7910807239346
6784.961204537568	973.8349181038005
6786.374738121846	976.7299645723463
6787.788566192289	980.7064043402571
6789.2026888102455	984.7690896953723
6790.617106037082	988.829544371824
6792.031817934173	992.8245235963761
6793.446824562909	996.5521977652261
6794.862125984693	999.9082473810365
6796.27772226094	1003.070587936268
6797.693613453079	1006.2065529907308
6799.109799622548	1009.3381598423343
6800.5262808308025	1012.2132283957585
6801.9430571393095	1013.5771760895932
6803.360128609546	1012.1433164177664
6804.777495303007	1008.7430250452544
6806.195157281196	1004.903642177764
6807.6131146056305	1001.052906553334
6809.031367337839	997.2772657206517
6810.449915539369	994.197897972042
6811.868759271772	992.8670368745055
6813.287898596622	993.165040990144
6814.707333575495	993.9952401379625
6816.12706426999	994.8563866077917
6817.547090741715	995.8114463151261
6818.967413052284	998.2713804189656
6820.388031263337	1005.9466922740866
6821.808945436517	1020.0289734569109
6823.230155633484	1037.0399102612846
6824.651661915907	1054.3795400244226
6826.073464345473	1071.6827212323242
6827.49556298388	1087.6548681515835
6828.917957892834	1097.039553064335
6830.340649134063	1095.7024819388057
6831.763636769299	1087.739064318507
6833.186920860294	1078.557687457434
6834.610501468806	1069.3585940760843
6836.034378656611	1060.2525598886955
6837.458552485498	1051.853109543348
6838.883023017267	1044.9973511099874
6840.307790313729	1039.4055772669917
6841.732854436711	1034.1608730544617
6843.158215448053	1028.9291165489171
6844.583873409604	1023.9121720622893
6846.009828383232	1021.5166730018336
6847.436080430813	1026.9397152669485
6848.862629614236	1040.8480288205476
6850.289475995406	1058.1178632080296
6851.716619636238	1075.6785089873622
6853.144060598662	1093.1873856024533
6854.57179894462	1109.3650918684323
6855.999834736067	1119.8877901392616
6857.428168034971	1122.2729112273043
6858.856798903312	1120.2506526334735
6860.285727403084	1117.5765544268143
6861.7149535962935	1114.8981869632564
6863.144477544959	1112.2243298662258
6864.5742993111135	1109.5810813758133
6866.004418956804	1106.997007338003
6867.434836544087	1104.45583879199
6868.865552135034	1101.9243293734537
6870.296565791729	1099.3927252372646
6871.72787757627	1097.1222523079714
6873.159487550764	1097.447701685692
6874.591395777338	1104.5585771174353
6876.023602318125	1118.190968293872
6877.456107235274	1134.0304371299
6878.888910590949	1150.0079979071713
6880.322012447323	1165.86585879126
6881.755412866582	1179.6475033360311
6883.18911191093	1185.9781119759791
6884.623109642579	1182.8748172839123
6886.057406123754	1175.3033513550354
6887.492001416697	1167.1988085723715
6888.926895583659	1159.0764262816376
6890.362088686906	1150.35703627487
6891.797580788715	1138.505966368575
6893.233371951381	1121.3537604433209
6894.669462237203	1100.8101379304749
6896.105851708503	1079.6138526358307
6897.542540427609	1058.4071988481976
6898.979528456865	1037.7087931426545
6900.416815858628	1021.0341067782787
6901.854402695265	1013.5068327066914
6903.29228902916	1013.787294363733
6904.730474922708	1016.35198302904
6906.168960438317	1019.0240074508068
6907.607745638409	1021.734556087794
6909.0468305854165	1024.9589891071832
6910.48621534179	1029.7966305870898
6911.925899969986	1036.454643917019
6913.365884532479	1043.8641046410507
6914.806169091757	1051.343065457003
6916.246753710318	1058.8263101335447
6917.687638450675	1066.3808142876717
6919.128823375352	1074.2440138590734
6920.570308546889	1082.5667027879524
6922.012094027836	1091.149816358113
6923.454179880759	1099.7761010915547
6924.896566168235	1108.401761852608
6926.339252952854	1116.8243640117048
6927.782240297219	1123.909843362422
6929.225528263946	1128.326809069733
6930.669116915669	1130.734117188571
6932.113006315028	1132.6496170131218
6933.557196524675	1134.5506876507256
6935.001687607285	1136.4297259252598
6936.446479625538	1138.0780198692235
6937.8915726421255	1139.103677477165
6939.33696671976	1139.5109811058232
6940.782661921161	1139.6988531445888
6942.228658309061	1139.8715471097864
6943.67495594621	1140.0815567922539
6945.121554895365	1140.9860982385917
6946.568455219301	1144.5080637370688
6948.015656980806	1151.4739945426381
6949.463160242676	1160.1387713010083
6950.910965067728	1169.0203096863504
6952.359071518784	1177.9016457255022
6953.807479658683	1186.6719836344244
6955.256189550279	1194.827517798311
6956.705201256435	1201.904873773189
6958.154514840031	1208.2660681315467
6959.604130363956	1214.4815284276556
6961.054047891116	1220.6947076789913
6962.504267484427	1226.769761095956
6963.954789206819	1231.6861943150977
6965.405613121237	1233.8672845433132
6966.856739290638	1233.6342882843248
6968.30816777799	1232.6646449511713
6969.759898646277	1231.6575839916493
6971.211931958496	1230.6516178579495
6972.6642677776545	1229.6641946445277
6974.116906166776	1228.7375529960257
6975.569847188894	1227.881645540498
6977.023090907059	1227.0559208698992
6978.47663738433	1226.2330030965984
6979.930486683786	1225.4090939754626
6981.3846388685115	1224.561957367587
6982.83909400161	1223.6082534766717
6984.293852146194	1222.4898622932121
6985.748913365391	1221.2747204283978
6987.204277722341	1220.0429561883527
6988.659945280201	1218.8135535525864
6990.115916102135	1217.8519865596932
6991.572190251322	1218.7470664199614
6993.028767790958	1223.4838334676276
6994.485648784248	1231.2098315295232
6995.942833294413	1239.7013119524663
6997.400321384683	1248.2199857611104
6998.858113118305	1256.705272882321
7000.316208558537	1264.8071491075093
7001.774607768653	1271.8296123575944
7003.23331081194	1277.7393987677453
7004.692317751692	1283.2357978216417
7006.151628651223	1288.701777650074
7007.6112435738605	1294.1401606618074
7009.071162582939	1298.96912501745
7010.5313857418105	1301.3716276876403
7011.9919131138395	1300.4631747382584
7013.452744762405	1297.8655991952357
7014.913880750897	1295.0435196787512
7016.375321142722	1292.2177262651517
7017.837066001293	1289.274582714372
7019.299115390043	1285.66776366928
7020.761469372417	1280.861067271347
7022.224128011869	1275.2288188832235
7023.687091371872	1269.417069681119
7025.150359515908	1263.6003088021698
7026.613932507475	1257.8857643490323
7028.07781041008	1253.1049415827804
7029.541993287248	1250.631703119806
7031.0064812025175	1250.2680361157786
7032.471274219435	1250.573174534637
7033.936372401564	1250.9140356535813
7035.401775812481	1251.311577410507
7036.867484515776	1252.573133012989
7038.33349857505	1256.7650164563693
7039.79981805392	1264.5015564880482
7041.266443016016	1273.8332371277024
7042.733373524977	1283.3397710968873
7044.200609644461	1292.822008200362
7045.668151438137	1301.4606180424003
7047.135998969687	1306.0025110194842
7048.604152302806	1303.9951689773907
7050.072611501203	1298.0266364634242
7051.541376628598	1291.3585754559938
7053.010447748729	1284.685313585289
7054.479824925345	1278.42735544623
7055.949508222204	1275.1657578565203
7057.419497703085	1278.3109124693947
7058.889793431773	1286.6210709014433
7060.360395472071	1296.3298304017999
7061.831303887795	1306.0953706534724
7063.302518742772	1315.8179160449422
