#wavelength (Angstrom)	surface_flux (erg / (Angstrom cm2 s))
6300.0	1.3352109653323123
6301.3125	1.9914604395658129
6302.6252734375	2.350232473445904
6303.938320369467	2.3959670339446086
6305.251640852877	2.4249468964743426
6306.565234944722	2.454386441805466
6307.8791027020025	2.4839513550063415
6309.193244181732	2.5135268058342692
6310.5076594409375	2.543127281615397
6311.822348536654	2.572948638509324
6313.137311525933	2.603391380831782
6314.452548465834	2.634484616992581
6315.768059413431	2.665828097325921
6317.083844425809	2.6971970481741154
6318.399903560065	2.728577779696153
6319.716236873307	2.7600771844088983
6321.032844422655	2.79203480291302
6322.349726265244	2.824625190538159
6323.666882458216	2.857549143575417
6324.984313058728	2.8905256440167015
6326.302018123949	2.923510208044383
6327.619997711058	2.9565509942550476
6328.938251877249	2.9898879707348365
6330.256780679723	3.023767111581879
6331.575584175699	3.0580291111127735
6332.894662422402	3.09238176584548
6334.214015477073	3.126743615258075
6335.533643396964	3.1611355213905568
6336.853546239339	3.195743514541814
6338.173724061472	3.2308790460464
6339.494176920652	3.2665023137493674
6340.814904874177	3.302287873190295
6342.135907979359	3.3380895955395555
6343.457186293522	3.3739162426835274
6344.778739874001	3.410020659578664
6346.100568778142	3.447058293905184
6347.422673063304	3.48523242188784
6348.745052786858	3.5239266231007056
6350.067708006189	3.5626852072767017
6351.39063877869	3.6014543464653253
6352.713845161769	3.6403153417034564
6354.037327212845	3.6796026000498068
6355.3610849893485	3.7195803124605002
6356.685118548721	3.7599874257702512
6358.009427948419	3.8004795862735956
6359.334013245908	3.840981606122984
6360.658874498668	3.8815407794404035
6361.984011764189	3.9224681102723316
6363.309425099973	3.9641885088901163
6364.635114563535	4.006562525589782
6365.961080212403	4.0491246496923345
6367.2873221041145	4.091703082831647
6368.61384029622	4.134294515950698
6369.940634846282	4.176946774851402
6371.267705811875	4.219763961963458
6372.595053250586	4.262759177683132
6373.922677220014	4.30582963855422
6375.250577777768	4.348914478106967
6376.578754981471	4.392019205210012
6377.907208888761	4.435378969017146
6379.235939557279	4.479772455565133
6380.564947044686	4.525638325096029
6381.894231408654	4.57230389681492
6383.223792706865	4.619096600716329
6384.553630997012	4.66590092697889
6385.883746336804	4.712787072114886
6387.2141387839565	4.760132454870866
6388.544808396204	4.808351356719644
6389.875755231287	4.857206035919669
6391.20697934696	4.906215139214862
6392.53848080099	4.955238089808715
6393.870259651158	5.004280029890441
6395.202315955253	5.053416000806756
6396.534649771077	5.102778336934815
6397.867261156446	5.1523576675249805
6399.2001501691875	5.202017400572469
6400.533316867139	5.251691915389491
6401.866761308153	5.301392839358979
6403.200483550093	5.351381503243912
6404.534483650832	5.402381791341884
6405.868761668259	5.454661629738669
6407.2033176602745	5.507550886476701
6408.5381516847865	5.560520788772612
6409.873263799722	5.613503773757991
6411.2086540630135	5.6665703581615725
6412.544322532611	5.720022733238688
6413.880269266471	5.774117125097165
6415.216494322568	5.828626530050389
6416.552997758886	5.883225640083688
6417.8897796334195	5.937837785692535
6419.226840004177	5.992516444024166
6420.5641789291785	6.047641226880542
6421.9017964664545	6.103765443350682
6423.239692674053	6.16074218045967
6424.577867610025	6.217974484779658
6425.9163213324455	6.275229555709561
6427.25505389939	6.332507065818425
6428.594065368952	6.389934646777344
6429.933355799238	6.447804002332273
6431.272925248362	6.506168415696515
6432.612773774456	6.5647441282520385
6433.9529014356585	6.623350394349853
6435.293308290125	6.6819745209367145
6436.63399439602	6.740753550344838
6437.974959811519	6.80017228238408
6439.316204594813	6.8605368971977
6440.657728804104	6.921439518378302
6441.999532497605	6.982437856023873
6443.341615733541	7.043450688489175
6444.683978570154	7.104560116738591
6446.026621065689	7.16622754149292
6447.369543278411	7.228991081719437
6448.7127452665945	7.292581092887357
6450.056227088525	7.356383097591731
6451.399988802502	7.420204443377824
6452.744030466836	7.484043771345591
6454.088352139851	7.547944204306965
6455.43295387988	7.611986447617432
6456.777835745272	7.676169495480938
6458.122997794385	7.740411107967586
6459.468440085592	7.8046692076347295
6460.814162677278	7.868947895972881
6462.160165627836	7.933376693074063
6463.506448995675	7.998336034771783
6464.853012839217	8.063989568674538
6466.199857216891	8.129991891717147
6467.546982187145	8.196050172815458
6468.894387808435	8.262127798437628
6470.242074139227	8.32844054908452
6471.590041238007	8.395961303652356
6472.938289163264	8.465576541858665
6474.286817973508	8.536584680530632
6475.6356277272525	8.607889367771223
6476.984718483029	8.679214684890361
6478.334090299379	8.750662726287608
6479.683743234858	8.823036669317208
6481.033677348033	8.897581504029787
6482.38389269748	8.974040183585108
6483.734389341793	9.051088729508162
6485.085167339573	9.128181176825024
6486.436226749436	9.205318310874066
6487.787567630007	9.282872530645628
6489.139190039932	9.36174291665138
6490.491094037857	9.442144785028411
6491.843279682447	9.523216131784398
6493.195747032382	9.604369763980518
6494.548496146348	9.685545674699766
6495.901527083045	9.766895563200128
6497.254839901187	9.848990872834968
6498.6084346595	9.93222453786884
6499.962311416722	10.016125629547718
6501.316470231601	10.100150702088285
6502.670911162898	10.184193019765692
6504.025634269391	10.268164916547418
6505.3806396098635	10.351559214785997
6506.735927243117	10.433749315299695
6508.091497227958	10.515007667781315
6509.447349623215	10.596038851951098
6510.80348448772	10.677078408619163
6512.159901880322	10.75809592389242
6513.51660185988	10.838688717557124
6514.873584485267	10.918045273589012
6516.23084981537	10.99612342422984
6517.58839790908	11.07373824798739
6518.946228825313	11.15133420696453
6520.304342622985	11.229014120590936
6521.662739361031	11.30807228976346
6523.021419098398	11.392496383923008
6524.380381894044	11.484227693813413
6525.739627806938	11.579720894670986
6527.099156896065	11.675745012596408
6528.458969220418	11.771785848900501
6529.819064839006	11.867575198848334
6531.179443810848	11.961826097794495
6532.540106194976	12.053267696560997
6533.9010520504335	12.142784372926583
6535.262281436278	12.231903438711736
6536.6237944115765	12.321032662350909
6537.985591035413	12.410235737386671
6539.347671366879	12.4999413712255
6540.71003546508	12.590845119236299
6542.072683389135	12.682839500867058
6543.435615198176	12.775192938165867
6544.798830951341	12.867584334749134
6546.162330707791	12.960026283529864
6547.526114526688	13.05296426580748
6548.890182467215	13.147534746214065
6550.254534588562	13.2440675570154
6551.619170949934	13.341486806897587
6552.984091610549	13.439017842437265
6554.349296629635	13.536573788087608
6555.7147860664345	13.634293973744724
6557.080559980198	13.73273012215617
6558.446618430195	13.832299277877492
6559.8129614757	13.93256444238733
6561.1795891760075	14.032971108041401
6562.54650159042	14.133397972895619
6563.913698778251	14.233614128795677
6565.281180798831	14.332172096463983
6566.648947711497	14.427140348222629
6568.016999575604	14.519204923205347
6569.385336450516	14.610495043358378
6570.753958395609	14.70177352447855
6572.122865470276	14.793216194955209
6573.492057733915	14.886395357030377
6574.861535245943	14.984607868304147
6576.231298065786	15.088167563728094
6577.601346252884	15.193798123706083
6578.971679866686	15.299615134639534
6580.342298966659	15.40547963078735
6581.7132036122775	15.511926019309614
6583.08439386303	15.620699421599234
6584.455869778419	15.732755049451747
6585.827631417956	15.846574422591054
6587.199678841168	15.960670343679487
6588.572012107595	16.07478673905105
6589.944631276783	16.188652818505116
6591.3175364083	16.300880608202398
6592.690727561718	16.409996081811066
6594.064204796627	16.516896939121064
6595.437968172626	16.623313154468
6596.812017749329	16.729739100872145
6598.18635358636	16.836215956842082
6599.5609757433585	16.942982426489188
6600.935884279972	17.050450291275023
6602.311079255864	17.158581596738333
6603.686560730708	17.266949112365314
6605.062328764195	17.375352213150233
6606.43838341602	17.483816041103026
6607.814724745898	17.592953312028897
6609.191352813554	17.704432510348333
6610.568267678725	17.81883800623434
6611.9454694011565	17.934616081890496
6613.322958040616	18.05057074453373
6614.700733656875	18.166546811667082
6616.07879630972	18.282448484306624
6617.457146058951	18.39787888894559
6618.835782964381	18.512514928952054
6620.214707085831	18.626660568158766
6621.593918483141	18.740732845892683
6622.973417216159	18.85482741833208
6624.353203344746	18.96894574266853
6625.733276928776	19.083087702768964
6627.113638028136	19.1972531314014
6628.494286702727	19.311442084554937
6629.8752230124555	19.425654754050935
6631.25644701725	19.539891214893643
6632.637958777046	19.654197891078493
6634.019758351792	19.769112197349088
6635.401845801448	19.88582838935933
6636.784221185991	20.004534341371087
6638.166884565405	20.12406108155814
6639.54983599969	20.243683969570128
6640.933075548856	20.363321016972783
6642.316603272929	20.48271186039717
6643.700419231944	20.600950223153948
6645.084523485952	20.717487499253018
6646.468916095012	20.833096835128494
6647.853597119198	20.948585817260472
6649.238566618597	21.064092420879135
6650.623824653309	21.17926440716151
6652.009371283446	21.29219941251155
6653.39520656913	21.40074926383595
6654.781330570499	21.506061666516477
6656.167743347702	21.61061344437267
6657.554444960899	21.71516342845066
6658.941435470266	21.81942877755049
6660.328714935989	21.920638612429585
6661.716283418268	22.01371602910192
6663.104140977314	22.09885193847111
6664.492287673351	22.181248926516716
6665.880723566617	22.263484941383705
6667.269448717359	22.34557077957343
6668.658463185843	22.424679186139535
6670.04776703234	22.492764357287147
6671.437360317139	22.546581535326435
6672.827243100539	22.593487680593675
6674.21741544285	22.63954784470451
6675.607877404403	22.68548593292734
6676.998629045529	22.72636658888926
6678.389670426579	22.740405272885546
6679.781001607919	22.708414717678384
6681.17262264992	22.646468498699786
6682.564533612973	22.57857699662656
6683.956734557476	22.510533334736525
6685.349225543842	22.435512163422707
6686.742006632498	22.304074463064254
6688.135077883879	22.042222112101236
6689.528439358438	21.66747661169305
6690.9220911166385	21.259116797185325
6692.316033218955	20.84906388293042
6693.710265725876	20.42648897132836
6695.104788697902	19.8348455420888
6696.4996021955485	18.70611180986098
6697.894706279339	16.962712661093157
6699.290101009814	14.960268937436817
6700.685786447524	12.932704734324327
6702.081762653035	10.911201096076603
6703.478029686921	9.066766995713971
6704.874587609773	8.023907088222682
6706.27143648219	8.195967652410662
6707.668576364793	9.064473490298381
6709.066007318201	10.046477046105506
6710.46372940306	11.029844907834411
6711.861742680019	12.024318850385866
6713.260047209744	13.091299055477824
6714.658643052912	14.304726167193648
6716.0575302702155	15.630339139793293
6717.4567089223565	16.984410752698015
6718.856179070049	18.339689692245017
6720.255940774021	19.687989173537773
6721.6559940950165	20.958141385529355
6723.056339093787	22.012289956696193
6724.456975831098	22.84840590016739
6725.85790436773	23.606028221853105
6727.259124764472	24.35828500337303
6728.660637082132	25.109125213111746
6730.062441381524	25.829903525360674
6731.464537723479	26.43486266199792
6732.866926168839	26.884802495227586
6734.269606778457	27.256759374082993
6735.672579613203	27.618490715480927
6737.075844733956	27.980175375049544
6738.4794022016085	28.337812261942226
6739.883252077068	28.67216417911883
6741.2873944212515	28.964758902597662
6742.691829295089	29.22911215778553
6744.096556759525	29.487607240485605
6745.5015768755175	29.746037051743656
6746.906889704033	30.003616737065578
6748.312495306054	30.253580588932536
6749.718393742578	30.48525680606175
6751.124585074607	30.70057945818605
6752.531069363165	30.910843592851762
6753.937846669282	31.12088011024708
6755.344917054005	31.33083567296682
6756.752280578391	31.53895203229414
6758.159937303512	31.740844587824764
6759.567887290451	31.935370913672962
6760.976130600304	32.12671811412651
6762.384667294178	32.31778450627531
6763.793497433198	32.508871095993364
6765.202621078498	32.699416627043156
6766.612038291223	32.88726032278249
6768.021749132533	33.070829617387
6769.431753663604	33.25185813616124
6770.842051945616	33.43247289023092
6772.252644039771	33.61311810256014
6773.66353000728	33.793617901646556
6775.074709909365	33.9728490895863
6776.486183807264	34.14935601315272
6777.897951762223	34.32370699975983
6779.310013835508	34.497517912850135
6780.722370088391	34.67134471492396
6782.135020582158	34.84521900119049
6783.547965378113	35.01925731004003
6784.961204537568	35.19369732793674
6786.374738121846	35.368556137069966
6787.788566192289	35.54359634835895
6789.2026888102455	35.71868448389805
6790.617106037082	35.893800473761615
6792.031817934173	36.068767104646035
6793.446824562909	36.24301882980914
6794.862125984693	36.416263339017384
6796.27772226094	36.58899918267147
6797.693613453079	36.76169525914144
6799.109799622548	36.9344228964155
6800.5262808308025	37.106970924472755
6801.9430571393095	37.278287677237934
6803.360128609546	37.447294577021594
6804.777495303007	37.61468854485549
6806.195157281196	37.78174990494058
6807.6131146056305	37.94883717351111
6809.031367337839	38.11600536938641
6810.449915539369	38.283631947677705
6811.868759271772	38.45235628646392
6813.287898596622	38.62210569512676
6814.707333575495	38.79221380921432
6816.12706426999	38.962376061978105
6817.547090741715	39.13257943136489
6818.967413052284	39.302909216508766
6820.388031263337	39.473589722423895
6821.808945436517	39.64469298754792
6823.230155633484	39.81600875730352
6824.651661915907	39.98737987290599
6826.073464345473	40.15877825039476
6827.49556298388	40.329933771891895
6828.917957892834	40.49974933052155
6830.340649134063	40.667362029589064
6831.763636769299	40.83362666445729
6833.186920860294	40.99967207333772
6834.610501468806	41.16574881845173
6836.034378656611	41.33188542248314
6837.458552485498	41.498245064902015
6838.883023017267	41.66505038906223
6840.307790313729	41.83222701172337
6841.732854436711	41.9995310788177
6843.158215448053	42.16687371181859
6844.583873409604	42.33420916302885
6846.009828383232	42.501068770612555
6847.436080430813	42.6664404566491
6848.862629614236	42.83019438902304
6850.289475995406	42.99332837676881
6851.716619636238	43.1564404186614
6853.144060598662	43.319581610379785
6854.57179894462	43.48264042796642
6855.999834736067	43.64523995074509
6857.428168034971	43.80716376940261
6858.856798903312	43.96873706845978
6860.285727403084	44.13028724163441
6861.7149535962935	44.29187508479113
6863.144477544959	44.45375217476337
6864.5742993111135	44.61723458298076
6866.004418956804	44.783762815083904
6867.434836544087	44.95251648744567
6868.865552135034	45.12181909521559
6870.296565791729	45.291171163756985
6871.72787757627	45.46034653491834
6873.159487550764	45.62745371773041
6874.591395777338	45.78909865181347
6876.023602318125	45.9454951476638
6877.456107235274	46.10013849400189
6878.888910590949	46.25470485782821
6880.322012447323	46.409309641164484
6881.755412866582	46.564051738200455
6883.18911191093	46.71920281308623
6884.623109642579	46.87486309187425
6886.057406123754	47.03078160025398
6887.492001416697	47.186759455026035
6888.926895583659	47.342757622195506
6890.362088686906	47.49829940612888
6891.797580788715	47.65130329969562
6893.233371951381	47.79998771717886
6894.669462237203	47.94592095841816
6896.105851708503	48.09135213982241
6897.542540427609	48.23680259001056
6898.979528456865	48.38179664179177
6900.416815858628	48.522996881183985
6901.854402695265	48.65553912579666
6903.29228902916	48.780695205635
6904.730474922708	48.903708879810004
6906.168960438317	49.02664661172572
6907.607745638409	49.14818534108015
6909.0468305854165	49.25048865816027
6910.48621534179	49.29230783818168
6911.925899969986	49.26586972565801
6913.365884532479	49.21128241299492
6914.806169091757	49.15413387230152
6916.246753710318	49.09740123993656
6917.687638450675	49.05159650162353
6919.128823375352	49.053985940466674
6920.570308546889	49.12823709853287
6922.012094027836	49.24310607298921
6923.454179880759	49.36449417612824
6924.896566168235	49.486004824906296
6926.339252952854	49.61044943897818
6927.782240297219	49.75393008435953
6929.225528263946	49.93535057703384
6930.669116915669	50.14535613385815
6932.113006315028	50.36239552223271
6933.557196524675	50.57969022817244
6935.001687607285	50.79680707762432
6936.446479625538	51.01166973501654
6937.8915726421255	51.22037952176673
6939.33696671976	51.422979048963676
6940.782661921161	51.623436953287765
6942.228658309061	51.82378523316355
6943.67495594621	52.02405223002311
6945.121554895365	52.22206915682974
6946.568455219301	52.411490527857424
6948.015656980806	52.58958878722505
6949.463160242676	52.76212279205695
6950.910965067728	52.933983390739975
6952.359071518784	53.105899958408116
6953.807479658683	53.27880275288534
6955.256189550279	53.456934842734704
6956.705201256435	53.64419878464115
6958.154514840031	53.837545680737705
6959.604130363956	54.03217139299965
6961.054047891116	54.22685954268401
6962.504267484427	54.42119610264917
6963.954789206819	54.61231071835829
6965.405613121237	54.79576852190722
6966.856739290638	54.97247312475005
6968.30816777799	55.14714269757538
6969.759898646277	55.32174398288155
6971.211931958496	55.49586513618449
6972.6642677776545	55.66259839127132
6974.116906166776	55.80522132369739
6975.569847188894	55.919793646387575
6977.023090907059	56.0223697819523
6978.47663738433	56.123787922279874
6979.930486683786	56.22524630980751
6981.3846388685115	56.327286110440134
6982.83909400161	56.43193255363314
6984.293852146194	56.54059800715651
6985.748913365391	56.65163155876306
6987.204277722341	56.76308602794904
6988.659945280201	56.874571491821335
6990.115916102135	56.986423742649635
6991.572190251322	57.10067885411794
6993.028767790958	57.219880669336575
6994.485648784248	57.34293676675776
6995.942833294413	57.466997407298024
6997.400321384683	57.59111574196358
6998.858113118305	57.714386265814376
7000.316208558537	57.82811179195298
7001.774607768653	57.91499849125847
7003.23331081194	57.97421984017986
7004.692317751692	58.023151343608134
7006.151628651223	58.07130875085764
7007.6112435738605	58.11945248382865
7009.071162582939	58.16710253669325
7010.5313857418105	58.212759836134694
7011.9919131138395	58.25569466939108
7013.452744762405	58.29724506373318
7014.913880750897	58.33861934327467
7016.375321142722	58.380057155163925
7017.837066001293	58.424093315356465
7019.299115390043	58.48284507093003
7020.761469372417	58.56820513436422
7022.224128011869	58.67187113840605
7023.687091371872	58.77951396081625
7025.150359515908	58.88727117632534
7026.613932507475	58.99603981223049
7028.07781041008	59.11377064962407
7029.541993287248	59.2536004387645
7031.0064812025175	59.41363580683386
7032.471274219435	59.58010029365059
7033.936372401564	59.74694042976192
7035.401775812481	59.91290076514361
7036.867484515776	60.06493840273079
7038.33349857505	60.169670930062665
7039.79981805392	60.21717354151351
7041.266443016016	60.238941729420375
7042.733373524977	60.25792101026818
7044.200609644461	60.277083234808245
7045.668151438137	60.302079714511784
7047.135998969687	60.35533986043101
7048.604152302806	60.45377330231447
7050.072611501203	60.57953599016551
7051.541376628598	60.71013941545715
7053.010447748729	60.84079489470188
7054.479824925345	60.96845650067729
7055.949508222204	61.074411192845425
7057.419497703085	61.13393313031058
7058.889793431773	61.156025176295984
7060.360395472071	61.16799431201971
7061.831303887795	61.17956899192116
