#wavelength (Angstrom)	surface_flux (erg / (Angstrom cm2 s))
6300.0	2.9219127462753822
6301.3125	4.35543954088164
6302.6252734375	5.134351994634479
6303.938320369467	5.226853726196315
6305.251640852877	5.282222534687551
6306.565234944722	5.338267129676318
6307.8791027020025	5.394497990234506
6309.193244181732	5.450746985094464
6310.5076594409375	5.5070450962491435
6311.822348536654	5.563780619455192
6313.137311525933	5.621747576958053
6314.452548465834	5.6810036777150765
6315.768059413431	5.740755404131576
6317.083844425809	5.80055712967585
6318.399903560065	5.860379742667945
6319.716236873307	5.920395005021305
6321.032844422655	5.981148511994327
6322.349726265244	6.042920750300353
6323.666882458216	6.105230941314342
6324.984313058728	6.167627528320669
6326.302018123949	6.230038898800612
6327.619997711058	6.292535770054422
6328.938251877249	6.355470668774858
6330.256780679723	6.419204944812315
6331.575584175699	6.483504570113475
6332.894662422402	6.547940282575983
6334.214015477073	6.612392415653048
6335.533643396964	6.676892793483963
6336.853546239339	6.741724282276307
6338.173724061472	6.807360455380047
6339.494176920652	6.873740792734265
6340.814904874177	6.940370445003516
6342.135907979359	7.007027218642135
6343.457186293522	7.073723678858921
6344.778739874001	7.140833311790974
6346.100568778142	7.209324301201909
6347.422673063304	7.27949691363734
6348.745052786858	7.350440614961255
6350.067708006189	7.421482290803322
6351.39063877869	7.492542797691899
6352.713845161769	7.56375457993895
6354.037327212845	7.635662366462641
6355.3610849893485	7.708696508459495
6356.685118548721	7.7824317666872815
6358.009427948419	7.856307210435296
6359.334013245908	7.930200239656128
6360.658874498668	8.004174425964493
6361.984011764189	8.078649604702722
6363.309425099973	8.154199376942222
6364.635114563535	8.230635495813551
6365.961080212403	8.307329554100782
6367.2873221041145	8.384049636417647
6368.61384029622	8.46079661010251
6369.940634846282	8.537696805633548
6371.267705811875	8.615025208405806
6372.595053250586	8.692816421609821
6373.922677220014	8.770798940816949
6375.250577777768	8.848811985476512
6376.578754981471	8.926856753218722
6377.907208888761	9.005266633675928
6379.235939557279	9.08514563095035
6380.564947044686	9.167115668299749
6381.894231408654	9.250223034914184
6383.223792706865	9.333514177060188
6384.553630997012	9.416825786198809
6385.883746336804	9.500286609841126
6387.2141387839565	9.584587185566683
6388.544808396204	9.670485496204476
6389.875755231287	9.757546561589107
6391.20697934696	9.844889681961904
6392.53848080099	9.93225763521932
6393.870259651158	10.01965215429358
6395.202315955253	10.107144757702384
6396.534649771077	10.194861566045414
6397.867261156446	10.282793650475254
6399.2001501691875	10.370810836275068
6400.533316867139	10.458850586628488
6401.866761308153	10.54693199883752
6403.200483550093	10.635434537127173
6404.534483650832	10.725409313391433
6405.868761668259	10.817245368546228
6407.2033176602745	10.909969642793193
6408.5381516847865	11.00281433594856
6409.873263799722	11.095681371686522
6411.2086540630135	11.188674113601543
6412.544322532611	11.282235508165268
6413.880269266471	11.376741127068813
6415.216494322568	11.471858233573009
6416.552997758886	11.56710999844871
6417.8897796334195	11.662384049097753
6419.226840004177	11.757759877113244
6420.5641789291785	11.85380157047483
6421.9017964664545	11.951331324115255
6423.239692674053	12.050130832070346
6424.577867610025	12.149313046959486
6425.9163213324455	12.2485320373747
6427.25505389939	12.347779681451094
6428.594065368952	12.447152916694835
6429.933355799238	12.546873291853526
6431.272925248362	12.646981277460606
6432.612773774456	12.747261363859169
6433.9529014356585	12.847576278779263
6435.293308290125	12.947920797833195
6436.63399439602	13.048506180928163
6437.974959811519	13.150079758031309
6439.316204594813	13.253113512978238
6440.657728804104	13.35697869577908
6441.999532497605	13.460993507288835
6443.341615733541	13.565032758673231
6444.683978570154	13.669224133805832
6446.026621065689	13.774285155622943
6447.369543278411	13.88105265131968
6448.7127452665945	13.989107298090433
6450.056227088525	14.0974935248151
6451.399988802502	14.205911704494934
6452.744030466836	14.31434153125746
6454.088352139851	14.422682342272045
6455.43295387988	14.530745734959957
6456.777835745272	14.63853406864104
6458.122997794385	14.746239350824455
6459.468440085592	14.853959826188017
6460.814162677278	14.961710644298444
6462.160165627836	15.06963390581941
6463.506448995675	15.178146996024847
6464.853012839217	15.287429457550472
6466.199857216891	15.397102343496158
6467.546982187145	15.506844384719288
6468.894387808435	15.61661913154729
6470.242074139227	15.726809960999498
6471.590041238007	15.839145055348238
6472.938289163264	15.955199120868816
6474.286817973508	16.0737258933449
6475.6356277272525	16.19277785741622
6476.984718483029	16.3118649730502
6478.334090299379	16.431191864055474
6479.683743234858	16.552359194399557
6481.033677348033	16.677848123626248
6482.38389269748	16.807146377985145
6483.734389341793	16.937615378638036
6485.085167339573	17.06816706227183
6486.436226749436	17.19879307900444
6487.787567630007	17.33010661570408
6489.139190039932	17.46358808530071
6490.491094037857	17.599592024341668
6491.843279682447	17.736699069863224
6493.195747032382	17.873942358748497
6494.548496146348	18.011220456557933
6495.901527083045	18.14870856560153
6497.254839901187	18.287066705727334
6498.6084346595	18.426748718511185
6499.962311416722	18.567210682399583
6501.316470231601	18.707824918557833
6502.670911162898	18.84846645546205
6504.025634269391	18.988900425137537
6505.3806396098635	19.12776057433839
6506.735927243117	19.263358948705037
6508.091497227958	19.396429477218952
6509.447349623215	19.528870172977918
6510.80348448772	19.661315538212524
6512.159901880322	19.79368209870508
6513.51660185988	19.924869154845663
6514.873584485267	20.052658485434034
6516.23084981537	20.176934824242615
6517.58839790908	20.299926122514254
6518.946228825313	20.422847279723555
6520.304342622985	20.54593307999444
6521.662739361031	20.671838125426564
6523.021419098398	20.808741101461806
6524.380381894044	20.960623582641514
6525.739627806938	21.120214126758412
6527.099156896065	21.28088602340912
6528.458969220418	21.44158376083902
6529.819064839006	21.60171443851064
6531.179443810848	21.758431327182766
6532.540106194976	21.908923344541783
6533.9010520504335	22.0551467053173
6535.262281436278	22.200479774970308
6536.6237944115765	22.345824267098493
6537.985591035413	22.491254395114048
6539.347671366879	22.63719943477638
6540.71003546508	22.784355862061673
6542.072683389135	22.932616056969778
6543.435615198176	23.08124747826459
6544.798830951341	23.22992860813392
6546.162330707791	23.37869656143853
6547.526114526688	23.528346102897792
6548.890182467215	23.680904753039446
6550.254534588562	23.836960951756527
6551.619170949934	23.994595243557217
6552.984091610549	24.152425599460766
6554.349296629635	24.31029236558986
6555.7147860664345	24.468301932967762
6557.080559980198	24.62687567045931
6558.446618430195	24.786332089637607
6559.8129614757	24.946337446793503
6561.1795891760075	25.106468253404838
6562.54650159042	25.266628752758347
6563.913698778251	25.426322816587504
6565.281180798831	25.582427143805756
6566.648947711497	25.73077397781606
6568.016999575604	25.87284361721411
6569.385336450516	26.013230388521333
6570.753958395609	26.153580255182927
6572.122865470276	26.29426430425718
6573.492057733915	26.4385852297599
6574.861535245943	26.593468236929947
6576.231298065786	26.759572548899502
6577.601346252884	26.93001609703389
6578.971679866686	27.100840577984265
6580.342298966659	27.27173758081573
6581.7132036122775	27.443482819566988
6583.08439386303	27.618609427776565
6584.455869778419	27.79850394487695
6585.827631417956	27.980962219977485
6587.199678841168	28.163825510969772
6588.572012107595	28.346717542156558
6589.944631276783	28.528980774432394
6591.3175364083	28.707238060500096
6592.690727561718	28.877902874782578
6594.064204796627	29.043159447933572
6595.437968172626	29.2072170561945
6596.812017749329	29.37127858251156
6598.18635358636	29.535445917927905
6599.5609757433585	29.70031403982118
6600.935884279972	29.866909329391042
6602.311079255864	30.035137178877097
6603.686560730708	30.203932690766024
6605.062328764195	30.372795792933353
6606.43838341602	30.541762199018333
6607.814724745898	30.711926224337372
6609.191352813554	30.886267797224175
6610.568267678725	31.065830607418675
6611.9454694011565	31.2478396987423
6613.322958040616	31.43015901537595
6614.700733656875	31.612504639373164
6616.07879630972	31.794481954357963
6617.457146058951	31.974454837047638
6618.835782964381	32.15109130921403
6620.214707085831	32.32564444851357
6621.593918483141	32.49983348606675
6622.973417216159	32.674052312564584
6624.353203344746	32.84823221613796
6625.733276928776	33.021861679672355
6627.113638028136	33.19421332154888
6628.494286702727	33.36550286414648
6629.8752230124555	33.53651960648353
6631.25644701725	33.70755947511102
6632.637958777046	33.87869803188837
6634.019758351792	34.05066533922237
6635.401845801448	34.22508375808417
6636.784221185991	34.40220851068182
6638.166884565405	34.58045158473625
6639.54983599969	34.75882857887796
6640.933075548856	34.93720972605049
6642.316603272929	35.11479651532863
6643.700419231944	35.28880948838719
6645.084523485952	35.45756612326424
6646.468916095012	35.62343756620376
6647.853597119198	35.78890058722602
6649.238566618597	35.95438129016641
6650.623824653309	36.11898562752767
6652.009371283446	36.277882701663316
6653.39520656913	36.42561740244007
6654.781330570499	36.56510422543585
6656.167743347702	36.702632850528914
6657.554444960899	36.84013034350453
6658.941435470266	36.97693186712572
6660.328714935989	37.106484827067845
6661.716283418268	37.216783329742874
6663.104140977314	37.30827883747827
6664.492287673351	37.39327444774646
6665.880723566617	37.477866500889945
6667.269448717359	37.562050074167765
6668.658463185843	37.638624705831184
6670.04776703234	37.68709932756368
6671.437360317139	37.69921018111756
6672.827243100539	37.693693976593785
6674.21741544285	37.68599718939278
6675.607877404403	37.67801869774134
6676.998629045529	37.659298322160744
6678.389670426579	37.58366067574213
6679.781001607919	37.41043565425164
6681.17262264992	37.173693446989574
6682.564533612973	36.924327413341075
6683.956734557476	36.6746280523641
6685.349225543842	36.41215976773494
6686.742006632498	36.046633729013976
6688.135077883879	35.442909640776335
6689.528439358438	34.63298642805714
6690.9220911166385	33.761648366024325
6692.316033218955	32.887192109265946
6693.710265725876	31.994263391969717
6695.104788697902	30.85263151134731
6696.4996021955485	28.921052167398155
6697.894706279339	26.085436756876334
6699.290101009814	22.86879166869127
6700.685786447524	19.615145656621554
6702.081762653035	16.370950097284847
6703.478029686921	13.403370861466337
6704.874587609773	11.688066294483574
6706.27143648219	11.87080379361052
6707.668576364793	13.141573931425249
6709.066007318201	14.58964266030204
6710.46372940306	16.03990925984884
6711.861742680019	17.513828186849636
6713.260047209744	19.142917426954373
6714.658643052912	21.085556396187098
6716.0575302702155	23.268358561706993
6717.4567089223565	25.51198179103734
6718.856179070049	27.75805440001334
6720.255940774021	29.994247438670445
6721.6559940950165	32.119152418581464
6723.056339093787	33.93633492706975
6724.456975831098	35.442903831951725
6725.85790436773	36.83769119421099
6727.259124764472	38.224898760150886
6728.660637082132	39.60960229664924
6730.062441381524	40.940948381372046
6731.464537723479	42.06669398329218
6732.866926168839	42.917247969163824
6734.269606778457	43.629371298514066
6735.672579613203	44.32335224421389
6737.075844733956	45.01723051883098
6738.4794022016085	45.70243386063118
6739.883252077068	46.337813298355854
6741.2873944212515	46.883856162078025
6742.691829295089	47.36947300887607
6744.096556759525	47.842542407021334
6745.5015768755175	48.31545543121832
6746.906889704033	48.78650823661189
6748.312495306054	49.24104066020685
6749.718393742578	49.6559286855997
6751.124585074607	50.03536311538953
6752.531069363165	50.40381842906315
6753.937846669282	50.77176237727822
6755.344917054005	51.13948994418091
6756.752280578391	51.502869769499775
6758.159937303512	51.851599357706334
6759.567887290451	52.182994346671734
6760.976130600304	52.50689316465455
6762.384667294178	52.83010597823788
6763.793497433198	53.153331785353046
6765.202621078498	53.47501508189918
6766.612038291223	53.78916736845991
6768.021749132533	54.09143034413081
6769.431753663604	54.38660866064363
6770.842051945616	54.68059721994682
6772.252644039771	54.974626873090614
6773.66353000728	55.26818037083516
6775.074709909365	55.55796009425862
6776.486183807264	55.83969236532101
6777.897951762223	56.11504573225604
6779.310013835508	56.38876421550077
6780.722370088391	56.6624800560795
6782.135020582158	56.93625087398281
6783.547965378113	57.21005551778461
6784.961204537568	57.483850834215616
6786.374738121846	57.75763373421478
6787.788566192289	58.03144734352943
6789.2026888102455	58.30531591651585
6790.617106037082	58.579232916105525
6792.031817934173	58.853020989837624
6793.446824562909	59.12611413749249
6794.862125984693	59.39821981652039
6796.27772226094	59.66983698514806
6797.693613453079	59.94143492555639
6799.109799622548	60.21307941006439
6800.5262808308025	60.484269933926605
6801.9430571393095	60.7525160175237
6803.360128609546	61.015263451232606
6804.777495303007	61.27416262318129
6806.195157281196	61.532245491421115
6807.6131146056305	61.790360620996005
6809.031367337839	62.04848449464568
6810.449915539369	62.30624857672366
6811.868759271772	62.56302858536704
6813.287898596622	62.818895515242914
6814.707333575495	63.07450003482164
6816.12706426999	63.330139546829216
6817.547090741715	63.58586010838285
6818.967413052284	63.84208006900623
6820.388031263337	64.09989957358185
6821.808945436517	64.35967193044077
6823.230155633484	64.62036585911952
6824.651661915907	64.88121050305529
6826.073464345473	65.14210026836682
6827.49556298388	65.4027360167246
6828.917957892834	65.66190325920076
6830.340649134063	65.91864677641823
6831.763636769299	66.17391282580323
6833.186920860294	66.42895102889187
6834.610501468806	66.68403733276122
6836.034378656611	66.93901989037099
6837.458552485498	67.19288523770565
6838.883023017267	67.44425057575282
6840.307790313729	67.6935779603035
6841.732854436711	67.94238204327279
6843.158215448053	68.19121484708974
6844.583873409604	68.44008388177865
6846.009828383232	68.68881516278059
6847.436080430813	68.93703296010133
6848.862629614236	69.1846890811399
6850.289475995406	69.4321539747215
6851.716619636238	69.67964965847386
6853.144060598662	69.9271395774841
6854.57179894462	70.17330051317208
6855.999834736067	70.41366051993347
6857.428168034971	70.64565199534303
6858.856798903312	70.87313292896606
6860.285727403084	71.09998752103914
6861.7149535962935	71.32690132071525
6863.144477544959	71.55479621289427
6864.5742993111135	71.78848069318951
6866.004418956804	72.03321790071068
6867.434836544087	72.28601039573168
6868.865552135034	72.54073274064307
6870.296565791729	72.79556025186353
6871.72787757627	73.05011541718052
6873.159487550764	73.30149437737167
6874.591395777338	73.54448649524218
6876.023602318125	73.77942001719623
6877.456107235274	74.01166098797955
6878.888910590949	74.24378269622076
6880.322012447323	74.4759131881481
6881.755412866582	74.70742311446307
6883.18911191093	74.93658354894025
6884.623109642579	75.16275666589584
6886.057406123754	75.38753981873785
6887.492001416697	75.61219883220339
6888.926895583659	75.8368869298752
6890.362088686906	76.06093032888604
6891.797580788715	76.28138480619198
6893.233371951381	76.49573036770211
6894.669462237203	76.70618532201532
6896.105851708503	76.91593097032458
6897.542540427609	77.12568703085675
6898.979528456865	77.33218445898754
6900.416815858628	77.5127784000239
6901.854402695265	77.63446466220223
6903.29228902916	77.70587275615817
6904.730474922708	77.76258228754826
6906.168960438317	77.8186155111221
6907.607745638409	77.87314928862116
6909.0468305854165	77.90726414929969
6910.48621534179	77.87720667086923
6911.925899969986	77.77473169509933
6913.365884532479	77.64238274426101
6914.806169091757	77.50730153338185
6916.246753710318	77.37304037449692
6917.687638450675	77.26044055887486
6919.128823375352	77.24338703141179
6920.570308546889	77.36880357637251
6922.012094027836	77.57474534947113
6923.454179880759	77.79360754765175
6924.896566168235	78.01265288559905
6926.339252952854	78.23344956316281
6927.782240297219	78.4654402393427
6929.225528263946	78.71971058912936
6930.669116915669	78.99077474108255
6932.113006315028	79.2659945219953
6933.557196524675	79.54139566547633
6935.001687607285	79.81773202490126
6936.446479625538	80.10317253035244
6937.8915726421255	80.41305571592895
6939.33696671976	80.74721398684302
6940.782661921161	81.09003367255337
6942.228658309061	81.43352037552485
6943.67495594621	81.77706054714535
6945.121554895365	82.12033527138762
6946.568455219301	82.46241143001497
6948.015656980806	82.80288793745136
6949.463160242676	83.14261167286215
6950.910965067728	83.48230187087546
6952.359071518784	83.82203786870136
6953.807479658683	84.16077863585458
6955.256189550279	84.49376504390666
6956.705201256435	84.81661989265459
6958.154514840031	85.13276293949615
6959.604130363956	85.44758267127581
6961.054047891116	85.7624368561473
6962.504267484427	86.07654329940459
6963.954789206819	86.38394875266117
6965.405613121237	86.67545509637492
6966.856739290638	86.9529364575138
6968.30816777799	87.22617853062098
6969.759898646277	87.49926042432173
6971.211931958496	87.77148848629503
6972.6642677776545	88.03068269866051
6974.116906166776	88.24735749290787
6975.569847188894	88.4145652147518
6977.023090907059	88.56061358535082
6978.47663738433	88.70461288437303
6979.930486683786	88.84867580610045
6981.3846388685115	88.99375418738994
6982.83909400161	89.14341012006462
6984.293852146194	89.30012775858809
6985.748913365391	89.46100337938583
6987.204277722341	89.62261216475343
6988.659945280201	89.78427158316495
6990.115916102135	89.9468849238929
6991.572190251322	90.1159058969279
6993.028767790958	90.2981482957485
6994.485648784248	90.49068601362646
6995.942833294413	90.68588588891434
6997.400321384683	90.88121227014847
6998.858113118305	91.07484102246154
7000.316208558537	91.24946751904346
7001.774607768653	91.37068256030268
7003.23331081194	91.43684162607552
7004.692317751692	91.48251642016733
7006.151628651223	91.52664024271458
7007.6112435738605	91.57070595952273
7009.071162582939	91.61335095503189
7010.5313857418105	91.65031974650803
7011.9919131138395	91.67954086545244
7013.452744762405	91.70481261878508
7014.913880750897	91.72956511994289
7016.375321142722	91.75443531463242
7017.837066001293	91.78463706186706
7019.299115390043	91.84509238559099
7020.761469372417	91.96026150045618
7022.224128011869	92.11306859315341
7023.687091371872	92.2740423824211
7025.150359515908	92.43523879655896
7026.613932507475	92.59847518489052
7028.07781041008	92.77988182637115
7029.541993287248	93.00611012255312
7031.0064812025175	93.27331885884865
7032.471274219435	93.55355880640401
7033.936372401564	93.83454888429324
7035.401775812481	94.11388609277743
7036.867484515776	94.36716333460822
7038.33349857505	94.5319122980442
7039.79981805392	94.58956075184467
7041.266443016016	94.59904602260717
7042.733373524977	94.60330591784187
7044.200609644461	94.60793660896735
7045.668151438137	94.62459357971271
7047.135998969687	94.6995390176305
7048.604152302806	94.86765018510972
7050.072611501203	95.0921225112796
7051.541376628598	95.32657191298456
7053.010447748729	95.56112431508842
7054.479824925345	95.78979470659802
7055.949508222204	95.97584647796243
7057.419497703085	96.07073895749126
7058.889793431773	96.09214616475278
7060.360395472071	96.0936759493703
7061.831303887795	96.094426741138
7063.302518742772	96.09593972236169
