#wavelength (Angstrom)	surface_flux (erg / (Angstrom cm2 s))
6300.0	1.104599688370638
6301.3125	1.6461509038441737
6302.6252734375	1.93970404741619
6303.938320369467	1.9736059197394245
6305.251640852877	1.9934881606186439
6306.565234944722	2.013645976133421
6307.8791027020025	2.0338793336100016
6309.193244181732	2.0541195266534515
6310.5076594409375	2.074375908089324
6311.822348536654	2.0947727783853285
6313.137311525933	2.115564318266423
6314.452548465834	2.1367690014920755
6315.768059413431	2.158132809078861
6317.083844425809	2.1795130881535982
6318.399903560065	2.2009013308958787
6319.716236873307	2.2223690528885203
6321.032844422655	2.24414342101628
6322.349726265244	2.2663412201148336
6323.666882458216	2.2887622704019277
6324.984313058728	2.311218559090007
6326.302018123949	2.333680167962287
6327.619997711058	2.356171495695575
6328.938251877249	2.3788142973170876
6330.256780679723	2.401733375179268
6331.575584175699	2.4248479011645965
6332.894662422402	2.448009617596937
6334.214015477073	2.471177191525464
6335.533643396964	2.4943604242577764
6336.853546239339	2.5176473203701946
6338.173724061472	2.5411852166434326
6339.494176920652	2.5649552844024783
6340.814904874177	2.5888035678196877
6342.135907979359	2.612660938876406
6343.457186293522	2.6365340160047195
6344.778739874001	2.6605782139988516
6346.100568778142	2.6851964130879855
6347.422673063304	2.710513559947255
6348.745052786858	2.7361507631598334
6350.067708006189	2.7618279263650924
6351.39063877869	2.7875123152370476
6352.713845161769	2.8132657406017625
6354.037327212845	2.839342405257078
6355.3610849893485	2.8659431365088426
6356.685118548721	2.8928694919468843
6358.009427948419	2.9198597073998607
6359.334013245908	2.9468564558705044
6360.658874498668	2.973877005942574
6361.984011764189	3.001037403369842
6363.309425099973	3.028496195845041
6364.635114563535	3.056201350882958
6365.961080212403	3.0839791725546983
6367.2873221041145	3.1117655580862005
6368.61384029622	3.139561979643735
6369.940634846282	3.167417625750997
6371.267705811875	3.195439565891695
6372.595053250586	3.223641273232103
6373.922677220014	3.2519170334722936
6375.250577777768	3.280204244269482
6376.578754981471	3.30850370152439
6377.907208888761	3.3369523200265707
6379.235939557279	3.366003487009504
6380.564947044686	3.3959126109324154
6381.894231408654	3.426288026003717
6383.223792706865	3.456738130938886
6384.553630997012	3.4871956313112498
6385.883746336804	3.5176988848139774
6387.2141387839565	3.5484542697310917
6388.544808396204	3.5796883214225796
6389.875755231287	3.6112710394493517
6391.20697934696	3.642939213044933
6392.53848080099	3.674615979587922
6393.870259651158	3.706306953839102
6395.202315955253	3.7380771899061638
6396.534649771077	3.7700414101590503
6397.867261156446	3.8021914904694523
6399.2001501691875	3.834409016518775
6400.533316867139	3.866637100186732
6401.866761308153	3.8988813634075017
6403.200483550093	3.9312958253978727
6404.534483650832	3.9643071180315097
6405.868761668259	3.998073147574288
6407.2033176602745	4.032198962132591
6408.5381516847865	4.066372921899379
6409.873263799722	4.1005549909732695
6411.2086540630135	4.134778993387511
6412.544322532611	4.169189909079806
6413.880269266471	4.203910665706107
6415.216494322568	4.238832356146967
6416.552997758886	4.27379891070711
6417.8897796334195	4.308773609763358
6419.226840004177	4.3437915950050705
6420.5641789291785	4.379100728874576
6421.9017964664545	4.415062287145185
6423.239692674053	4.451580344916225
6424.577867610025	4.488265129365064
6425.9163213324455	4.524964636408999
6427.25505389939	4.561676097188485
6428.594065368952	4.59845182279222
6429.933355799238	4.635411370115332
6431.272925248362	4.672576578138776
6432.612773774456	4.709831147468921
6433.9529014356585	4.747100999116432
6435.293308290125	4.784381663720696
6436.63399439602	4.821747094254657
6437.974959811519	4.859458902161147
6439.316204594813	4.897682310840015
6440.657728804104	4.936197219304317
6441.999532497605	4.974764956107666
6443.341615733541	5.013341753622128
6444.683978570154	5.051976323560334
6446.026621065689	5.090942232199459
6447.369543278411	5.130558532345281
6448.7127452665945	5.170665350874791
6450.056227088525	5.2108983619944516
6451.399988802502	5.2511433404043375
6452.744030466836	5.2913989181147345
6454.088352139851	5.33168547811199
6455.43295387988	5.372041167253015
6456.777835745272	5.412465510573976
6458.122997794385	5.4529196367561115
6459.468440085592	5.493383657795502
6460.814162677278	5.533860038077476
6462.160165627836	5.574419445137058
6463.506448995675	5.615269448342973
6464.853012839217	5.656499335503221
6466.199857216891	5.697920651904689
6467.546982187145	5.739373626569131
6468.894387808435	5.780838388302097
6470.242074139227	5.822436819421641
6471.590041238007	5.864718434694454
6472.938289163264	5.908183947737802
6474.286817973508	5.952437081056553
6475.6356277272525	5.99685857855621
6476.984718483029	6.041292665156495
6478.334090299379	6.085815623238274
6479.683743234858	6.131020272764349
6481.033677348033	6.17782553296179
6482.38389269748	6.22604167876546
6483.734389341793	6.274691489359614
6485.085167339573	6.323371990961227
6486.436226749436	6.372081893285236
6487.787567630007	6.421071739848651
6489.139190039932	6.470946416465745
6490.491094037857	6.521850784003631
6491.843279682447	6.5732049008178635
6493.195747032382	6.624613713428838
6494.548496146348	6.676034956754304
6495.901527083045	6.727516960028427
6497.254839901187	6.779241807742873
6498.6084346595	6.831334704669241
6499.962311416722	6.8836455962718786
6501.316470231601	6.936001321357429
6502.670911162898	6.988367701443337
6504.025634269391	7.040703425069314
6505.3806396098635	7.092768739830749
6506.735927243117	7.144267440390412
6508.091497227958	7.195328319681364
6509.447349623215	7.246284447088582
6510.80348448772	7.297247159615669
6512.159901880322	7.348179993395376
6513.51660185988	7.39866401100167
6514.873584485267	7.447854934941891
6516.23084981537	7.495708893743192
6517.58839790908	7.543073868299273
6518.946228825313	7.590412261712543
6520.304342622985	7.637807259449799
6521.662739361031	7.686151315398553
6523.021419098398	7.7381940311573185
6524.380381894044	7.795273976952009
6525.739627806938	7.8549465588164535
6527.099156896065	7.914983935886166
6528.458969220418	7.975032107655119
6529.819064839006	8.034932699050335
6531.179443810848	8.09392683510097
6532.540106194976	8.151265143527148
6533.9010520504335	8.207469109115685
6535.262281436278	8.263439330911126
6536.6237944115765	8.319416168945747
6537.985591035413	8.375414758133322
6539.347671366879	8.431513340843424
6540.71003546508	8.487838860159883
6542.072683389135	8.544371702216576
6543.435615198176	8.600978353129364
6544.798830951341	8.657600213376574
6546.162330707791	8.714258756920296
6547.526114526688	8.771308146407543
6548.890182467215	8.829651885146378
6550.254534588562	8.889552193313344
6551.619170949934	8.95015372270494
6552.984091610549	9.010840613129337
6554.349296629635	9.071541997613577
6555.7147860664345	9.132313776625612
6557.080559980198	9.193377338175823
6558.446618430195	9.254900028619442
6559.8129614757	9.316706496642325
6561.1795891760075	9.378574238624918
6562.54650159042	9.440454057787049
6563.913698778251	9.502199625879427
6565.281180798831	9.562891438058582
6566.648947711497	9.621302499891906
6568.016999575604	9.6778686145987
6569.385336450516	9.733942360847982
6570.753958395609	9.790008313891907
6572.122865470276	9.846184217547956
6573.492057733915	9.903534391089488
6574.861535245943	9.964290536170882
6576.231298065786	10.028665093038049
6577.601346252884	10.094440262082564
6578.971679866686	10.160340449771969
6580.342298966659	10.226270227179693
6581.7132036122775	10.292562758378132
6583.08439386303	10.36030600149685
6584.455869778419	10.430095462636615
6585.827631417956	10.500984478157012
6587.199678841168	10.572045887087992
6588.572012107595	10.643119889494788
6589.944631276783	10.714028623593359
6591.3175364083	10.783860199754347
6592.690727561718	10.851646192441036
6594.064204796627	10.917976384197031
6595.437968172626	10.983987356334172
6596.812017749329	11.050003933473022
6598.18635358636	11.116061254897085
6599.5609757433585	11.18238351484807
6600.935884279972	11.249357465301909
6602.311079255864	11.316947457189773
6603.686560730708	11.38475222552697
6605.062328764195	11.452583337786033
6606.43838341602	11.520455511767134
6607.814724745898	11.588801342918178
6609.191352813554	11.658798831149124
6610.568267678725	11.730860559036659
6611.9454694011565	11.803889554609393
6613.322958040616	11.877041410538803
6614.700733656875	11.950207020813085
6616.07879630972	12.023333889245645
6617.457146058951	12.096204626646632
6618.835782964381	12.168642255508193
6620.214707085831	12.24081327407949
6621.593918483141	12.312946118325799
6622.973417216159	12.385093272092812
6624.353203344746	12.457270382597448
6625.733276928776	12.529578958017131
6627.113638028136	12.602163341874524
6628.494286702727	12.674980731634403
6629.8752230124555	12.747874506410506
6631.25644701725	12.820785948279083
6632.637958777046	12.893751451364576
6634.019758351792	12.967221074826687
6635.401845801448	13.042194951897638
6636.784221185991	13.11883041764583
6638.166884565405	13.196148510909262
6639.54983599969	13.273542377711568
6640.933075548856	13.350949958426646
6642.316603272929	13.428312929605848
6643.700419231944	13.505428276230626
6645.084523485952	13.58217310595972
6646.468916095012	13.658720615371674
6647.853597119198	13.73525171604957
6649.238566618597	13.811797577562949
6650.623824653309	13.88829562017053
6652.009371283446	13.964407646142126
6653.39520656913	14.039751757987748
6654.781330570499	14.114531995974806
6656.167743347702	14.189188689625698
6657.554444960899	14.263856688819565
6658.941435470266	14.338449562518628
6660.328714935989	14.412147294029591
6661.716283418268	14.483447417888211
6663.104140977314	14.552406434481911
6664.492287673351	14.62056400761497
6665.880723566617	14.688683061427383
6667.269448717359	14.756784894563593
6668.658463185843	14.824338694874195
6670.04776703234	14.8898338726211
6671.437360317139	14.952661229912735
6672.827243100539	15.014202031362762
6674.21741544285	15.07559498694832
6675.607877404403	15.136963850385806
6676.998629045529	15.196917682054217
6678.389670426579	15.249317877667316
6679.781001607919	15.288757711310051
6681.17262264992	15.319766514329705
6682.564533612973	15.349110108908475
6683.956734557476	15.37841698425546
6685.349225543842	15.405046800581442
6686.742006632498	15.409949341697889
6688.135077883879	15.364611091700201
6689.528439358438	15.275783570925547
6690.9220911166385	15.174015104855917
6692.316033218955	15.071605809294127
6693.710265725876	14.961196946157873
6695.104788697902	14.742361753636834
6696.4996021955485	14.179009147852886
6697.894706279339	13.221373622134102
6699.290101009814	12.097590896521506
6700.685786447524	10.957726536809085
6702.081762653035	9.821552675753436
6703.478029686921	8.792681976495665
6704.874587609773	8.249495687458731
6706.27143648219	8.442436268231265
6707.668576364793	9.05736468600863
6709.066007318201	9.741078738844882
6710.46372940306	10.425548018934842
6711.861742680019	11.110032707438059
6713.260047209744	11.793816450999016
6714.658643052912	12.47603658104828
6716.0575302702155	13.15709286694023
6717.4567089223565	13.837962221995449
6718.856179070049	14.518962509401552
6720.255940774021	15.195601955823932
6721.6559940950165	15.823752639767926
6723.056339093787	16.317936104174436
6724.456975831098	16.67689425990127
6725.85790436773	16.98714887501006
6727.259124764472	17.294043331556797
6728.660637082132	17.600383761042604
6730.062441381524	17.894918747397472
6731.464537723479	18.14396423147441
6732.866926168839	18.332123043152443
6734.269606778457	18.489653803915132
6735.672579613203	18.64317052210432
6737.075844733956	18.796679395675184
6738.4794022016085	18.94899832038562
6739.883252077068	19.094426158093242
6741.2873944212515	19.22748847826625
6742.691829295089	19.352190806409833
6744.096556759525	19.475166663234265
6745.5015768755175	19.598132895384705
6746.906889704033	19.72086935269605
6748.312495306054	19.841464556155056
6749.718393742578	19.95690345781406
6751.124585074607	20.067732482796448
6752.531069363165	20.177142766013233
6753.937846669282	20.28649915956574
6755.344917054005	20.39585772861547
6756.752280578391	20.504927948603385
6758.159937303512	20.61298532439366
6759.567887290451	20.719841088162116
6760.976130600304	20.826187107846707
6762.384667294178	20.932502296014874
6763.793497433198	21.03883463203866
6765.202621078498	21.145040965843407
6766.612038291223	21.25057017781278
6768.021749132533	21.35502117586474
6769.431753663604	21.458836136497883
6770.842051945616	21.56255757218802
6772.252644039771	21.66629883763941
6773.66353000728	21.770020330464664
6775.074709909365	21.87346810869637
6776.486183807264	21.97631306528233
6777.897951762223	22.07868369654571
6779.310013835508	22.180945337042854
6780.722370088391	22.283223689717968
6782.135020582158	22.385541707918865
6783.547965378113	22.48808920680286
6784.961204537568	22.591253332993894
6786.374738121846	22.69506190288234
6787.788566192289	22.799128238544817
6789.2026888102455	22.903234917260463
6790.617106037082	23.00736401500151
6792.031817934173	23.11153054318205
6793.446824562909	23.215782396918982
6794.862125984693	23.32014433392561
6796.27772226094	23.424574142611245
6797.693613453079	23.529032122273126
6799.109799622548	23.633511127134717
6800.5262808308025	23.737971858170592
6801.9430571393095	23.84221900241097
6803.360128609546	23.94605224885183
6804.777495303007	24.04960103326251
6806.195157281196	24.1531031414333
6807.6131146056305	24.256625167654057
6809.031367337839	24.360179880847966
6810.449915539369	24.4638582960883
6811.868759271772	24.567814583567674
6813.287898596622	24.672031218795123
6814.707333575495	24.77634753009689
6816.12706426999	24.880690082800967
6817.547090741715	24.985064242669047
6818.967413052284	25.089618572775176
6820.388031263337	25.194743752427385
6821.808945436517	25.300565247555852
6823.230155633484	25.406716834862024
6824.651661915907	25.512924771664277
6826.073464345473	25.61915206026252
6827.49556298388	25.72530840392856
6828.917957892834	25.83102723227561
6830.340649134063	25.936020230759077
6831.763636769299	26.040573011309025
6833.186920860294	26.145062750840623
6834.610501468806	26.24957292322098
6836.034378656611	26.354081220164648
6837.458552485498	26.458434882047243
6838.883023017267	26.562425478245526
6840.307790313729	26.666122658696278
6841.732854436711	26.769754734337905
6843.158215448053	26.873404915108857
6844.583873409604	26.977070298295775
6846.009828383232	27.080679644371305
6847.436080430813	27.1840791072544
6848.862629614236	27.28724895411077
6850.289475995406	27.390340868750574
6851.716619636238	27.49344575844303
6853.144060598662	27.596571867039113
6854.57179894462	27.699713167738114
6855.999834736067	27.802849281887912
6857.428168034971	27.905968510812638
6858.856798903312	28.00908844361542
6860.285727403084	28.112226788851792
6861.7149535962935	28.215388603860735
6863.144477544959	28.318689591678048
6864.5742993111135	28.422735726890554
6866.004418956804	28.52819027870679
6867.434836544087	28.63467551005962
6868.865552135034	28.74141949050849
6870.296565791729	28.848192243718763
6871.72787757627	28.95489148731866
6873.159487550764	29.06066280945272
6874.591395777338	29.163973066454002
6876.023602318125	29.264918840856136
6877.456107235274	29.3650790052277
6878.888910590949	29.465210709177335
6880.322012447323	29.565361961182557
6881.755412866582	29.665511889527824
6883.18911191093	29.765603149162917
6884.623109642579	29.865614587216864
6886.057406123754	29.965599192451364
6887.492001416697	30.065598956706232
6888.926895583659	30.165615707458713
6890.362088686906	30.26550024765251
6891.797580788715	30.364600952613927
6893.233371951381	30.462360089670938
6894.669462237203	30.55926862566212
6896.105851708503	30.65603066068035
6897.542540427609	30.752809214010938
6898.979528456865	30.849427830132015
6900.416815858628	30.9446515292733
6901.854402695265	31.036680363996894
6903.29228902916	31.1259849660465
6904.730474922708	31.21450574571317
6906.168960438317	31.303007325681918
6907.607745638409	31.3905602866738
6909.0468305854165	31.46505691813216
6910.48621534179	31.498496762919793
6911.925899969986	31.485603248225956
6913.365884532479	31.453602547610313
6914.806169091757	31.419864287277495
6916.246753710318	31.38637226366576
6917.687638450675	31.359349559424363
6919.128823375352	31.360857768411876
6920.570308546889	31.404908046484792
6922.012094027836	31.473004041521005
6923.454179880759	31.544959372256827
6924.896566168235	31.616996818934844
6926.339252952854	31.691472741012785
6927.782240297219	31.781803267598686
6929.225528263946	31.903738926550414
6930.669116915669	32.04948537579144
6932.113006315028	32.20108627565874
6933.557196524675	32.35289371516563
6935.001687607285	32.50442507749636
6936.446479625538	32.65281697177451
6937.8915726421255	32.792692892766254
6939.33696671976	32.92411159715915
6940.782661921161	33.05254605353078
6942.228658309061	33.18079849651292
6943.67495594621	33.30898913274131
6945.121554895365	33.435557316229904
6946.568455219301	33.555936875317336
6948.015656980806	33.66816507753401
6949.463160242676	33.776385958966785
6950.910965067728	33.884118942162736
6952.359071518784	33.991898065418404
6953.807479658683	34.10078003174018
6955.256189550279	34.21558818810305
6956.705201256435	34.34075880118595
6958.154514840031	34.472826001929256
6959.604130363956	34.606328634401024
6961.054047891116	34.73988478628842
6962.504267484427	34.873179546253205
6963.954789206819	35.00409598581393
6965.405613121237	35.1293633252198
6966.856739290638	35.24964799057037
6968.30816777799	35.368429700652065
6969.759898646277	35.48715895610975
6971.211931958496	35.605585546915805
6972.6642677776545	35.71933082826713
6974.116906166776	35.81779491040728
6975.569847188894	35.89848015286177
6977.023090907059	35.97156301788941
6978.47663738433	36.04391354094385
6979.930486683786	36.11629247159451
6981.3846388685115	36.18907572652578
6982.83909400161	36.263670310946566
6984.293852146194	36.34105745138071
6985.748913365391	36.420090195406246
6987.204277722341	36.499415761600225
6988.659945280201	36.578763589275034
6990.115916102135	36.658398689066075
6991.572190251322	36.73992557790047
6993.028767790958	36.82534891776526
6994.485648784248	36.91380783116179
6995.942833294413	37.0030565956304
6997.400321384683	37.092349131369694
6998.858113118305	37.181062188134305
7000.316208558537	37.26324199126137
7001.774607768653	37.327049820430425
7003.23331081194	37.37191986815016
7004.692317751692	37.40974676735056
7006.151628651223	37.4470446508489
7007.6112435738605	37.484343460936
7009.071162582939	37.521504629611734
7010.5313857418105	37.55809540248248
7011.9919131138395	37.59390512566062
7013.452744762405	37.62932006448318
7014.913880750897	37.66468904132721
7016.375321142722	37.70010533778092
7017.837066001293	37.73740252556134
7019.299115390043	37.78534674919158
7020.761469372417	37.852541715087796
7022.224128011869	37.93298112941595
7023.687091371872	38.016298681297194
7025.150359515908	38.099699880621166
7026.613932507475	38.18372955396421
7028.07781041008	38.273300599132924
7029.541993287248	38.37653039565047
7031.0064812025175	38.49224900312329
7032.471274219435	38.61194375792243
7033.936372401564	38.73187413868629
7035.401775812481	38.8512224082884
7036.867484515776	38.96133051615759
7038.33349857505	39.04003876710425
7039.79981805392	39.08075894170625
7041.266443016016	39.10439817292518
7042.733373524977	39.12618800444678
7044.200609644461	39.148109998464186
7045.668151438137	39.17418765549776
7047.135998969687	39.220390519045935
7048.604152302806	39.298758096930165
7050.072611501203	39.39658558306059
7051.541376628598	39.497861357776934
7053.010447748729	39.59917682972661
7054.479824925345	39.69845612917847
7055.949508222204	39.78295619980478
7057.419497703085	39.83583943652118
7058.889793431773	39.86323653774597
7060.360395472071	39.88374279395429
