#wavelength (Angstrom)	surface_flux (erg / (Angstrom cm2 s))
6300.0	1189.3317206181082
6301.3125	1763.841036935859
6302.6252734375	2059.905424895796
6303.938320369467	2076.476804343854
6305.251640852877	2086.140091779256
6306.565234944722	2102.700897128485
6307.8791027020025	2121.077544195289
6309.193244181732	2139.524359941589
6310.5076594409375	2158.023802663392
6311.822348536654	2177.082386404655
6313.137311525933	2197.735879350659
6314.452548465834	2220.059558167511
6315.768059413431	2243.0183082001267
6317.083844425809	2266.0308249040554
6318.399903560065	2288.926066275456
6319.716236873307	2309.2165252667082
6321.032844422655	2319.0006470498693
6322.349726265244	2314.2163161080284
6323.666882458216	2301.826456702984
6324.984313058728	2288.3707862417923
6326.302018123949	2274.943216714991
6327.619997711058	2263.351924611425
6328.938251877249	2262.5394243326846
6330.256780679723	2281.6720481332095
6331.575584175699	2314.8131112300625
6332.894662422402	2351.0734051521013
6334.214015477073	2387.4136434341335
6335.533643396964	2423.0955051491833
6336.853546239339	2452.7086751867637
6338.173724061472	2467.195191088375
6339.494176920652	2467.712672617665
6340.814904874177	2463.726137303366
6342.135907979359	2459.4855270548956
6343.457186293522	2455.1928359216276
6344.778739874001	2450.1069177745876
6346.100568778142	2442.3064992888767
6347.422673063304	2431.1957324316954
6348.745052786858	2418.5815008327068
6350.067708006189	2405.7995486637615
6351.39063877869	2392.998469694287
6352.713845161769	2379.6305111222237
6354.037327212845	2363.4436111837367
6355.3610849893485	2342.658580182737
6356.685118548721	2319.0334978122546
6358.009427948419	2294.8874332657774
6359.334013245908	2270.7426790413033
6360.658874498668	2248.0105666125896
6361.984011764189	2235.7415777189703
6363.309425099973	2246.3009810403405
6364.635114563535	2275.630596140753
6365.961080212403	2310.1835366648966
6367.2873221041145	2344.9602433757345
6368.61384029622	2379.6613424199527
6369.940634846282	2413.3273062541057
6371.267705811875	2443.8694857415767
6372.595053250586	2471.025076120896
6373.922677220014	2496.8563402039117
6375.250577777768	2522.5845276742575
6376.578754981471	2548.2139970664853
6377.907208888761	2571.501876531358
6379.235939557279	2585.0209447113675
6380.564947044686	2584.5872043152276
6381.894231408654	2576.6168185152887
6383.223792706865	2567.524893799913
6384.553630997012	2558.432872790771
6385.883746336804	2549.9266034501334
6387.2141387839565	2545.083560091522
6388.544808396204	2547.2817975484777
6389.875755231287	2554.5827408473588
6391.20697934696	2563.0613945576197
6392.53848080099	2571.5719222685366
6393.870259651158	2580.347398956323
6395.202315955253	2591.638016643439
6396.534649771077	2609.412005204855
6397.867261156446	2633.3883014874395
6399.2001501691875	2659.4708755531005
6400.533316867139	2685.6919049908806
6401.866761308153	2711.8913049700423
6403.200483550093	2737.6282404176873
6404.534483650832	2761.681592926738
6405.868761668259	2783.5994017346848
6407.2033176602745	2804.5121197700923
6408.5381516847865	2825.3117406334113
6409.873263799722	2845.991758479712
6411.2086540630135	2862.135379403032
6412.544322532611	2854.832370211092
6413.880269266471	2808.0488824888716
6415.216494322568	2735.99038769376
6416.552997758886	2659.0139978698116
6417.8897796334195	2581.9525332025396
6419.226840004177	2506.7099272795995
6420.5641789291785	2445.9196755909607
6421.9017964664545	2417.995963593271
6423.239692674053	2418.0494077219487
6424.577867610025	2426.21316325315
6425.9163213324455	2434.739484426841
6427.25505389939	2443.5506526069466
6428.594065368952	2456.0838242022496
6429.933355799238	2480.194747774767
6431.272925248362	2517.318316281356
6432.612773774456	2559.812616683706
6433.9529014356585	2602.8099581537135
6435.293308290125	2645.692240607485
6436.63399439602	2685.442879028791
6437.974959811519	2711.3915459297336
6439.316204594813	2716.799311153295
6440.657728804104	2710.6435431445493
6441.999532497605	2702.659047381786
6443.341615733541	2694.6657169080972
6444.683978570154	2687.159582662075
6446.026621065689	2682.8295678809677
6447.369543278411	2684.8116923830703
6448.7127452665945	2691.5345130542037
6450.056227088525	2699.4169787593414
6451.399988802502	2707.3372638074684
6452.744030466836	2715.7783056751805
6454.088352139851	2729.516797203703
6455.43295387988	2757.4926980946843
6456.777835745272	2799.5942823866776
6458.122997794385	2846.7109827689233
6459.468440085592	2894.1812956134604
6460.814162677278	2941.560147869763
6462.160165627836	2987.0247980715876
6463.506448995675	3025.2212774021946
6464.853012839217	3053.846555609547
6466.199857216891	3077.761655438077
6467.546982187145	3101.0877352596735
6468.894387808435	3124.3588467287973
6470.242074139227	3145.2771545422065
6471.590041238007	3153.4807386711595
6472.938289163264	3139.527900725493
6474.286817973508	3110.8911037999483
6475.6356277272525	3079.2474187884563
6476.984718483029	3047.5374128368767
6478.334090299379	3015.1277995399164
6479.683743234858	2976.858409925883
6481.033677348033	2924.730553286529
6482.38389269748	2860.395701413512
6483.734389341793	2792.3600603630907
6485.085167339573	2724.13131932548
6486.436226749436	2656.6287471509722
6487.787567630007	2599.484051205207
6489.139190039932	2575.9511282052913
6490.491094037857	2591.598865540417
6491.843279682447	2624.1321414316953
6493.195747032382	2658.3635984813695
6494.548496146348	2692.582107922332
6495.901527083045	2726.198578246109
6497.254839901187	2756.996728845179
6498.6084346595	2783.4526118579324
6499.962311416722	2807.392700625693
6501.316470231601	2830.924719787268
6502.670911162898	2854.4626818022666
6504.025634269391	2878.349103534732
6505.3806396098635	2904.565627523447
6506.735927243117	2935.560496064137
6508.091497227958	2970.26921826078
6509.447349623215	3005.9388994679725
6510.80348448772	3041.6490423034097
6512.159901880322	3076.949336266212
6513.51660185988	3107.522843211471
6514.873584485267	3124.669732497132
6516.23084981537	3127.9379117757258
6517.58839790908	3126.0653306706495
6518.946228825313	3123.8167743223735
6520.304342622985	3121.789802396895
6521.662739361031	3124.224088409292
6523.021419098398	3144.1818549930485
6524.380381894044	3188.0220918985024
6525.739627806938	3244.131523267918
6527.099156896065	3301.9265785366088
6528.458969220418	3359.6825733114288
6529.819064839006	3414.584232783074
6531.179443810848	3453.0440981017514
6532.540106194976	3461.644853063818
6533.9010520504335	3449.7234723880724
6535.262281436278	3433.4048511379765
6536.6237944115765	3416.990806474843
6537.985591035413	3400.306693906601
6539.347671366879	3381.284725671646
6540.71003546508	3356.5700129874126
6542.072683389135	3326.6809900625162
6543.435615198176	3295.1463311238417
6544.798830951341	3263.5148142546896
6546.162330707791	3232.051387110296
6547.526114526688	3203.2418593990583
6548.890182467215	3183.427802023816
6550.254534588562	3174.4496907579323
6551.619170949934	3170.3039127015904
6552.984091610549	3166.6677948499955
6554.349296629635	3163.018125186539
6555.7147860664345	3158.9608230940644
6557.080559980198	3152.93609596616
6558.446618430195	3143.7649070134935
6559.8129614757	3132.682729553613
6561.1795891760075	3121.2572531644564
6562.54650159042	3109.8284052420477
6563.913698778251	3098.7389997705
6565.281180798831	3090.125120812168
6566.648947711497	3086.8371736760937
6568.016999575604	3087.862760720305
6569.385336450516	3090.0597465896153
6570.753958395609	3092.302432589415
6572.122865470276	3094.7399518702778
6573.492057733915	3099.477388890132
6574.861535245943	3110.9287631121338
6576.231298065786	3129.514249809211
6577.601346252884	3150.847316584611
6578.971679866686	3172.4049957264506
6580.342298966659	3193.954802126778
6581.7132036122775	3215.2366449949186
6583.08439386303	3235.4012384230246
6584.455869778419	3253.983717664209
6585.827631417956	3271.7230767300434
6587.199678841168	3289.3430853288146
6588.572012107595	3306.954456804832
6589.944631276783	3323.8843053866945
6591.3175364083	3336.662854257882
6592.690727561718	3341.605205900827
6594.064204796627	3340.9554885875305
6595.437968172626	3339.038415356789
6596.812017749329	3337.0887782951336
6598.18635358636	3334.8645995827683
6599.5609757433585	3330.088853410762
6600.935884279972	3318.833477545563
6602.311079255864	3301.460574914253
6603.686560730708	3282.04566886438
6605.062328764195	3262.5026253061737
6606.43838341602	3243.033869853537
6607.814724745898	3224.898126720717
6609.191352813554	3211.523041814225
6610.568267678725	3204.1091073908356
6611.9454694011565	3199.4644276663203
6613.322958040616	3195.132000458985
6614.700733656875	3190.8029989932415
6616.07879630972	3186.610734567116
6617.457146058951	3183.10946888337
6618.835782964381	3180.7504303352134
6620.214707085831	3179.1091241594777
6621.593918483141	3177.6031397296224
6622.973417216159	3176.097680275204
6624.353203344746	3174.383966100837
6625.733276928776	3171.0478905501755
6627.113638028136	3164.078590972282
6628.494286702727	3154.072409599444
6629.8752230124555	3143.211337249788
6631.25644701725	3132.313439934082
6632.637958777046	3121.5997825765353
6634.019758351792	3113.2297993276206
6635.401845801448	3112.002260347498
6636.784221185991	3118.672066644456
6638.166884565405	3128.5420034718454
6639.54983599969	3138.7002808425364
6640.933075548856	3148.765985527885
6642.316603272929	3156.4484864407054
6643.700419231944	3153.7746052912134
6645.084523485952	3135.9178363154742
6646.468916095012	3109.680029925907
6647.853597119198	3082.1660289178362
6649.238566618597	3054.617303389371
6650.623824653309	3025.6764192042915
6652.009371283446	2987.990102896385
6653.39520656913	2933.2549475831984
6654.781330570499	2865.907186557822
6656.167743347702	2795.520527337324
6657.554444960899	2725.0320790339974
6658.941435470266	2655.898549105448
6660.328714935989	2600.5050884215357
6661.716283418268	2581.5441988382904
6663.104140977314	2598.162573838059
6664.492287673351	2627.1059791586576
6665.880723566617	2656.851651877074
6667.269448717359	2686.4971428045274
6668.658463185843	2714.244820897971
6670.04776703234	2734.978988475694
6671.437360317139	2746.636557186933
6672.827243100539	2753.895241129418
6674.21741544285	2760.611330793096
6675.607877404403	2767.2684872803725
6676.998629045529	2771.6216770989136
6678.389670426579	2763.7595043736414
6679.781001607919	2734.9522642055126
6681.17262264992	2692.513011999934
6682.564533612973	2647.3658417667266
6683.956734557476	2602.1694275684836
6685.349225543842	2557.9945829479598
6686.742006632498	2522.1612064088326
6688.135077883879	2505.6253970439084
6689.528439358438	2505.792933289996
6690.9220911166385	2510.9258530753355
6692.316033218955	2516.297918392216
6693.710265725876	2521.651683153741
6695.104788697902	2526.7426998251663
6696.4996021955485	2530.996301699302
6697.894706279339	2534.291355297073
6699.290101009814	2537.1831637410583
6700.685786447524	2540.0370003723237
6702.081762653035	2542.9179574752766
6703.478029686921	2546.525740746233
6704.874587609773	2553.4155918037955
6706.27143648219	2565.278770606331
6707.668576364793	2579.993869664961
6709.066007318201	2595.1756845485475
6710.46372940306	2610.3483591191284
6711.861742680019	2624.291816863596
6713.260047209744	2630.064796801364
6714.658643052912	2619.308343600466
6716.0575302702155	2595.8956605483163
6717.4567089223565	2569.2920825690726
6718.856179070049	2542.5783550345295
6720.255940774021	2516.2822707458417
6721.6559940950165	2494.5513982454245
6723.056339093787	2485.419827534636
6724.456975831098	2489.0058075586708
6725.85790436773	2497.177191146318
6727.259124764472	2505.672172307849
6728.660637082132	2514.187641110227
6730.062441381524	2523.064399012618
6731.464537723479	2533.3227228529267
6732.866926168839	2545.4289872442228
6734.269606778457	2558.4666719700867
6735.672579613203	2571.629650621953
6737.075844733956	2584.7809522342927
6738.4794022016085	2597.205918233276
6739.883252077068	2605.502909779293
6741.2873944212515	2606.405555139674
6742.691829295089	2602.303783797104
6744.096556759525	2597.155542254971
6745.5015768755175	2591.987151838526
6746.906889704033	2587.0782151594176
6748.312495306054	2584.3786692863496
6749.718393742578	2586.964220525093
6751.124585074607	2594.2774566487756
6752.531069363165	2603.0630525406755
6753.937846669282	2611.9287054471015
6755.344917054005	2620.904214665403
6756.752280578391	2631.5123510861317
6758.159937303512	2647.5504841964384
6759.567887290451	2670.00804055334
6760.976130600304	2695.2587122431146
6762.384667294178	2720.7923684560697
6763.793497433198	2746.3402884578236
6765.202621078498	2772.1584972713467
6766.612038291223	2799.2326500296986
6768.021749132533	2828.280086242362
6769.431753663604	2858.5100080124625
6770.842051945616	2888.952172329289
6772.252644039771	2919.3926458337005
6773.66353000728	2948.720390133532
6775.074709909365	2970.068632477169
6776.486183807264	2974.538117983907
6777.897951762223	2965.603297877914
6779.310013835508	2953.1427870862917
6780.722370088391	2940.5554303899057
6782.135020582158	2927.942404842841
6783.547965378113	2915.0654170337066
6784.961204537568	2901.438438961759
6786.374738121846	2887.026554301396
6787.788566192289	2872.3152126836367
6789.2026888102455	2857.5773767707124
6790.617106037082	2842.9549470856878
6792.031817934173	2830.883045923543
6793.446824562909	2829.132733099706
6794.862125984693	2841.7206327290614
6796.27772226094	2861.796463342858
6797.693613453079	2882.9173800463045
6799.109799622548	2904.041128019682
6800.5262808308025	2924.8641596865077
6801.9430571393095	2943.8981072384877
6803.360128609546	2959.616516494255
6804.777495303007	2973.005687111953
6806.195157281196	2985.8775732555205
6807.6131146056305	2998.739007573063
6809.031367337839	3011.4774967751996
6810.449915539369	3023.064868310602
6811.868759271772	3031.7594679628346
6813.287898596622	3037.759326236514
6814.707333575495	3042.8796492900497
6816.12706426999	3047.9501014236544
6817.547090741715	3053.2127011340535
6818.967413052284	3061.543915912049
6820.388031263337	3080.5081934917152
6821.808945436517	3112.5347817962165
6823.230155633484	3150.5325886780715
6824.651661915907	3189.201179428752
6826.073464345473	3227.849824620967
6827.49556298388	3265.550189603174
6828.917957892834	3298.535796603525
6830.340649134063	3323.8442296792264
6831.763636769299	3344.410044480896
6833.186920860294	3364.108607247876
6834.610501468806	3383.7996006455573
6836.034378656611	3403.517532874159
6837.458552485498	3423.4099245636444
6838.883023017267	3443.678056124979
6840.307790313729	3464.2546739436993
6841.732854436711	3484.919310243709
6843.158215448053	3505.591518061938
6844.583873409604	3525.8514779937777
6846.009828383232	3541.055906235836
6847.436080430813	3541.1776867282156
6848.862629614236	3524.9304517056844
6850.289475995406	3502.1998077079834
6851.716619636238	3478.910287273647
6853.144060598662	3455.754680345653
6854.57179894462	3435.9360243259443
6855.999834736067	3430.279235700426
6857.428168034971	3444.9995352937335
6858.856798903312	3470.7582123358034
6860.285727403084	3498.153109831957
6861.7149535962935	3525.560407267233
6863.144477544959	3552.8077317499874
6864.5742993111135	3579.041938850277
6866.004418956804	3603.3292190133134
6867.434836544087	3626.2013959410783
6868.865552135034	3648.745278380352
6870.296565791729	3671.284815888303
6871.72787757627	3694.2419640126845
6873.159487550764	3721.3011810399234
6874.591395777338	3759.0737863554473
6876.023602318125	3807.1433129219777
6877.456107235274	3858.7012888855957
6878.888910590949	3910.4827170052913
6880.322012447323	3962.0901203369403
6881.755412866582	4010.5844354688115
6883.18911191093	4047.89164918124
6884.623109642579	4071.033113815279
6886.057406123754	4087.4683168132624
6887.492001416697	4103.10852922404
6888.926895583659	4118.720477067176
6890.362088686906	4133.1515200735275
6891.797580788715	4141.359878637947
6893.233371951381	4139.030233731712
6894.669462237203	4129.961258283332
6896.105851708503	4119.600678606722
6897.542540427609	4109.2233488341635
6898.979528456865	4099.456959790056
6900.416815858628	4094.5057001445707
6901.854402695265	4100.497047326885
6903.29228902916	4115.828869092081
6904.730474922708	4133.895545542754
6906.168960438317	4152.093636373322
6907.607745638409	4169.75995578567
6909.0468305854165	4180.189169351977
6910.48621534179	4167.874430662141
6911.925899969986	4129.893536190539
6913.365884532479	4081.3245261195016
6914.806169091757	4031.786817150912
6916.246753710318	3982.4463135107876
6917.687638450675	3938.4022060355937
6919.128823375352	3917.731756206947
6920.570308546889	3931.9156993760957
6922.012094027836	3965.7981300128095
6923.454179880759	4002.8383332877834
6924.896566168235	4039.9181746725303
6926.339252952854	4077.2959018309703
6927.782240297219	4116.577823746872
6929.225528263946	4159.649746033016
6930.669116915669	4205.578456476978
6932.113006315028	4252.214050974853
6933.557196524675	4298.880579232215
6935.001687607285	4345.854206862057
6936.446479625538	4395.902237373082
6937.8915726421255	4454.2207482457325
6939.33696671976	4520.7529630703
6940.782661921161	4590.209595137256
6942.228658309061	4659.882461519163
6943.67495594621	4729.424645852545
6945.121554895365	4796.2764248404155
6946.568455219301	4852.948516798489
6948.015656980806	4896.22171024485
6949.463160242676	4932.892902593266
6950.910965067728	4968.734521902453
6952.359071518784	5004.555237613919
6953.807479658683	5039.2532449383425
6955.256189550279	5067.782954122856
6956.705201256435	5085.503691520809
6958.154514840031	5096.041032270555
6959.604130363956	5105.107776823576
6961.054047891116	5114.150981607245
6962.504267484427	5123.7770251006405
6963.954789206819	5138.238239594141
6965.405613121237	5164.104723505972
6966.856739290638	5200.037824300305
6968.30816777799	5239.047767272286
6969.759898646277	5278.220912268195
6971.211931958496	5317.363334652759
6972.6642677776545	5355.9550053288995
6974.116906166776	5392.73702842441
6975.569847188894	5427.412772510583
6977.023090907059	5461.190847228099
6978.47663738433	5494.887174107755
6979.930486683786	5528.528441287913
6981.3846388685115	5560.437447918464
6982.83909400161	5584.32727290633
6984.293852146194	5595.813506551818
6985.748913365391	5600.02110431402
6987.204277722341	5602.994729626681
6988.659945280201	5605.9392254786935
6990.115916102135	5607.278656885819
6991.572190251322	5597.497181251585
6993.028767790958	5564.705827016454
6994.485648784248	5514.010196560079
6995.942833294413	5458.728953100278
6997.400321384683	5403.285138199884
6998.858113118305	5349.4179457909
7000.316208558537	5312.937310176473
7001.774607768653	5325.280320399322
7003.23331081194	5387.949455510875
7004.692317751692	5469.359169346191
7006.151628651223	5552.211542624294
7007.6112435738605	5634.950796592393
7009.071162582939	5714.937066883327
7010.5313857418105	5783.925990792819
7011.9919131138395	5837.904407194018
7013.452744762405	5884.2309686650915
7014.913880750897	5929.551007869942
7016.375321142722	5974.879046137805
7017.837066001293	6020.282003403947
7019.299115390043	6066.066241362268
7020.761469372417	6112.5324448141655
7022.224128011869	6159.470707328899
7023.687091371872	6206.518748318559
7025.150359515908	6253.576198940998
7026.613932507475	6299.50469940252
7028.07781041008	6335.149305592472
7029.541993287248	6345.383672981447
7031.0064812025175	6332.3879390224765
7032.471274219435	6312.025059088115
7033.936372401564	6291.2653268495005
7035.401775812481	6271.010801833613
7036.867484515776	6258.528131368568
7038.33349857505	6272.415802708139
7039.79981805392	6318.203267765986
7041.266443016016	6378.343313317184
7042.733373524977	6440.052210212625
7044.200609644461	6500.713985190408
7045.668151438137	6527.514570147565
7047.135998969687	6390.139095616533
7048.604152302806	5990.34262119118
7050.072611501203	5431.799083804715
7051.541376628598	4845.166724201341
7053.010447748729	4258.249817759445
7054.479824925345	3686.9087838957776
7055.949508222204	3228.3799726222974
7057.419497703085	3011.1433330315094
7058.889793431773	2988.4183621400125
