#wavelength (Angstrom)	surface_flux (erg / (Angstrom cm2 s))
6300.0	1.2250966570588744
6301.3125	1.8253916754692154
6302.6252734375	2.15016501386157
6303.938320369467	2.186764743918952
6305.251640852877	2.2077115372716523
6306.565234944722	2.228886903242232
6307.8791027020025	2.25012561101777
6309.193244181732	2.271370913956346
6310.5076594409375	2.2926373449444073
6311.822348536654	2.3140983178166334
6313.137311525933	2.336108445026749
6314.452548465834	2.3586934993931905
6315.768059413431	2.3814990935043783
6317.083844425809	2.404326209099423
6318.399903560065	2.42716036854867
6319.716236873307	2.4500482013811657
6321.032844422655	2.473137823932462
6322.349726265244	2.496505381914944
6323.666882458216	2.520020355731933
6324.984313058728	2.5435601588354055
6326.302018123949	2.567105340346156
6327.619997711058	2.590674595383638
6328.938251877249	2.61436113085831
6330.256780679723	2.6382604864878747
6331.575584175699	2.662310786524839
6332.894662422402	2.6863985361433893
6334.214015477073	2.7104921116212433
6335.533643396964	2.734606460866653
6336.853546239339	2.7588695763823856
6338.173724061472	2.783495742796228
6339.494176920652	2.808457575466922
6340.814904874177	2.833531162261709
6342.135907979359	2.8586159637081567
6343.457186293522	2.883715303635214
6344.778739874001	2.9089639927832542
6346.100568778142	2.9347114993937415
6347.422673063304	2.961066205424045
6348.745052786858	2.9876994514898123
6350.067708006189	3.014368275427229
6351.39063877869	3.0410440377263046
6352.713845161769	3.0677721031303675
6354.037327212845	3.094739058588729
6355.3610849893485	3.1220923130709166
6356.685118548721	3.149686208815566
6358.009427948419	3.1773286094501905
6359.334013245908	3.2049774978181964
6360.658874498668	3.232652165104151
6361.984011764189	3.260480413017235
6363.309425099973	3.2886368508757506
6364.635114563535	3.317064174939274
6365.961080212403	3.345571092876258
6367.2873221041145	3.37408700787389
6368.61384029622	3.402612638574174
6369.940634846282	3.4311917036650605
6371.267705811875	3.459919366152099
6372.595053250586	3.488807601086382
6373.922677220014	3.5177624502750837
6375.250577777768	3.5467282732239584
6376.578754981471	3.5757062268668265
6377.907208888761	3.6048276849274807
6379.235939557279	3.6345276854188806
6380.564947044686	3.6650513000944223
6381.894231408654	3.6960227145767637
6383.223792706865	3.72706617638512
6384.553630997012	3.758117239585738
6385.883746336804	3.789220680494505
6387.2141387839565	3.8206169224395614
6388.544808396204	3.8525698710413776
6389.875755231287	3.884928080119114
6391.20697934696	3.917384918094987
6392.53848080099	3.9498508337937666
6393.870259651158	3.9823286772772746
6395.202315955253	4.0148626033234
6396.534649771077	4.047530478154993
6397.867261156446	4.08032678814416
6399.2001501691875	4.113171162178271
6400.533316867139	4.146024988945242
6401.866761308153	4.1788927908210365
6403.200483550093	4.211890595725274
6404.534483650832	4.245339799311616
6405.868761668259	4.27935935773555
6407.2033176602745	4.313651741618468
6408.5381516847865	4.347982183211243
6409.873263799722	4.382320834032464
6411.2086540630135	4.416704285411363
6412.544322532611	4.451289322259471
6413.880269266471	4.486208881584832
6415.216494322568	4.521345188319438
6416.552997758886	4.556529464575369
6417.8897796334195	4.591721941183195
6419.226840004177	4.626951665186337
6420.5641789291785	4.662424609189425
6421.9017964664545	4.698440991657328
6423.239692674053	4.7349210997864555
6424.577867610025	4.77154103475148
6425.9163213324455	4.808174482254394
6427.25505389939	4.844816300205993
6428.594065368952	4.881475457117226
6429.933355799238	4.918172448810545
6431.272925248362	4.954911020252982
6432.612773774456	4.991671236658899
6433.9529014356585	5.028440400674825
6435.293308290125	5.0652194099978916
6436.63399439602	5.102061315099413
6437.974959811519	5.139153777141569
6439.316204594813	5.176615315623763
6440.657728804104	5.214288046790456
6441.999532497605	5.25200076581137
6443.341615733541	5.289722324034737
6444.683978570154	5.327505323504902
6446.026621065689	5.3656444904086475
6447.369543278411	5.404483555798542
6448.7127452665945	5.443850280359646
6450.056227088525	5.483352157897729
6451.399988802502	5.522866113548728
6452.744030466836	5.562383145061477
6454.088352139851	5.601855807954934
6455.43295387988	5.641195304621787
6456.777835745272	5.680402746542576
6458.122997794385	5.719568629380074
6459.468440085592	5.758739256895737
6460.814162677278	5.797916367336953
6462.160165627836	5.837069791044251
6463.506448995675	5.876110906947823
6464.853012839217	5.91500159530384
6466.199857216891	5.9538223209183485
6467.546982187145	5.992641301831058
6468.894387808435	6.031472367890935
6470.242074139227	6.070474212228348
6471.590041238007	6.110361855210082
6472.938289163264	6.151786817819197
6474.286817973508	6.194233468595394
6475.6356277272525	6.236896039409773
6476.984718483029	6.279571955234399
6478.334090299379	6.322390625744224
6479.683743234858	6.366348818898621
6481.033677348033	6.412991606988441
6482.38389269748	6.461999984303251
6483.734389341793	6.511730847295145
6485.085167339573	6.561506633184907
6486.436226749436	6.6113165746729905
6487.787567630007	6.6614701034567485
6489.139190039932	6.712714279392381
6490.491094037857	6.765228011506651
6491.843279682447	6.818295046180146
6493.195747032382	6.871427474723284
6494.548496146348	6.924571072326728
6495.901527083045	6.9777280548659135
6497.254839901187	7.030906841100754
6498.6084346595	7.08411322062205
6499.962311416722	7.137340259607316
6501.316470231601	7.1905799561668395
6502.670911162898	7.243829102938347
6504.025634269391	7.296957208047034
6505.3806396098635	7.349202113677832
6506.735927243117	7.3996222028514085
6508.091497227958	7.448626892644707
6509.447349623215	7.497274977938662
6510.80348448772	7.545920404194264
6512.159901880322	7.594498202723867
6513.51660185988	7.642203908983067
6514.873584485267	7.687416301387029
6516.23084981537	7.730051133832082
6517.58839790908	7.771736735065523
6518.946228825313	7.813361030086851
6520.304342622985	7.8550732693554295
6521.662739361031	7.898387011340068
6523.021419098398	7.947965450360792
6524.380381894044	8.006078737376448
6525.739627806938	8.068580953420748
6527.099156896065	8.131693782667389
6528.458969220418	8.194815163642396
6529.819064839006	8.257595281525795
6531.179443810848	8.318354111081817
6532.540106194976	8.375432664441776
6533.9010520504335	8.429985418623856
6535.262281436278	8.484006146196734
6536.6237944115765	8.538026897346283
6537.985591035413	8.592064568406721
6539.347671366879	8.646163096854854
6540.71003546508	8.700393767738445
6542.072683389135	8.754745567997222
6543.435615198176	8.80914352475586
6544.798830951341	8.863554732813276
6546.162330707791	8.917999074778718
6547.526114526688	8.972786756945261
6548.890182467215	9.028709145368405
6550.254534588562	9.085995915223041
6551.619170949934	9.14389787925197
6552.984091610549	9.201875614379667
6554.349296629635	9.259869724708198
6555.7147860664345	9.318010763634136
6557.080559980198	9.376815683716377
6558.446618430195	9.436675246537588
6559.8129614757	9.497179991118117
6561.1795891760075	9.557810352599533
6562.54650159042	9.618451647153552
6563.913698778251	9.678782451941007
6565.281180798831	9.73678354353527
6566.648947711497	9.789760455543014
6568.016999575604	9.838670202660063
6569.385336450516	9.886483026019542
6570.753958395609	9.934263043030246
6572.122865470276	9.982222657106627
6573.492057733915	10.032199190119398
6574.861535245943	10.088045204782642
6576.231298065786	10.150127432496552
6577.601346252884	10.214617305262173
6578.971679866686	10.279312776255294
6580.342298966659	10.344044115700813
6581.7132036122775	10.409281605635842
6583.08439386303	10.476560976568235
6584.455869778419	10.546722827282812
6585.827631417956	10.618430872220504
6587.199678841168	10.690376355254562
6588.572012107595	10.762331443014
6589.944631276783	10.83391417802734
6591.3175364083	10.90316307595354
6592.690727561718	10.96799504333658
6594.064204796627	11.029678702941563
6595.437968172626	11.090658845417268
6596.812017749329	11.151634149716896
6598.18635358636	11.212674547913148
6599.5609757433585	11.274215210637294
6600.935884279972	11.337006842156828
6602.311079255864	11.400980242721957
6603.686560730708	11.465356531671809
6605.062328764195	11.529769948022953
6606.43838341602	11.594235904015456
6607.814724745898	11.659382807426455
6609.191352813554	11.726921876925555
6610.568267678725	11.79745244861447
6611.9454694011565	11.86938100599357
6613.322958040616	11.941480920294948
6614.700733656875	12.013589150533667
6616.07879630972	12.08547908572035
6617.457146058951	12.15621117599417
6618.835782964381	12.225020527656094
6620.214707085831	12.292626722701607
6621.593918483141	12.360017033067631
6622.973417216159	12.42741792917957
6624.353203344746	12.494837438333953
6625.733276928776	12.56230664990021
6627.113638028136	12.62986977179294
6628.494286702727	12.6975136974711
6629.8752230124555	12.76519046295969
6631.25644701725	12.832882087559604
6632.637958777046	12.900651449298467
6634.019758351792	12.96923531992579
6635.401845801448	13.040270975627346
6636.784221185991	13.114015981150647
6638.166884565405	13.188867715785404
6639.54983599969	13.263832720722315
6640.933075548856	13.338807780460526
6642.316603272929	13.413658277730137
6643.700419231944	13.487915638273119
6645.084523485952	13.561296215337075
6646.468916095012	13.634199751601043
6647.853597119198	13.707043796381368
6649.238566618597	13.779900169841234
6650.623824653309	13.852617099451496
6652.009371283446	13.924374504895775
6653.39520656913	13.99424634094895
6654.781330570499	14.062727367734977
6656.167743347702	14.130885309034477
6657.554444960899	14.19904726511641
6658.941435470266	14.267077430351813
6660.328714935989	14.333655626972345
6661.716283418268	14.39636297742597
6663.104140977314	14.455290441537397
6664.492287673351	14.512916779329515
6665.880723566617	14.570470248618783
6667.269448717359	14.627993458051336
6668.658463185843	14.68477244977341
6670.04776703234	14.738775439163513
6671.437360317139	14.789183037470849
6672.827243100539	14.837853080642182
6674.21741544285	14.886317162224605
6675.607877404403	14.934742705528233
6676.998629045529	14.981296000741114
6678.389670426579	15.017884328123058
6679.781001607919	15.037379826592119
6681.17262264992	15.045753657093682
6682.564533612973	15.051925417958673
6683.956734557476	15.05804313960722
6685.349225543842	15.060833814854496
6686.742006632498	15.036666677172189
6688.135077883879	14.950172247379921
6689.528439358438	14.809725420825695
6690.9220911166385	14.653219745542069
6692.316033218955	14.495912856469815
6693.710265725876	14.330443022692755
6695.104788697902	14.054470919170551
6696.4996021955485	13.427409261947501
6697.894706279339	12.398544791053753
6699.290101009814	11.200357917402886
6700.685786447524	9.985772103444265
6702.081762653035	8.774989002695165
6703.478029686921	7.674991919127491
6704.874587609773	7.076471289015871
6706.27143648219	7.238016759698689
6707.668576364793	7.835269982504472
6709.066007318201	8.503538668519738
6710.46372940306	9.172611945343652
6711.861742680019	9.844138636458998
6713.260047209744	10.531152311590835
6714.658643052912	11.249348531613757
6716.0575302702155	11.99145465008761
6717.4567089223565	12.739697728242295
6718.856179070049	13.488293006680877
6720.255940774021	14.232304319045294
6721.6559940950165	14.925279044180927
6723.056339093787	15.477235639679305
6724.456975831098	15.886849740434453
6725.85790436773	16.245201165235528
6727.259124764472	16.6000220301759
6728.660637082132	16.954162069507376
6730.062441381524	17.293879419666446
6731.464537723479	17.57803421676995
6732.866926168839	17.787821200562618
6734.269606778457	17.960196591435686
6735.672579613203	18.127665279115792
6737.075844733956	18.295118160129192
6738.4794022016085	18.461012869015406
6739.883252077068	18.617916699148488
6741.2873944212515	18.758692507826993
6742.691829295089	18.888562389564427
6744.096556759525	19.01617461680085
6745.5015768755175	19.14376737660356
6746.906889704033	19.271031752724348
6748.312495306054	19.395311015651757
6749.718393742578	19.51241460679132
6751.124585074607	19.62310198995106
6752.531069363165	19.73180845981639
6753.937846669282	19.840430995947912
6755.344917054005	19.949041300738557
6756.752280578391	20.057147890085094
6758.159937303512	20.163525131294406
6759.567887290451	20.26785368227074
6760.976130600304	20.371303973608764
6762.384667294178	20.474686179015023
6763.793497433198	20.578082608509796
6765.202621078498	20.68128391156694
6766.612038291223	20.78348410703409
6768.021749132533	20.884096619894713
6769.431753663604	20.98376810409898
6770.842051945616	21.083291948851937
6772.252644039771	21.182833902800336
6773.66353000728	21.282333576872297
6775.074709909365	21.381404289561598
6776.486183807264	21.479544905032046
6777.897951762223	21.576951082875524
6779.310013835508	21.674179117705204
6780.722370088391	21.771420414501872
6782.135020582158	21.868701968029637
6783.547965378113	21.966230556393526
6784.961204537568	22.06442792445206
6786.374738121846	22.163324373898952
6787.788566192289	22.262498669233416
6789.2026888102455	22.361713956298768
6790.617106037082	22.460948979889327
6792.031817934173	22.560184561080703
6793.446824562909	22.65935948589688
6794.862125984693	22.75844211677748
6796.27772226094	22.8574864226753
6797.693613453079	22.956543162854953
6799.109799622548	23.05561942934528
6800.5262808308025	23.1546598184334
6801.9430571393095	23.253388636792796
6803.360128609546	23.351523136187737
6804.777495303007	23.449246017726598
6806.195157281196	23.546892922436893
6807.6131146056305	23.64455786201931
6809.031367337839	23.742263616138537
6810.449915539369	23.840177706506275
6811.868759271772	23.938583900492496
6813.287898596622	24.037449937841817
6814.707333575495	24.13648007623896
6816.12706426999	24.235539145049575
6817.547090741715	24.3346228673936
6818.967413052284	24.43379170323028
6820.388031263337	24.533204641309364
6821.808945436517	24.632912742265518
6823.230155633484	24.732766974577515
6824.651661915907	24.832655941562322
6826.073464345473	24.93256248987351
6827.49556298388	25.03238294245486
6828.917957892834	25.131696244022642
6830.340649134063	25.230171226421703
6831.763636769299	25.328135951577075
6833.186920860294	25.42602365584794
6834.610501468806	25.5239303452857
6836.034378656611	25.621846626156195
6837.458552485498	25.71970269930638
6838.883023017267	25.817403327500116
6840.307790313729	25.914980338462268
6841.732854436711	26.01253805780454
6843.158215448053	26.1101145079276
6844.583873409604	26.2077024836291
6846.009828383232	26.305203864679797
6847.436080430813	26.40240675675304
6848.862629614236	26.49928397983408
6850.289475995406	26.596044446228102
6851.716619636238	26.692813360645864
6853.144060598662	26.78959407007855
6854.57179894462	26.886193490275694
6855.999834736067	26.981959068032992
6857.428168034971	27.07651613596371
6858.856798903312	27.170427662765203
6860.285727403084	27.264260441842616
6861.7149535962935	27.35811854703408
6863.144477544959	27.452369792344054
6864.5742993111135	27.548937879077087
6866.004418956804	27.649928394577998
6867.434836544087	27.754142174257286
6868.865552135034	27.85912865731439
6870.296565791729	27.96415779238419
6871.72787757627	28.068967706216622
6873.159487550764	28.171407037066967
6874.591395777338	28.267615419716485
6876.023602318125	28.35783603572047
6877.456107235274	28.44604437852143
6878.888910590949	28.534146895494203
6880.322012447323	28.62228769942556
6881.755412866582	28.710783776030134
6883.18911191093	28.800505921753896
6884.623109642579	28.891775391531073
6886.057406123754	28.983787674420988
6887.492001416697	29.075905236543903
6888.926895583659	29.168033059381607
6890.362088686906	29.25981552812006
6891.797580788715	29.349700515270506
6893.233371951381	29.43635953704125
6894.669462237203	29.520962033317808
6896.105851708503	29.60518511142568
6897.542540427609	29.68941354946823
6898.979528456865	29.772710954640125
6900.416815858628	29.848572691424422
6901.854402695265	29.907518449533008
6903.29228902916	29.95202701961551
6904.730474922708	29.992318490536263
6906.168960438317	30.03242058825924
6907.607745638409	30.07126125903941
6909.0468305854165	30.092942625383177
6910.48621534179	30.06069904255937
6911.925899969986	29.967602170950876
6913.365884532479	29.84940098555125
6914.806169091757	29.728902448157072
6916.246753710318	29.6088108152673
6917.687638450675	29.49974112449472
6919.128823375352	29.43932499750095
6920.570308546889	29.451461999198425
6922.012094027836	29.504601923349565
6923.454179880759	29.56431179185864
6924.896566168235	29.624138057933365
6926.339252952854	29.68733623318617
6927.782240297219	29.77250394555968
6929.225528263946	29.901474799860036
6930.669116915669	30.063444166103974
6932.113006315028	30.233520708198526
6933.557196524675	30.403875349845894
6935.001687607285	30.574012197863215
6936.446479625538	30.741574273887398
6937.8915726421255	30.90213594692017
6939.33696671976	31.055745584092254
6940.782661921161	31.20690822347599
6942.228658309061	31.357930507027543
6943.67495594621	31.508865143381012
6945.121554895365	31.657612310070423
6946.568455219301	31.79802830309188
6948.015656980806	31.927472299747162
6949.463160242676	32.05152002623336
6950.910965067728	32.17490680229621
6952.359071518784	32.298352753245986
6953.807479658683	32.423346576393584
6955.256189550279	32.55668385777968
6956.705201256435	32.70461482812472
6958.154514840031	32.862256442160664
6959.604130363956	33.02191450581483
6961.054047891116	33.181641652724814
6962.504267484427	33.340919122771645
6963.954789206819	33.49621191763866
6965.405613121237	33.642058257276865
6966.856739290638	33.779570983950556
6968.30816777799	33.91456077325699
6969.759898646277	34.049449770105994
6971.211931958496	34.18381017522427
6972.6642677776545	34.310196768211995
6974.116906166776	34.41058605072379
6975.569847188894	34.480731163253
6977.023090907059	34.537935624464595
6978.47663738433	34.59388087866644
6979.930486683786	34.64986978430718
6981.3846388685115	34.70679367210139
6982.83909400161	34.76799005408684
6984.293852146194	34.83578646482138
6985.748913365391	34.90746224603061
6987.204277722341	34.97980849831011
6988.659945280201	35.052182054407794
6990.115916102135	35.12508102949577
6991.572190251322	35.201529897768886
6993.028767790958	35.28530739766305
6994.485648784248	35.37479079152078
6995.942833294413	35.465746940747906
6997.400321384683	35.55676960952147
6998.858113118305	35.64680910132626
7000.316208558537	35.72588932335879
7001.774607768653	35.77417342179919
7003.23331081194	35.79071333225951
7004.692317751692	35.79543959012397
7006.151628651223	35.79926721409553
7007.6112435738605	35.80309187592968
7009.071162582939	35.80683745428094
7010.5313857418105	35.81026622014284
7011.9919131138395	35.81326245267957
7013.452744762405	35.81603834126253
7014.913880750897	35.81878550643512
7016.375321142722	35.82160746502661
7017.837066001293	35.8279014971306
7019.299115390043	35.853910639550286
7020.761469372417	35.915576942874715
7022.224128011869	36.00177117101019
7023.687091371872	36.093285287771245
7025.150359515908	36.18494123831116
7026.613932507475	36.27772222722368
7028.07781041008	36.38051942783718
7029.541993287248	36.50802336286249
7031.0064812025175	36.65811671601823
7032.471274219435	36.8153935892778
7033.936372401564	36.97308452651465
7035.401775812481	37.12979387163571
7036.867484515776	37.271054221724526
7038.33349857505	37.35983723983136
7039.79981805392	37.38513416272849
7041.266443016016	37.38188032131564
7042.733373524977	37.3755272688596
7044.200609644461	37.369397064682715
7045.668151438137	37.370550140963644
7047.135998969687	37.40701067565721
7048.604152302806	37.499906217093
7050.072611501203	37.626941713298045
7051.541376628598	37.76001914501791
7053.010447748729	37.89315893626446
7054.479824925345	38.02292229253153
7055.949508222204	38.12822333025021
7057.419497703085	38.18120093312894
7058.889793431773	38.191999540729505
7060.360395472071	38.19138870101825
