#wavelength (Angstrom)	surface_flux (erg / (Angstrom cm2 s))
6300.0	20.238810631915914
6301.3125	30.169351709742642
6302.6252734375	35.56730519911656
6303.938320369467	36.2117582855246
6305.251640852877	36.599976982887874
6306.565234944722	36.99362510748779
6307.8791027020025	37.38876103678722
6309.193244181732	37.784030916906104
6310.5076594409375	38.179617256487774
6311.822348536654	38.57795080577277
6313.137311525933	38.98400218050179
6314.452548465834	39.39813264313536
6315.768059413431	39.81537474081305
6317.083844425809	40.232938833894586
6318.399903560065	40.65064661380216
6319.716236873307	41.06965340277957
6321.032844422655	41.4936290370675
6322.349726265244	41.92446015417821
6323.666882458216	42.35891289511277
6324.984313058728	42.79394995610423
6326.302018123949	43.229098921433206
6327.619997711058	43.66529819275781
6328.938251877249	44.10721409367193
6330.256780679723	44.55962973848329
6331.575584175699	45.019447317593084
6332.894662422402	45.48098473892316
6334.214015477073	45.94265694232956
6335.533643396964	46.40444322785031
6336.853546239339	46.86648904215308
6338.173724061472	47.32903787894375
6339.494176920652	47.79205864205415
6340.814904874177	48.255296936505694
6342.135907979359	48.71863854608943
6343.457186293522	49.182318160197255
6344.778739874001	49.64983144807267
6346.100568778142	50.130240203477186
6347.422673063304	50.62635479047165
6348.745052786858	51.12965297808974
6350.067708006189	51.63383468644436
6351.39063877869	52.13813424445699
6352.713845161769	52.64295269423107
6354.037327212845	53.149941862049836
6355.3610849893485	53.660406739862566
6356.685118548721	54.173057862041624
6358.009427948419	54.68619429765045
6359.334013245908	55.199450285564
6360.658874498668	55.71366956324708
6361.984011764189	56.23431920369051
6363.309425099973	56.76886861597858
6364.635114563535	57.31486643136666
6365.961080212403	57.864129516572795
6367.2873221041145	58.41363785183271
6368.61384029622	58.96326358554063
6369.940634846282	59.51304053000601
6371.267705811875	60.06304225796352
6372.595053250586	60.6132780476485
6373.922677220014	61.16367530334415
6375.250577777768	61.714191044334534
6376.578754981471	62.26493053696039
6377.907208888761	62.81824414120808
6379.235939557279	63.381914952597455
6380.564947044686	63.96032745495657
6381.894231408654	64.54675810235885
6383.223792706865	65.13448445624786
6384.553630997012	65.72234912288494
6385.883746336804	66.31087121513814
6387.2141387839565	66.90285228747574
6388.544808396204	67.50136752292507
6389.875755231287	68.10465219722703
6391.20697934696	68.70913328066518
6392.53848080099	69.31376766271549
6393.870259651158	69.91874934327714
6395.202315955253	70.5259707770422
6396.534649771077	71.13876930215888
6397.867261156446	71.75690856838209
6399.2001501691875	72.37694380869524
6400.533316867139	72.99722009513275
6401.866761308153	73.6177638606414
6403.200483550093	74.24082477611395
6404.534483650832	74.87263439856851
6405.868761668259	75.51549917462388
6407.2033176602745	76.16365029031024
6408.5381516847865	76.81253582029228
6409.873263799722	77.46154955933696
6411.2086540630135	78.11042104710009
6412.544322532611	78.75799479040863
6413.880269266471	79.40329105933698
6415.216494322568	80.04717791594634
6416.552997758886	80.6908993220261
6417.8897796334195	81.33475822785151
6419.226840004177	81.98001617774969
6420.5641789291785	82.63538216646003
6421.9017964664545	83.31355013684482
6423.239692674053	84.01114959768496
6424.577867610025	84.7144852685764
6425.9163213324455	85.41821623177884
6427.25505389939	86.12234879890737
6428.594065368952	86.82997922990087
6429.933355799238	87.54818410295847
6431.272925248362	88.27825601625995
6432.612773774456	89.01331107751554
6433.9529014356585	89.74896444520712
6435.293308290125	90.48474949129212
6436.63399439602	91.22013765176948
6437.974959811519	91.95325970400586
6439.316204594813	92.6829351372375
6440.657728804104	93.41073666060437
6441.999532497605	94.13836967302184
6443.341615733541	94.86615572562637
6444.683978570154	95.59437556328186
6446.026621065689	96.32458122079414
6447.369543278411	97.05858278989312
6448.7127452665945	97.79547329083223
6450.056227088525	98.53318583069304
6451.399988802502	99.27107288340612
6452.744030466836	100.0093823738025
6454.088352139851	100.75058694827744
6455.43295387988	101.49931433304559
6456.777835745272	102.25550672603804
6458.122997794385	103.01444815111559
6459.468440085592	103.77372565232461
6460.814162677278	104.53321071315484
6462.160165627836	105.29379138872471
6463.506448995675	106.05807611231535
6464.853012839217	106.82718693088096
6466.199857216891	107.59875563741704
6467.546982187145	108.37077447933883
6468.894387808435	109.14299765308427
6470.242074139227	109.91711050084275
6471.590041238007	110.70071113675621
6472.938289163264	111.50072290462626
6474.286817973508	112.3116665095444
6475.6356277272525	113.12497954572001
6476.984718483029	113.93851105231403
6478.334090299379	114.75406253897394
6479.683743234858	115.58541303936957
6481.033677348033	116.4539211832358
6482.38389269748	117.35517714015737
6483.734389341793	118.26646714486351
6485.085167339573	119.17842478063412
6486.436226749436	120.09045833196649
6487.787567630007	121.00108381878644
6489.139190039932	121.9067184023997
6490.491094037857	122.80650408748751
6491.843279682447	123.70387606638933
6493.195747032382	124.6011743923594
6494.548496146348	125.49861805169103
6495.901527083045	126.39502935671479
6497.254839901187	127.28597219545857
6498.6084346595	128.1683962419251
6499.962311416722	129.04595743463955
6501.316470231601	129.9228746698883
6502.670911162898	130.79999007381235
6504.025634269391	131.6790461507082
6505.3806396098635	132.57018279457878
6506.735927243117	133.48592744241225
6508.091497227958	134.4208332365836
6509.447349623215	135.36081393105954
6510.80348448772	136.30115973760533
6512.159901880322	137.24027856711433
6513.51660185988	138.16345043442286
6514.873584485267	139.04101044052854
6516.23084981537	139.87141706339182
6517.58839790908	140.68446525231002
6518.946228825313	141.4964021453447
6520.304342622985	142.30886446039423
6521.662739361031	143.1286544958477
6523.021419098398	143.97672972015238
6524.380381894044	144.86329272808933
6525.739627806938	145.769710856951
6527.099156896065	146.67900353508946
6528.458969220418	147.58852156960302
6529.819064839006	148.4994095297418
6531.179443810848	149.4172631149597
6532.540106194976	150.34760795567755
6533.9010520504335	151.286598890397
6535.262281436278	152.22759532020913
6536.6237944115765	153.1688368956686
6537.985591035413	154.11331846879997
6539.347671366879	155.08464476288654
6540.71003546508	156.12111331537858
6542.072683389135	157.21680600851295
6543.435615198176	158.33144153443027
6544.798830951341	159.44733995500053
6546.162330707791	160.56298419845382
6547.526114526688	161.67144886462435
6548.890182467215	162.75506643526106
6550.254534588562	163.80870940491303
6551.619170949934	164.849103833131
6552.984091610549	165.88829269490807
6554.349296629635	166.92738398951897
6555.7147860664345	167.95681020735827
6557.080559980198	168.93868928218515
6558.446618430195	169.84438642572275
6559.8129614757	170.7039071775417
6561.1795891760075	171.55532549272652
6562.54650159042	172.4068258147138
6563.913698778251	173.25942359375273
6565.281180798831	174.1188684090484
6566.648947711497	174.99283252596172
6568.016999575604	175.87859098619523
6569.385336450516	176.76768637268
6570.753958395609	177.65708876308997
6572.122865470276	178.54941988261137
6573.492057733915	179.4743926027187
6574.861535245943	180.49430993757608
6576.231298065786	181.61510261199868
6577.601346252884	182.774855660525
6578.971679866686	183.93795794999676
6580.342298966659	185.10119231730712
6581.7132036122775	186.26223845748893
6583.08439386303	187.4135198905046
6584.455869778419	188.5508895767535
6585.827631417956	189.6809401610872
6587.199678841168	190.8101284715892
6588.572012107595	191.9394598136754
6589.944631276783	193.06394846309834
6591.3175364083	194.1578798838933
6592.690727561718	195.19394527655035
6594.064204796627	196.1887759600897
6595.437968172626	197.17442250528686
6596.812017749329	198.16003552736555
6598.18635358636	199.1436619807616
6599.5609757433585	200.10709549569813
6600.935884279972	201.01892851202197
6602.311079255864	201.8820563392495
6603.686560730708	202.72906567917477
6605.062328764195	203.57525927130595
6606.43838341602	204.42221294138125
6607.814724745898	205.27930436832793
6609.191352813554	206.17206993988444
6610.568267678725	207.109453500456
6611.9454694011565	208.06767511328889
6613.322958040616	209.02842988080178
6614.700733656875	209.98924778494384
6616.07879630972	210.94552480658186
6617.457146058951	211.87816911251963
6618.835782964381	212.7716379121593
6620.214707085831	213.64055321093483
6621.593918483141	214.50497651878388
6622.973417216159	215.36949647711168
6624.353203344746	216.23202027695973
6625.733276928776	217.0777482193531
6627.113638028136	217.88563508497333
6628.494286702727	218.66192210181867
6629.8752230124555	219.42944555658892
6631.25644701725	220.19676719105516
6632.637958777046	220.96675437949685
6634.019758351792	221.76841833389955
6635.401845801448	222.66622873662243
6636.784221185991	223.6703274339254
6638.166884565405	224.71760918084513
6639.54983599969	225.768955231682
6640.933075548856	226.81915408456913
6642.316603272929	227.83515537638652
6643.700419231944	228.70191800981172
6645.084523485952	229.34980270491326
6646.468916095012	229.87695011356456
6647.853597119198	230.3858726184438
6649.238566618597	230.8945038164544
6650.623824653309	231.38457956574118
6652.009371283446	231.7571237336679
6653.39520656913	231.90037124822658
6654.781330570499	231.8740345174039
6656.167743347702	231.80697712778175
6657.554444960899	231.73869788046588
6658.941435470266	231.66639168728184
6660.328714935989	231.55377200762408
6661.716283418268	231.33435339641835
6663.104140977314	231.01063589455939
6664.492287673351	230.65075071012393
6665.880723566617	230.28845769989394
6667.269448717359	229.91891031443467
6668.658463185843	229.42079660344072
6670.04776703234	228.4488872580897
6671.437360317139	226.86395613110412
6672.827243100539	224.98167531574916
6674.21741544285	223.06228371956004
6675.607877404403	221.13928999553744
6676.998629045529	219.09437844168474
6678.389670426579	216.4051106028434
6679.781001607919	212.6113359898945
6681.17262264992	208.09853205904528
6682.564533612973	203.4425172736674
6683.956734557476	198.78266083014952
6685.349225543842	194.03500561844308
6686.742006632498	188.58308102168394
6688.135077883879	181.504181372479
6689.528439358438	173.01678753135408
6690.9220911166385	164.10945169047505
6692.316033218955	155.18020955667964
6693.710265725876	146.19500339937855
6695.104788697902	136.4727965506897
6696.4996021955485	124.41255524528445
6697.894706279339	109.67679819480179
6699.290101009814	93.8126097670089
6700.685786447524	77.83764761990429
6702.081762653035	61.905257042257524
6703.478029686921	47.22618756303989
6704.874587609773	38.22195423722535
6706.27143648219	37.81906332095618
6707.668576364793	42.34669193820477
6709.066007318201	47.677550630612856
6710.46372940306	53.01960206478371
6711.861742680019	58.580112507410206
6713.260047209744	65.58326524115499
6714.658643052912	75.50327264812894
6716.0575302702155	87.6570445871757
6717.4567089223565	100.37524473645621
6718.856179070049	113.11454499894873
6720.255940774021	125.84430758195147
6721.6559940950165	138.445050763101
6723.056339093787	150.68533076683164
6724.456975831098	162.56174162183606
6725.85790436773	174.3085529539722
6727.259124764472	186.04853845232967
6728.660637082132	197.77152464171374
6730.062441381524	209.12346904222352
6731.464537723479	219.04445263702496
6732.866926168839	227.04998061789743
6734.269606778457	234.09218568315214
6735.672579613203	241.0085173484393
6737.075844733956	247.9238131272935
6738.4794022016085	254.74211149437133
6739.883252077068	261.004131194585
6741.2873944212515	266.268854429593
6742.691829295089	270.8589642219775
6744.096556759525	275.30885365754693
6745.5015768755175	279.75682679358994
6746.906889704033	284.1842921031601
6748.312495306054	288.43082361535465
6749.718393742578	292.2433755407437
6751.124585074607	295.6678077364902
6752.531069363165	298.9719440256561
6753.937846669282	302.27033280714
6755.344917054005	305.56547941471405
6756.752280578391	308.80198616435666
6758.159937303512	311.84170631634265
6759.567887290451	314.6486450559409
6760.976130600304	317.35472628020176
6762.384667294178	320.05126777643727
6763.793497433198	322.7470376808348
6765.202621078498	325.4038692337209
6766.612038291223	327.8748257512628
6768.021749132533	330.05296981755885
6769.431753663604	332.05619025423414
6770.842051945616	334.0291267415348
6772.252644039771	336.0019641729772
6773.66353000728	337.9603686935594
6775.074709909365	339.8132560532928
6776.486183807264	341.44258213976826
6777.897951762223	342.8944338849086
6779.310013835508	344.2998462599812
6780.722370088391	345.7039038754044
6782.135020582158	347.11195646795966
6783.547965378113	348.562286337051
6784.961204537568	350.13297485294913
6786.374738121846	351.82963136827516
6787.788566192289	353.5742673754151
6789.2026888102455	355.3230308348668
6790.617106037082	357.0728857008191
6792.031817934173	358.838776189435
6793.446824562909	360.6683927070733
6794.862125984693	362.58638501073756
6796.27772226094	364.5507135915916
6797.693613453079	366.52183934378206
6799.109799622548	368.4928412998042
6800.5262808308025	370.43484183884874
6801.9430571393095	372.2043683737134
6803.360128609546	373.6542769462112
6804.777495303007	374.8796428165835
6806.195157281196	376.05513097086344
6807.6131146056305	377.229625836846
6809.031367337839	378.4020296822582
6810.449915539369	379.5532259877837
6811.868759271772	380.65083264474083
6813.287898596622	381.6985316262144
6814.707333575495	382.7300726554231
6816.12706426999	383.76088151771506
6817.547090741715	384.7960942675855
6818.967413052284	385.8987693730211
6820.388031263337	387.2347360320838
6821.808945436517	388.8572486867959
6823.230155633484	390.6108552033592
6824.651661915907	392.37935855643997
6826.073464345473	394.14801461243786
6827.49556298388	395.90916366663504
6828.917957892834	397.6317885314412
6830.340649134063	399.29149353399225
6831.763636769299	400.9124450414452
6833.186920860294	402.5265570725963
6834.610501468806	404.14080498681227
6836.034378656611	405.74207327072634
6837.458552485498	407.2443435685372
6838.883023017267	408.5302503216836
6840.307790313729	409.6390095202361
6841.732854436711	410.69917596489313
6843.158215448053	411.75760287144925
6844.583873409604	412.8206225392278
6846.009828383232	413.936972027156
6847.436080430813	415.2118983695855
6848.862629614236	416.6589036418538
6850.289475995406	418.1742262377203
6851.716619636238	419.69568091949367
6853.144060598662	421.21201675958537
6854.57179894462	422.59776233257605
6855.999834736067	423.4288770382869
6857.428168034971	423.4618942550404
6858.856798903312	423.0626360248192
6860.285727403084	422.5994097460396
6861.7149535962935	422.136742345045
6863.144477544959	421.7344431964389
6864.5742993111135	421.70386108685466
6866.004418956804	422.38578290805697
6867.434836544087	423.58612418275374
6868.865552135034	424.9082629915019
6870.296565791729	426.23407328529936
6871.72787757627	427.57884687786094
6873.159487550764	429.1093295228309
6874.591395777338	431.1247265060264
6876.023602318125	433.6061899941546
6877.456107235274	436.2455922943957
6878.888910590949	438.8951710246007
6880.322012447323	441.53147675922725
6881.755412866582	443.9346514440346
6883.18911191093	445.5007147237299
6884.623109642579	446.00684742598685
6886.057406123754	446.01105991414124
6887.492001416697	445.9555475064949
6888.926895583659	445.9002720369422
6890.362088686906	445.8604666481393
6891.797580788715	445.9020472477888
6893.233371951381	446.08143204490676
6894.669462237203	446.3489574411858
6896.105851708503	446.6334002207631
6897.542540427609	446.9181304551592
6898.979528456865	447.20043628964993
6900.416815858628	447.4632862936891
6901.854402695265	447.68185766909863
6903.29228902916	447.8626407681546
6904.730474922708	448.0323953962079
6906.168960438317	448.201668704487
6907.607745638409	448.37654198892244
6909.0468305854165	448.6266863761626
6910.48621534179	449.1132242285424
6911.925899969986	449.8665184269935
6913.365884532479	450.72990210879954
6914.806169091757	451.6034256961226
6916.246753710318	452.47975342432335
6917.687638450675	453.42331534910375
6919.128823375352	454.662523812346
6920.570308546889	456.34244183009804
6922.012094027836	458.2715695055003
6923.454179880759	460.2409094106512
6924.896566168235	462.2100619530672
6926.339252952854	464.10975484869357
6927.782240297219	465.5531939817828
6929.225528263946	466.0862832529494
6930.669116915669	465.9337379544086
6932.113006315028	465.6132492895802
6933.557196524675	465.2876571391249
6935.001687607285	464.9799626836431
6936.446479625538	464.85734763447033
6937.8915726421255	465.23372387438826
6939.33696671976	466.1056612184132
6940.782661921161	467.15361643655706
6942.228658309061	468.2139792126231
6943.67495594621	469.282344142933
6945.121554895365	470.495889257622
6946.568455219301	472.25597194998596
6948.015656980806	474.7351127997421
6949.463160242676	477.5690603112896
6950.910965067728	480.448465201877
6952.359071518784	483.32714344817714
6953.807479658683	486.14410200439954
6955.256189550279	488.6211191271962
6956.705201256435	490.50230078641226
6958.154514840031	491.9875669567476
6959.604130363956	493.391930511039
6961.054047891116	494.7949482323417
6962.504267484427	496.18531208828074
6963.954789206819	497.46826196073437
6965.405613121237	498.4973879689578
6966.856739290638	499.30252109830116
6968.30816777799	500.0394235552073
6969.759898646277	500.7730237989092
6971.211931958496	501.5085885460227
6972.6642677776545	502.27034712278635
6974.116906166776	503.1169541639349
6975.569847188894	504.06223044340516
6977.023090907059	505.04986448665363
6978.47663738433	506.0418409580966
6979.930486683786	507.03304594552947
6981.3846388685115	507.9969399963973
6982.83909400161	508.8340560876898
6984.293852146194	509.47502733265657
6985.748913365391	510.00093702831595
6987.204277722341	510.50741941505476
6988.659945280201	511.0142279051412
6990.115916102135	511.56213724337994
6991.572190251322	512.3941005870944
6993.028767790958	513.81366048533
6994.485648784248	515.6904635998229
6995.942833294413	517.6844653501328
6997.400321384683	519.6827583961983
6998.858113118305	521.6626620441394
7000.316208558537	523.4369694339207
7001.774607768653	524.633431097375
7003.23331081194	525.2342560970018
7004.692317751692	525.6134519123052
7006.151628651223	525.9758448898425
7007.6112435738605	526.3361696536863
7009.071162582939	526.6510214975629
7010.5313857418105	526.7848465264594
7011.9919131138395	526.6716602822293
7013.452744762405	526.4324537229298
7014.913880750897	526.1764893971101
7016.375321142722	525.9198752971447
7017.837066001293	525.6375260521922
7019.299115390043	525.2092773821126
7020.761469372417	524.5171916709476
7022.224128011869	523.6436018211022
7023.687091371872	522.7306068444063
7025.150359515908	521.8166105528061
7026.613932507475	520.9358370374572
7028.07781041008	520.3569097120985
7029.541993287248	520.5236641841555
7031.0064812025175	521.3721311133742
7032.471274219435	522.4368613761028
7033.936372401564	523.5133333794689
7035.401775812481	524.5920373910186
7036.867484515776	525.701606708838
7038.33349857505	526.915326224545
7039.79981805392	528.2549840511191
7041.266443016016	529.6514378016575
7042.733373524977	531.0543149585735
7044.200609644461	532.4558365768047
7045.668151438137	533.8048293058763
7047.135998969687	534.8980877906421
7048.604152302806	535.5824146541056
7050.072611501203	536.0194730475267
7051.541376628598	536.4130038728221
7053.010447748729	536.8061509025272
7054.479824925345	537.201929957849
7055.949508222204	537.6161368326059
7057.419497703085	538.0696427557506
7058.889793431773	538.5548483868789
7060.360395472071	539.0487037872125
7061.831303887795	539.5429988137513
