#wavelength (Angstrom)	surface_flux (erg / (Angstrom cm2 s))
6300.0	0.05038057065314
6301.3125	0.07508349044038867
6302.6252734375	0.08847930520423548
6303.938320369467	0.09003392861981305
6305.251640852877	0.0909494689554308
6306.565234944722	0.09187781036188092
6307.8791027020025	0.092809659630883
6309.193244181732	0.09374182479949553
6310.5076594409375	0.09467477429149856
6311.822348536654	0.09561463526795308
6313.137311525933	0.09657393709934842
6314.452548465834	0.09755359041298164
6315.768059413431	0.09854107380542862
6317.083844425809	0.0995293554617132
6318.399903560065	0.10051802582258285
6319.716236873307	0.10151081024553792
6321.032844422655	0.10251954221713545
6322.349726265244	0.10355030524372127
6323.666882458216	0.10459267162980289
6324.984313058728	0.10563684747840515
6326.302018123949	0.1066812775744279
6327.619997711058	0.10772739654021153
6328.938251877249	0.10878235853095311
6330.256780679723	0.10985349675869104
6331.575584175699	0.11093606185635817
6332.894662422402	0.1120213423836776
6334.214015477073	0.11310690983708797
6335.533643396964	0.11419341642436291
6336.853546239339	0.11528665456275032
6338.173724061472	0.11639632189832357
6339.494176920652	0.11752117911395571
6340.814904874177	0.11865109286163732
6342.135907979359	0.11978151313563042
6343.457186293522	0.12091274967830859
6344.778739874001	0.12205320982147527
6346.100568778142	0.12322468781902116
6347.422673063304	0.12443394279544606
6348.745052786858	0.12566047818483517
6350.067708006189	0.12688914185136566
6351.39063877869	0.12811816044237684
6352.713845161769	0.12935079200194413
6354.037327212845	0.13060043577835945
6355.3610849893485	0.13187767755064758
6356.685118548721	0.1331720572389163
6358.009427948419	0.13446977701740054
6359.334013245908	0.13576781709496089
6360.658874498668	0.1370673017672806
6361.984011764189	0.13837572704421075
6363.309425099973	0.13970333436802718
6364.635114563535	0.14104676265687713
6365.961080212403	0.14239479192240856
6367.2873221041145	0.14374328139692888
6368.61384029622	0.14509237077221065
6369.940634846282	0.14644575408657337
6371.267705811875	0.14781147225282254
6372.595053250586	0.1491905370770077
6373.922677220014	0.15057500935680337
6375.250577777768	0.1519601876087049
6376.578754981471	0.1533459874644761
6377.907208888761	0.154739585585998
6379.235939557279	0.1561647471939716
6380.564947044686	0.15763486004419414
6381.894231408654	0.15912939416389948
6383.223792706865	0.1606278229615824
6384.553630997012	0.16212662641334233
6385.883746336804	0.1636282845690319
6387.2141387839565	0.16514611220633357
6388.544808396204	0.16669472456628784
6389.875755231287	0.16826573445951254
6391.20697934696	0.16984216043679845
6392.53848080099	0.17141904348840412
6393.870259651158	0.17299670994252492
6395.202315955253	0.1745790492001323
6396.534649771077	0.1761729201972903
6397.867261156446	0.1777778371998369
6399.2001501691875	0.17938672051219673
6400.533316867139	0.18099616892896195
6401.866761308153	0.1826065316410112
6403.200483550093	0.18422722993807877
6404.534483650832	0.1858843607376509
6405.868761668259	0.18758758309903995
6407.2033176602745	0.18931273792743933
6408.5381516847865	0.19104076230132325
6409.873263799722	0.1927692301725946
6411.2086540630135	0.19450102922575818
6412.544322532611	0.19624853292163388
6413.880269266471	0.198022232638675
6415.216494322568	0.19981283349723872
6416.552997758886	0.20160701546271775
6417.8897796334195	0.20340163650734477
6419.226840004177	0.20519847845396377
6420.5641789291785	0.20701025825278813
6421.9017964664545	0.20885551169317843
6423.239692674053	0.2107293172058495
6424.577867610025	0.21261167691807795
6425.9163213324455	0.21449479203497426
6427.25505389939	0.21637869143170216
6428.594065368952	0.21826813457379007
6429.933355799238	0.220173999291994
6431.272925248362	0.22209827254457454
6432.612773774456	0.22403037275841414
6433.9529014356585	0.22596355978791566
6435.293308290125	0.2278973613313708
6436.63399439602	0.2298369130981132
6437.974959811519	0.23180038315478815
6439.316204594813	0.23379924572043262
6440.657728804104	0.23581821544261436
6441.999532497605	0.23784071730859163
6443.341615733541	0.2398637056675438
6444.683978570154	0.2418901266524734
6446.026621065689	0.24393654292797548
6447.369543278411	0.2460222710753236
6448.7127452665945	0.24813763179184606
6450.056227088525	0.25026056748092945
6451.399988802502	0.2523841627348322
6452.744030466836	0.25450844768186576
6454.088352139851	0.25663569780036244
6455.43295387988	0.2587701717484848
6456.777835745272	0.26091181639760325
6458.122997794385	0.26305629200420955
6459.468440085592	0.2652013781446478
6460.814162677278	0.2673471524208989
6462.160165627836	0.26949795358262657
6463.506448995675	0.2716665257215023
6464.853012839217	0.2738583508133821
6466.199857216891	0.27606185831686575
6467.546982187145	0.27826723878165804
6468.894387808435	0.28047329178842234
6470.242074139227	0.28268827446713873
6471.590041238007	0.2849494130526666
6472.938289163264	0.287290627800687
6474.286817973508	0.2896850733108866
6475.6356277272525	0.2920907987482179
6476.984718483029	0.2944972537835008
6478.334090299379	0.29691024608644917
6479.683743234858	0.29937471995272225
6481.033677348033	0.3019603427243341
6482.38389269748	0.3046527304523304
6483.734389341793	0.3073777956064662
6485.085167339573	0.31010498689693694
6486.436226749436	0.3128338920197148
6487.787567630007	0.31557941518265525
6489.139190039932	0.3183775395419547
6490.491094037857	0.32123688250559773
6491.843279682447	0.32412294476981046
6493.195747032382	0.3270122255712211
6494.548496146348	0.3299022499124272
6495.901527083045	0.33279700681630187
6497.254839901187	0.3357115239475322
6498.6084346595	0.3386561345967412
6499.962311416722	0.34161845446510475
6501.316470231601	0.3445841922244906
6502.670911162898	0.34755053281693815
6504.025634269391	0.3505145247312408
6505.3806396098635	0.3534590562763349
6506.735927243117	0.35636298659092513
6508.091497227958	0.3592355078770452
6509.447349623215	0.3621003919973678
6510.80348448772	0.3649655856858474
6512.159901880322	0.3678295423871508
6513.51660185988	0.37067329010883293
6514.873584485267	0.37345859489152483
6516.23084981537	0.37618346999418867
6517.58839790908	0.37888631713695514
6518.946228825313	0.38158807674908995
6520.304342622985	0.38429351557533314
6521.662739361031	0.38706213440952325
6523.021419098398	0.390077251983009
6524.380381894044	0.3934281121222148
6525.739627806938	0.39695173122716904
6527.099156896065	0.4004995768488366
6528.458969220418	0.40404803134211054
6529.819064839006	0.40758576502942245
6531.179443810848	0.41105845383547485
6532.540106194976	0.4144124539348199
6533.9010520504335	0.4176850957680929
6535.262281436278	0.42094084865926673
6536.6237944115765	0.4241969203125686
6537.985591035413	0.427454803826861
6539.347671366879	0.43072328943448535
6540.71003546508	0.4340166387895645
6542.072683389135	0.4373326481844153
6543.435615198176	0.4406563174859095
6544.798830951341	0.44398106303055285
6546.162330707791	0.44730823945849385
6547.526114526688	0.45066258309268636
6548.890182467215	0.45410719873778627
6550.254534588562	0.4576604010312821
6551.619170949934	0.46126244848797127
6552.984091610549	0.4648703265684622
6554.349296629635	0.46847919208457267
6555.7147860664345	0.47209619785255713
6557.080559980198	0.47574966835687515
6558.446618430195	0.47946101392340107
6559.8129614757	0.48320779970076266
6561.1795891760075	0.48696155811086805
6562.54650159042	0.4907160848015833
6563.913698778251	0.49446189913951344
6565.281180798831	0.49813966904437335
6566.648947711497	0.5016702213290689
6568.016999575604	0.5050816766693896
6569.385336450516	0.5084613116938693
6570.753958395609	0.5118403941477851
6572.122865470276	0.5152271925602306
6573.492057733915	0.5186976504589634
6574.861535245943	0.5224110089028976
6576.231298065786	0.5263824263497723
6577.601346252884	0.5304536536548788
6578.971679866686	0.5345336719497036
6580.342298966659	0.5386156892969876
6581.7132036122775	0.542723842597336
6583.08439386303	0.5469369517317826
6584.455869778419	0.5512981596337871
6585.827631417956	0.5557388828028786
6587.199678841168	0.5601919506594512
6588.572012107595	0.5646458263406119
6589.944631276783	0.5690899541323206
6591.3175364083	0.5734702726148048
6592.690727561718	0.5777293686336803
6594.064204796627	0.5819022074921106
6595.437968172626	0.5860561714903475
6596.812017749329	0.590210520215592
6598.18635358636	0.5943680890652779
6599.5609757433585	0.5985484363021069
6600.935884279972	0.6027853014546989
6602.311079255864	0.6070755744879768
6603.686560730708	0.611384249643239
6605.062328764195	0.615694888310722
6606.43838341602	0.6200084501512745
6607.814724745898	0.6243574658153429
6609.191352813554	0.6288305195194324
6610.568267678725	0.6334586369688309
6611.9454694011565	0.6381593270869563
6613.322958040616	0.6428690913707237
6614.700733656875	0.6475798122940392
6616.07879630972	0.6522904242015417
6617.457146058951	0.6569965362717951
6618.835782964381	0.6616945739436249
6620.214707085831	0.6663879003918444
6621.593918483141	0.6710811298487154
6622.973417216159	0.6757753327185805
6624.353203344746	0.6804725549457309
6625.733276928776	0.685186679295482
6627.113638028136	0.6899374470036843
6628.494286702727	0.6947190038638053
6629.8752230124555	0.6995099290487564
6631.25644701725	0.7043021916474319
6632.637958777046	0.7090987980011006
6634.019758351792	0.7139384812947108
6635.401845801448	0.7189073155032226
6636.784221185991	0.7240188412228866
6638.166884565405	0.7291888064730089
6639.54983599969	0.7343649837745209
6640.933075548856	0.7395423197640022
6642.316603272929	0.744722754472793
6643.700419231944	0.749913040598721
6645.084523485952	0.7551172659279818
6646.468916095012	0.7603296702082013
6647.853597119198	0.7655442365839531
6649.238566618597	0.770759872914144
6650.623824653309	0.7759751490843573
6652.009371283446	0.7811823920624902
6653.39520656913	0.7863729373358483
6654.781330570499	0.7915514144135468
6656.167743347702	0.796727813842433
6657.554444960899	0.8019051931399828
6658.941435470266	0.8070802093256316
6660.328714935989	0.8122217394671981
6661.716283418268	0.8172727588722569
6663.104140977314	0.8222354120665453
6664.492287673351	0.8271681357775394
6665.880723566617	0.8320998862416681
6667.269448717359	0.8370327056826014
6668.658463185843	0.8419672960939194
6670.04776703234	0.8469056548135983
6671.437360317139	0.8518485874675641
6672.827243100539	0.856794268132661
6674.21741544285	0.8617411915622283
6675.607877404403	0.8666878941101823
6676.998629045529	0.8715865688853757
6678.389670426579	0.8762262998201826
6679.781001607919	0.8804213174425721
6681.17262264992	0.884327245087369
6682.564533612973	0.8881765496365566
6683.956734557476	0.8920250921521048
6685.349225543842	0.8957653630262029
6686.742006632498	0.8986229513522842
6688.135077883879	0.8994387532876066
6689.528439358438	0.8984872252430162
6690.9220911166385	0.8970101884094047
6692.316033218955	0.8955076550383785
6693.710265725876	0.8935931830917344
6695.104788697902	0.8860853968009927
6696.4996021955485	0.8608035126641304
6697.894706279339	0.815179950313059
6699.290101009814	0.7609850478956705
6700.685786447524	0.7059612249965904
6702.081762653035	0.6511266666685589
6703.478029686921	0.6017762064663851
6704.874587609773	0.5772459528487847
6706.27143648219	0.5903340626995526
6707.668576364793	0.6249873453863425
6709.066007318201	0.6631563970063699
6710.46372940306	0.7013629483647821
6711.861742680019	0.7394386132131623
6713.260047209744	0.7766013539202473
6714.658643052912	0.8119094079029153
6716.0575302702155	0.845799152341281
6717.4567089223565	0.8793370035667964
6718.856179070049	0.9128700493270753
6720.255940774021	0.9461939324334947
6721.6559940950165	0.9771903330028731
6723.056339093787	1.0017559370665257
6724.456975831098	1.0198303512591833
6725.85790436773	1.0355669727992394
6727.259124764472	1.0511424686992923
6728.660637082132	1.066694899861617
6730.062441381524	1.0817452402564667
6731.464537723479	1.0948593998583254
6732.866926168839	1.1053818482271287
6734.269606778457	1.1146008384811823
6735.672579613203	1.123649455273846
6737.075844733956	1.1326984800772104
6738.4794022016085	1.1417080801191373
6739.883252077068	1.1504855162961098
6741.2873944212515	1.158845713845893
6742.691829295089	1.1669240883643377
6744.096556759525	1.1749449004929464
6745.5015768755175	1.1829661893274241
6746.906889704033	1.190979928274324
6748.312495306054	1.1989171032990167
6749.718393742578	1.2066688558726646
6751.124585074607	1.214254914898483
6752.531069363165	1.2217904968586923
6753.937846669282	1.2293248800713104
6755.344917054005	1.236860974508101
6756.752280578391	1.244400776291756
6758.159937303512	1.2519492627105666
6759.567887290451	1.2595077308675158
6760.976130600304	1.267071428325948
6762.384667294178	1.2746370655495827
6763.793497433198	1.2822043059139252
6765.202621078498	1.2897739216164044
6766.612038291223	1.297348884569563
6768.021749132533	1.3049313577587205
6769.431753663604	1.3125189573840446
6770.842051945616	1.3201087586489009
6772.252644039771	1.3277001314461214
6773.66353000728	1.3352912589830517
6775.074709909365	1.3428709321146917
6776.486183807264	1.3504246238271533
6777.897951762223	1.3579580062192442
6779.310013835508	1.3654872056874547
6780.722370088391	1.3730177711927611
6782.135020582158	1.3805518946764945
6783.547965378113	1.3881101431973268
6784.961204537568	1.395734465448153
6786.374738121846	1.4034278752891745
6787.788566192289	1.411148474504886
6789.2026888102455	1.4188727043408131
6790.617106037082	1.426598923897402
6792.031817934173	1.4343349542870332
6793.446824562909	1.4421057538177793
6794.862125984693	1.4499242228419218
6796.27772226094	1.4577683609503589
6797.693613453079	1.465617476278954
6799.109799622548	1.4734682095006424
6800.5262808308025	1.4813189529026196
6801.9430571393095	1.4891617781370976
6803.360128609546	1.4969885539672738
6804.777495303007	1.5048045348452217
6806.195157281196	1.5126193735671092
6807.6131146056305	1.5204357812458693
6809.031367337839	1.5282569510683637
6810.449915539369	1.5361085313181115
6811.868759271772	1.5440339681951496
6813.287898596622	1.5520283221489977
6814.707333575495	1.5600463129220952
6816.12706426999	1.5680672447579413
6817.547090741715	1.5760902466555886
6818.967413052284	1.584121325566281
6820.388031263337	1.5921762778204471
6821.808945436517	1.6002601764939464
6823.230155633484	1.6083582144043924
6824.651661915907	1.616459323598047
6826.073464345473	1.6245621336436822
6827.49556298388	1.6326669886295675
6828.917957892834	1.640775294366993
6830.340649134063	1.6488881566332736
6831.763636769299	1.6570044807526723
6833.186920860294	1.6651228209864386
6834.610501468806	1.6732428556483712
6836.034378656611	1.681364411743919
6837.458552485498	1.6894863899055956
6838.883023017267	1.697607289998876
6840.307790313729	1.7057276137406365
6841.732854436711	1.7138490050189235
6843.158215448053	1.721972063068508
6844.583873409604	1.7300963470711517
6846.009828383232	1.7382166590106205
6847.436080430813	1.7463217734274912
6848.862629614236	1.7544102505264365
6850.289475995406	1.76249315804396
6851.716619636238	1.7705771291150278
6853.144060598662	1.7786628300002023
6854.57179894462	1.7867513148200063
6855.999834736067	1.7948461452248525
6857.428168034971	1.802949366317246
6858.856798903312	1.8110579060976453
6860.285727403084	1.819168671692043
6861.7149535962935	1.827281339390447
6863.144477544959	1.8354080053057726
6864.5742993111135	1.8436120474147442
6866.004418956804	1.851962836063931
6867.434836544087	1.8604208641091566
6868.865552135034	1.8689053962346913
6870.296565791729	1.8773923813635
6871.72787757627	1.8858745720905876
6873.159487550764	1.8942934111024858
6874.591395777338	1.9025438240042651
6876.023602318125	1.9106324301586401
6877.456107235274	1.918667438105698
6878.888910590949	1.9267007393641693
6880.322012447323	1.9347358040179132
6881.755412866582	1.9427740603549508
6883.18911191093	1.9508194314688
6884.623109642579	1.958873364880209
6886.057406123754	1.9669322367615456
6887.492001416697	1.974993175482704
6888.926895583659	1.9830554342801299
6890.362088686906	1.9911049928157025
6891.797580788715	1.9990806262202203
6893.233371951381	2.006929931451247
6894.669462237203	2.0146990383063654
6896.105851708503	2.022454101980875
6897.542540427609	2.0302105604896274
6898.979528456865	2.0379696342222378
6900.416815858628	2.045738175915995
6901.854402695265	2.0535261730706162
6903.29228902916	2.061331014713095
6904.730474922708	2.069141934693095
6906.168960438317	2.0769546823374028
6907.607745638409	2.084708349888566
6909.0468305854165	2.0916428664252917
6910.48621534179	2.096000481404225
6911.925899969986	2.09744995392984
6913.365884532479	2.0977004284830723
6914.806169091757	2.0978422970598865
6916.246753710318	2.097994606031734
6917.687638450675	2.0984131641146284
6919.128823375352	2.1000048445202393
6920.570308546889	2.1033455957734177
6922.012094027836	2.1076750991199815
6923.454179880759	2.1121635647579273
6924.896566168235	2.1166570337780763
6926.339252952854	2.121347224142804
6927.782240297219	2.127317987542724
6929.225528263946	2.135841765249158
6930.669116915669	2.146288873991412
6932.113006315028	2.1572086709836653
6933.557196524675	2.168144882263034
6935.001687607285	2.1790648267342037
6936.446479625538	2.189795929002364
6937.8915726421255	2.2000141492325644
6939.33696671976	2.2097230287454606
6940.782661921161	2.2192524213399794
6942.228658309061	2.22877121670222
6943.67495594621	2.2382863565749185
6945.121554895365	2.2476984373098383
6946.568455219301	2.256716621456368
6948.015656980806	2.265215894889454
6949.463160242676	2.273460207694789
6950.910965067728	2.2816737258545494
6952.359071518784	2.289891990835862
6953.807479658683	2.298246668569788
6955.256189550279	2.307339123477202
6956.705201256435	2.317722459630489
6958.154514840031	2.3289645596163684
6959.604130363956	2.3403845378956145
6961.054047891116	2.3518100961925668
6962.504267484427	2.3632011840284655
6963.954789206819	2.374288070422428
6965.405613121237	2.3846540051827088
6966.856739290638	2.39438390147042
6968.30816777799	2.4039211311852706
6969.759898646277	2.4134505111975852
6971.211931958496	2.422954528414718
6972.6642677776545	2.432067429698631
6974.116906166776	2.439903794328804
6975.569847188894	2.446254991572633
6977.023090907059	2.4519710727421944
6978.47663738433	2.4576258996027422
6979.930486683786	2.4632830074327967
6981.3846388685115	2.4689735002334747
6982.83909400161	2.474813794495397
6984.293852146194	2.480885077510342
6985.748913365391	2.487092449691687
6987.204277722341	2.4933239810304637
6988.659945280201	2.499557358194475
6990.115916102135	2.5058214517564443
6991.572190251322	2.512290602649756
6993.028767790958	2.519182630130361
6994.485648784248	2.5264039942426133
6995.942833294413	2.533710682759368
6997.400321384683	2.5410216389403657
6998.858113118305	2.548280106664888
7000.316208558537	2.554948412214418
7001.774607768653	2.5599574239966794
7003.23331081194	2.563256045016748
7004.692317751692	2.5659184561593342
7006.151628651223	2.5685329359209406
7007.6112435738605	2.571148571170429
7009.071162582939	2.5737777292615776
7010.5313857418105	2.576459033472843
7011.9919131138395	2.5792112847712727
7013.452744762405	2.58200000950921
7014.913880750897	2.5847940757965233
7016.375321142722	2.587592432034718
7017.837066001293	2.59056398192717
7019.299115390043	2.594516368676498
7020.761469372417	2.6002422697228527
7022.224128011869	2.6071883126374753
7023.687091371872	2.6143994275055573
7025.150359515908	2.6216181130054683
7026.613932507475	2.6288778646861304
7028.07781041008	2.636496741658285
7029.541993287248	2.645000259891065
7031.0064812025175	2.654312677992274
7032.471274219435	2.6638828896165174
7033.936372401564	2.6734687349921895
7035.401775812481	2.6830104780901727
7036.867484515776	2.69185067778836
7038.33349857505	2.698306657942622
7039.79981805392	2.7018781481640777
7041.266443016016	2.7041527124725078
7042.733373524977	2.7062869442125916
7044.200609644461	2.7084295598749932
7045.668151438137	2.710831966273391
7047.135998969687	2.714491878518908
