#wavelength (Angstrom)	surface_flux (erg / (Angstrom cm2 s))
6300.0	29.255117438185955
6301.3125	43.6388508663626
6302.6252734375	51.51186183213432
6303.938320369467	52.529648129282855
6305.251640852877	53.1831597493389
6306.565234944722	53.848902309475235
6307.8791027020025	54.517962520872345
6309.193244181732	55.187278929210464
6310.5076594409375	55.85732687094253
6311.822348536654	56.534253951485475
6313.137311525933	57.23063135991703
6314.452548465834	57.94737275218518
6315.768059413431	58.67191490979535
6317.083844425809	59.39720253004705
6318.399903560065	60.122645469739055
6319.716236873307	60.848329710505375
6321.032844422655	61.57452830545109
6322.349726265244	62.30138164386252
6323.666882458216	63.02864916834879
6324.984313058728	63.75610494453145
6326.302018123949	64.48375933171002
6327.619997711058	65.21395202023166
6328.938251877249	65.95828842000888
6330.256780679723	66.7286644063941
6331.575584175699	67.5173755266421
6332.894662422402	68.31029006324786
6334.214015477073	69.1034656311693
6335.533643396964	69.89675240791829
6336.853546239339	70.68971142489178
6338.173724061472	71.48160773683159
6339.494176920652	72.27253530942313
6340.814904874177	73.06326218572553
6342.135907979359	73.85413324819751
6343.457186293522	74.64592499352766
6344.778739874001	75.44958030336198
6346.100568778142	76.29346636264559
6347.422673063304	77.18638076047846
6348.745052786858	78.10164531238574
6350.067708006189	79.01953809834775
6351.39063877869	79.9375265570952
6352.713845161769	80.85229987346436
6354.037327212845	81.75026144446484
6355.3610849893485	82.62066959512006
6356.685118548721	83.47413863670768
6358.009427948419	84.32466981047232
6359.334013245908	85.17537209253335
6360.658874498668	86.02994765922864
6361.984011764189	86.9119923321207
6363.309425099973	87.85374401305434
6364.635114563535	88.84462253802405
6365.961080212403	89.84930945377242
6367.2873221041145	90.8547702993192
6368.61384029622	91.86065312042948
6369.940634846282	92.8694190032081
6371.267705811875	93.88642505466638
6372.595053250586	94.91234537563423
6373.922677220014	95.94189063104051
6375.250577777768	96.97192855323064
6376.578754981471	98.00234189974442
6377.907208888761	99.03659656600755
6379.235939557279	100.08616969475491
6380.564947044686	101.15752675705825
6381.894231408654	102.24075306554238
6383.223792706865	103.3259355658079
6384.553630997012	104.41132921107118
6385.883746336804	105.49525295087638
6387.2141387839565	106.5688248044294
6388.544808396204	107.62229527294666
6389.875755231287	108.6612594043621
6391.20697934696	109.69704533747182
6392.53848080099	110.73296296970175
6393.870259651158	111.76952929043543
6395.202315955253	112.8104454640659
6396.534649771077	113.8622384876005
6397.867261156446	114.92444611235099
6399.2001501691875	115.99033122440908
6400.533316867139	117.05665718990073
6401.866761308153	118.12359536932372
6403.200483550093	119.1974927993155
6404.534483650832	120.29593073564051
6405.868761668259	121.42541639814611
6407.2033176602745	122.56967402306842
6408.5381516847865	123.71586109234694
6409.873263799722	124.86202843971641
6411.2086540630135	125.99889343006653
6412.544322532611	127.08672104587545
6413.880269266471	128.09182026370098
6415.216494322568	129.04404033161669
6416.552997758886	129.98615661226154
6417.8897796334195	130.9283522176997
6419.226840004177	131.8788590756097
6420.5641789291785	132.8935492746432
6421.9017964664545	134.05386018754655
6423.239692674053	135.3381684167151
6424.577867610025	136.65861226931187
6425.9163213324455	137.98092715065323
6427.25505389939	139.3050977808107
6428.594065368952	140.65031243733262
6429.933355799238	142.06042656973324
6431.272925248362	143.54345064710412
6432.612773774456	145.0567230858593
6433.9529014356585	146.5730696367887
6435.293308290125	148.08933963314527
6436.63399439602	149.59597489884277
6437.974959811519	151.05916758262157
6439.316204594813	152.45756608932092
6440.657728804104	153.81961441140925
6441.999532497605	155.17615640825713
6443.341615733541	156.53292238777473
6444.683978570154	157.88891231571571
6446.026621065689	159.23830293829687
6447.369543278411	160.5743027395015
6448.7127452665945	161.9003149997689
6450.056227088525	163.22409514116987
6451.399988802502	164.5480748864868
6452.744030466836	165.87235685731721
6454.088352139851	167.1971840042742
6455.43295387988	168.52301097869375
6456.777835745272	169.84983215693956
6458.122997794385	171.17718432716157
6459.468440085592	172.50483051101733
6460.814162677278	173.83186286100764
6462.160165627836	175.1422674640271
6463.506448995675	176.389006310275
6464.853012839217	177.55184584168504
6466.199857216891	178.67349329978825
6467.546982187145	179.79015574315892
6468.894387808435	180.907137346039
6470.242074139227	182.02839249924315
6471.590041238007	183.17168083931855
6472.938289163264	184.35318480922209
6474.286817973508	185.5600971945092
6475.6356277272525	186.77240438475673
6476.984718483029	187.98512431540274
6478.334090299379	189.21411239418342
6479.683743234858	190.57862195528585
6481.033677348033	192.2635055649675
6482.38389269748	194.230597152162
6483.734389341793	196.28331533473855
6485.085167339573	198.34059620708203
6486.436226749436	200.39678464494307
6487.787567630007	202.4320934632971
6489.139190039932	204.39875020851034
6490.491094037857	206.2853143057438
6491.843279682447	208.1375886789564
6493.195747032382	209.9867741430697
6494.548496146348	211.83567611460094
6495.901527083045	213.66535579091172
6497.254839901187	215.40447707606575
6498.6084346595	217.00398820832066
6499.962311416722	218.52267849809678
6501.316470231601	220.02838998072582
6502.670911162898	221.53436549322066
6504.025634269391	223.04506956619394
6505.3806396098635	224.5859670582648
6506.735927243117	226.18851879968724
6508.091497227958	227.83904575882028
6509.447349623215	229.50217231965095
6510.80348448772	231.16606941906932
6512.159901880322	232.82389778100202
6513.51660185988	234.40928895577875
6514.873584485267	235.78849201500634
6516.23084981537	236.95455655074974
6517.58839790908	238.04181962848062
6518.946228825313	239.12353498330586
6520.304342622985	240.2047355618101
6521.662739361031	241.27128997762324
6523.021419098398	242.2796600372346
6524.380381894044	243.20865037280183
6525.739627806938	244.0969697260718
6527.099156896065	244.9798946851983
6528.458969220418	245.86401614603017
6529.819064839006	246.79915808591704
6531.179443810848	248.02630011527827
6532.540106194976	249.78340429027955
6533.9010520504335	251.90487536224563
6535.262281436278	254.10473134474785
6536.6237944115765	256.3066881558235
6537.985591035413	258.51656732770033
6539.347671366879	260.7922473509573
6540.71003546508	263.2276333182947
6542.072683389135	265.8082140721469
6543.435615198176	268.4352203296249
6544.798830951341	271.06530109227964
6546.162330707791	273.6917521264577
6547.526114526688	276.2551225459054
6548.890182467215	278.6037465480993
6550.254534588562	280.6936071418272
6551.619170949934	282.6682876424639
6552.984091610549	284.6311697747186
6554.349296629635	286.5928288434503
6555.7147860664345	288.5035849958442
6557.080559980198	290.1667292221547
6558.446618430195	291.4335705245271
6559.8129614757	292.4599174543571
6561.1795891760075	293.4434751374502
6562.54650159042	294.42670912571606
6563.913698778251	295.41147088402084
6565.281180798831	296.4060275574492
6566.648947711497	297.4214108665338
6568.016999575604	298.45370266120017
6569.385336450516	299.490742252769
6570.753958395609	300.5281729920783
6572.122865470276	301.57450280856307
6573.492057733915	302.72377251608145
6574.861535245943	304.1731703495058
6576.231298065786	305.9414669063993
6577.601346252884	307.83270196729285
6578.971679866686	309.7341666346062
6580.342298966659	311.6376830611725
6581.7132036122775	313.5780310026856
6583.08439386303	315.66878504673673
6584.455869778419	317.9721114216589
6585.827631417956	320.389185209761
6587.199678841168	322.8232174282569
6588.572012107595	325.25763939296894
6589.944631276783	327.6804463764741
6591.3175364083	330.0302525135505
6592.690727561718	332.2418661060237
6594.064204796627	334.3549895007688
6595.437968172626	336.4461339505592
6596.812017749329	338.5371173623718
6598.18635358636	340.6147324686022
6599.5609757433585	342.56432109738967
6600.935884279972	344.18808812963715
6602.311079255864	345.50426713577207
6603.686560730708	346.7180787408156
6605.062328764195	347.92589460831636
6606.43838341602	349.1335309328939
6607.814724745898	350.3340616687435
6609.191352813554	351.5086263413687
6610.568267678725	352.65061932469246
6611.9454694011565	353.77760398068483
6613.322958040616	354.9030999403287
6614.700733656875	356.0279298282255
6616.07879630972	357.1223687407107
6617.457146058951	358.0630908126548
6618.835782964381	358.7496955816714
6620.214707085831	359.27663516397683
6621.593918483141	359.7734987085402
6622.973417216159	360.2700663854349
6624.353203344746	360.77657912175096
6625.733276928776	361.3599649472879
6627.113638028136	362.1153956539336
6628.494286702727	363.01464708084626
6629.8752230124555	363.9544481775114
6631.25644701725	364.8960808565243
6632.637958777046	365.85523163349
6634.019758351792	367.03245543951914
6635.401845801448	368.8734323593471
6636.784221185991	371.4482730001362
6638.166884565405	374.3207292833128
6639.54983599969	377.22037230509795
6640.933075548856	380.11486235436985
6642.316603272929	382.8649243804605
6643.700419231944	384.9857733527711
6645.084523485952	386.1839482015086
6646.468916095012	386.8730150859012
6647.853597119198	387.48496270621405
6649.238566618597	388.0955116177565
6650.623824653309	388.63702733434013
6652.009371283446	388.74269792048636
6653.39520656913	387.9983148133984
6654.781330570499	386.62517596214883
6656.167743347702	385.10085800797873
6657.554444960899	383.5717617885207
6658.941435470266	382.0375661655389
6660.328714935989	380.45503851329096
6661.716283418268	378.74496658308243
6663.104140977314	376.9103289144108
6664.492287673351	375.03229842741337
6665.880723566617	373.15109727686837
6667.269448717359	371.254886132863
6668.658463185843	369.09664269938816
6670.04776703234	365.9733915052377
6671.437360317139	361.60163235447123
6672.827243100539	356.6241545467721
6674.21741544285	351.5708711974815
6675.607877404403	346.5110267050664
6676.998629045529	341.2423489466801
6678.389670426579	334.8715338274846
6679.781001607919	326.6117818365088
6681.17262264992	317.1222108409647
6682.564533612973	307.3873978789681
6683.956734557476	297.64571191281397
6685.349225543842	287.76546762653993
6686.742006632498	276.77732289421334
6688.135077883879	263.2304097964575
6689.528439358438	247.46826881763275
6690.9220911166385	231.0453051297652
6692.316033218955	214.5873924513923
6693.710265725876	198.0796537917409
6695.104788697902	180.93805864944088
6696.4996021955485	161.78962338731031
6697.894706279339	140.34493701372602
6699.290101009814	117.93071753297458
6700.685786447524	95.41966753274072
6702.081762653035	72.96639409972103
6703.478029686921	52.218645428195494
6704.874587609773	39.19380445395131
6706.27143648219	37.874648242815375
6707.668576364793	43.26543507957988
6709.066007318201	49.74920310039971
6710.46372940306	56.24908217325256
6711.861742680019	63.123944580613696
6713.260047209744	72.47822480070204
6714.658643052912	86.84617030949634
6716.0575302702155	105.05351358695732
6717.4567089223565	124.23057874558731
6718.856179070049	143.44335762998705
6720.255940774021	162.68327927938122
6721.6559940950165	182.17712438893986
6723.056339093787	202.36417998240316
6724.456975831098	223.25091254352333
6725.85790436773	244.3926752990199
6727.259124764472	265.55644310021177
6728.660637082132	286.69447124592466
6730.062441381524	307.25783365364737
6731.464537723479	325.60317587489874
6732.866926168839	340.9793116281433
6734.269606778457	354.86247800279244
6735.672579613203	368.55110120821735
6737.075844733956	382.23752910127666
6738.4794022016085	395.7150103083132
6739.883252077068	407.99536170196035
6741.2873944212515	418.1296955505159
6742.691829295089	426.8122920460374
6744.096556759525	435.19294376898847
6745.5015768755175	443.569351052688
6746.906889704033	451.92830886070175
6748.312495306054	460.12615610043497
6749.718393742578	467.9362907331781
6751.124585074607	475.39978040204215
6752.531069363165	482.756461240869
6753.937846669282	490.10891139671344
6755.344917054005	497.45776882250306
6756.752280578391	504.73078613855324
6758.159937303512	511.7477978535658
6759.567887290451	518.4618610577892
6760.976130600304	525.0450259169106
6762.384667294178	531.6163856823541
6763.793497433198	538.1832056601755
6765.202621078498	544.576350040867
6766.612038291223	550.1446702891415
6768.021749132533	554.4142741865157
6769.431753663604	557.9075845186361
6770.842051945616	561.2655702071265
6772.252644039771	564.6220436814202
6773.66353000728	567.9186104049102
6775.074709909365	570.7833836355795
6776.486183807264	572.7344026075455
6777.897951762223	573.9598347699983
6779.310013835508	574.9946806673222
6780.722370088391	576.0230164883933
6782.135020582158	577.0745805339444
6783.547965378113	578.3873297069675
6784.961204537568	580.4466061796055
6786.374738121846	583.2872765422876
6787.788566192289	586.4245751757553
6789.2026888102455	589.5859238090629
6790.617106037082	592.7526684736412
6792.031817934173	596.0221803631887
6793.446824562909	599.7051939749123
6794.862125984693	603.9623185842503
6796.27772226094	608.519638350343
6797.693613453079	613.119529229245
6799.109799622548	617.7180055362187
6800.5262808308025	622.1840158091819
6801.9430571393095	625.8667144207474
6803.360128609546	628.0986010279581
6804.777495303007	629.3109724637046
6806.195157281196	630.2961743926063
6807.6131146056305	631.2760030094116
6809.031367337839	632.2588884234382
6810.449915539369	633.2681782953005
6811.868759271772	634.3434219324558
6813.287898596622	635.480122539658
6814.707333575495	636.6370607123359
6816.12706426999	637.7953965992629
6817.547090741715	638.9759288747435
6818.967413052284	640.5091438982809
6820.388031263337	643.2641447219878
6821.808945436517	647.5200352525868
6823.230155633484	652.462097789607
6824.651661915907	657.4813488587696
6826.073464345473	662.4964824446043
6827.49556298388	667.3388047072253
6828.917957892834	671.3235896594148
6830.340649134063	673.9122855360541
6831.763636769299	675.6383790725106
6833.186920860294	677.2063914337001
6834.610501468806	678.7723211497757
6836.034378656611	680.3055323825134
6837.458552485498	681.5925625074287
6838.883023017267	682.3421579131357
6840.307790313729	682.6516366058435
6841.732854436711	682.8400191262638
6843.158215448053	683.0235820050789
6844.583873409604	683.2438648209126
6846.009828383232	683.9097540811408
6847.436080430813	685.9042352272754
6848.862629614236	689.3405855728464
6850.289475995406	693.3482811436328
6851.716619636238	697.405609160109
6853.144060598662	701.4448158284166
6854.57179894462	705.0281063920739
6855.999834736067	706.6759189945363
6857.428168034971	705.5387502240125
6858.856798903312	702.8930257257244
6860.285727403084	700.0238430468858
6861.7149535962935	697.1541882228153
6863.144477544959	694.3677798874177
6864.5742993111135	692.0963550858892
6866.004418956804	690.8124717174392
6867.434836544087	690.2469991117949
6868.865552135034	689.8499545762999
6870.296565791729	689.4575836367072
6871.72787757627	689.1738746059369
6873.159487550764	689.9691517785852
6874.591395777338	693.5845461769186
6876.023602318125	699.9103783909534
6877.456107235274	707.1535955429655
6878.888910590949	714.454340414286
6880.322012447323	721.7089266721671
6881.755412866582	728.1591082169945
6883.18911191093	731.7218787217905
6884.623109642579	731.6287797885984
6886.057406123754	729.8042763681102
6887.492001416697	727.7734107143058
6888.926895583659	725.7429419712105
6890.362088686906	723.7639647813015
6891.797580788715	722.0575154315328
6893.233371951381	720.8127814958683
6894.669462237203	719.8632255328731
6896.105851708503	718.9700140544252
6897.542540427609	718.0781070848781
6898.979528456865	717.2849055142419
6900.416815858628	717.2685295928193
6901.854402695265	719.0173189950635
6903.29228902916	722.2728556988096
6904.730474922708	725.9696774704494
6906.168960438317	729.6878682783266
6907.607745638409	733.3930913161797
6909.0468305854165	736.913289664758
6910.48621534179	739.8505619976785
6911.925899969986	742.129925507302
6913.365884532479	744.1382787509766
6914.806169091757	746.1224534900351
6916.246753710318	748.1113709666413
6917.687638450675	750.2114098196055
6919.128823375352	752.7996951328677
6920.570308546889	756.1157363111757
6922.012094027836	759.8433533959952
6923.454179880759	763.637476757627
6924.896566168235	767.4316459085861
6926.339252952854	771.1290307608543
6927.782240297219	774.1894653294925
6929.225528263946	775.9787950092906
6930.669116915669	776.8108394265043
6932.113006315028	777.4085651629323
6933.557196524675	777.9993537687093
6935.001687607285	778.5810458406321
6936.446479625538	779.0678464732189
6937.8915726421255	779.2986612334879
6939.33696671976	779.2752504547478
6940.782661921161	779.1615985221889
6942.228658309061	779.0416675963305
6943.67495594621	778.9447133437825
6945.121554895365	779.2762391070258
6946.568455219301	781.2226724949933
6948.015656980806	785.2939907747403
6949.463160242676	790.4134525023928
6950.910965067728	795.6666092675283
6952.359071518784	800.921304121287
6953.807479658683	806.1812851870455
6955.256189550279	811.4652653603258
6956.705201256435	816.790455817666
6958.154514840031	822.1434105628668
6959.604130363956	827.502942673169
6961.054047891116	832.8633728446829
6962.504267484427	838.1632017389878
6963.954789206819	842.9506808403714
6965.405613121237	846.5278325117553
6966.856739290638	849.0368694944315
6968.30816777799	851.2203545089706
6969.759898646277	853.3878199458937
6971.211931958496	855.5560549809452
6972.6642677776545	857.7293132163967
6974.116906166776	859.9178916963876
6975.569847188894	862.1242167781503
6977.023090907059	864.338402941733
6978.47663738433	866.5537765961996
6979.930486683786	868.7678564471503
6981.3846388685115	870.9331526766691
6982.83909400161	872.8716602699272
6984.293852146194	874.4592410676711
6985.748913365391	875.8410008196003
6987.204277722341	877.1880854753996
6988.659945280201	878.5361332771838
6990.115916102135	879.9854662635945
6991.572190251322	882.1346736857219
6993.028767790958	885.7316252516554
6994.485648784248	890.4551557360572
6995.942833294413	895.4674615455474
6997.400321384683	900.4903533601469
6998.858113118305	905.4593294877499
7000.316208558537	909.8272535773826
7001.774607768653	912.5061782692219
7003.23331081194	913.4441072067917
7004.692317751692	913.7341256949074
7006.151628651223	913.9748652468774
7007.6112435738605	914.2097084292544
7009.071162582939	914.3182532679814
7010.5313857418105	913.9244817023397
7011.9919131138395	912.8453569387525
7013.452744762405	911.4165002952178
7014.913880750897	909.9409992152143
7016.375321142722	908.463514580073
7017.837066001293	906.9134712990245
7019.299115390043	904.9528085698964
7020.761469372417	902.2497299129557
7022.224128011869	899.0358642312762
7023.687091371872	895.7109817168064
7025.150359515908	892.3830891300046
7026.613932507475	889.1333089370894
7028.07781041008	886.59519495958
7029.541993287248	885.8155425995498
7031.0064812025175	886.6434787950437
7032.471274219435	887.9812321174777
7033.936372401564	889.3464341122428
7035.401775812481	890.7353953988867
7036.867484515776	892.4829008977019
7038.33349857505	895.4458095773313
7039.79981805392	899.8788712847289
7041.266443016016	904.9736609486729
7042.733373524977	910.1412140119946
7044.200609644461	915.2988063043873
7045.668151438137	920.102333264711
7047.135998969687	923.1855485345097
7048.604152302806	923.5184331580298
7050.072611501203	922.1879251441584
7051.541376628598	920.5638712159869
7053.010447748729	918.9367940105265
7054.479824925345	917.3725911520133
7055.949508222204	916.2628141509107
7057.419497703085	916.1248262888219
7058.889793431773	916.7702517989276
7060.360395472071	917.6277197429787
7061.831303887795	918.4936879790502
7063.302518742772	919.3786600007074
7064.774040100844	920.4891480410555
