#wavelength (Angstrom)	surface_flux (erg / (Angstrom cm2 s))
6300.0	6.440870054100094
6301.3125	9.597811635133764
6302.6252734375	11.307542455444894
6303.938320369467	11.50286978004069
6305.251640852877	11.616400220494297
6306.565234944722	11.731511282742
6307.8791027020025	11.84705555518207
6309.193244181732	11.962638927942805
6310.5076594409375	12.078313164669733
6311.822348536654	12.194771676148017
6313.137311525933	12.313432410710108
6314.452548465834	12.434398424414917
6315.768059413431	12.556252671437816
6317.083844425809	12.67819936225687
6318.399903560065	12.80018760163533
6319.716236873307	12.922546353346675
6321.032844422655	13.04632055775988
6322.349726265244	13.172047411579076
6323.666882458216	13.298806113799632
6324.984313058728	13.425731830075122
6326.302018123949	13.552687852707058
6327.619997711058	13.67983190226686
6328.938251877249	13.80794965720579
6330.256780679723	13.937846460213777
6331.575584175699	14.069000730624492
6332.894662422402	14.200455768130704
6334.214015477073	14.331944832037886
6335.533643396964	14.463522463404038
6336.853546239339	14.595685659232077
6338.173724061472	14.729266489169188
6339.494176920652	14.864158620199333
6340.814904874177	14.999492602331605
6342.135907979359	15.134878042076565
6343.457186293522	15.270346519239693
6344.778739874001	15.406691802316526
6346.100568778142	15.545971568567733
6347.422673063304	15.688823973149544
6348.745052786858	15.83331386080576
6350.067708006189	15.978010663669194
6351.39063877869	16.122746062647703
6352.713845161769	16.267797653988914
6354.037327212845	16.41430717239023
6355.3610849893485	16.563176620399823
6356.685118548721	16.713514709602233
6358.009427948419	16.864145746482507
6359.334013245908	17.014812718521053
6360.658874498668	17.16564382516834
6361.984011764189	17.31748652732349
6363.309425099973	17.471498670505056
6364.635114563535	17.627300268072414
6365.961080212403	17.78362284540756
6367.2873221041145	17.93999826855587
6368.61384029622	18.096424806529775
6369.940634846282	18.25311714099991
6371.267705811875	18.410542571363266
6372.595053250586	18.568759901912973
6373.922677220014	18.72730775091508
6375.250577777768	18.88591289599332
6376.578754981471	19.044583389081314
6377.907208888761	19.204015419735413
6379.235939557279	19.3665143867549
6380.564947044686	19.533379000025654
6381.894231408654	19.70261770522649
6383.223792706865	19.872239276045395
6384.553630997012	20.04190267476253
6385.883746336804	20.211875858089012
6387.2141387839565	20.383596053155514
6388.544808396204	20.55864086200671
6389.875755231287	20.736104953063276
6391.20697934696	20.914155311179552
6392.53848080099	21.0922566018561
6393.870259651158	21.2704235781396
6395.202315955253	21.448900620770324
6396.534649771077	21.62811869120614
6397.867261156446	21.808047273431363
6399.2001501691875	21.988241542186472
6400.533316867139	22.168487797682666
6401.866761308153	22.348817012132013
6403.200483550093	22.529968053870753
6404.534483650832	22.713987579703183
6405.868761668259	22.90163310507137
6407.2033176602745	23.091009951878913
6408.5381516847865	23.280623110143505
6409.873263799722	23.47028149830986
6411.2086540630135	23.660182308611656
6412.544322532611	23.851170588632716
6413.880269266471	24.043962849299366
6415.216494322568	24.23792430068734
6416.552997758886	24.43214525524873
6417.8897796334195	24.626411601845607
6419.226840004177	24.82091580359131
6420.5641789291785	25.017016863827862
6421.9017964664545	25.216695619048277
6423.239692674053	25.41942612340129
6424.577867610025	25.623071294340953
6425.9163213324455	25.826797709865268
6427.25505389939	26.030589990026947
6428.594065368952	26.23473253839309
6429.933355799238	26.43987535854871
6431.272925248362	26.646137184203994
6432.612773774456	26.852885722426596
6433.9529014356585	27.05971822293196
6435.293308290125	27.266610486918275
6436.63399439602	27.473967005918237
6437.974959811519	27.68321868337311
6439.316204594813	27.895269221129237
6440.657728804104	28.108914760540927
6441.999532497605	28.322849870448977
6443.341615733541	28.536835459810366
6444.683978570154	28.75115938464304
6446.026621065689	28.96743741885619
6447.369543278411	29.187553995106825
6448.7127452665945	29.41056484831771
6450.056227088525	29.634318147122567
6451.399988802502	29.858139241670187
6452.744030466836	30.08202207705715
6454.088352139851	30.306105714784827
6455.43295387988	30.530650411039016
6456.777835745272	30.755652923152553
6458.122997794385	30.98084804786809
6459.468440085592	31.206100096313534
6460.814162677278	31.431422378261544
6462.160165627836	31.657234052449716
6463.506448995675	31.884766300950737
6464.853012839217	32.114548727305824
6466.199857216891	32.34546352535936
6467.546982187145	32.57656302445669
6468.894387808435	32.80772678030181
6470.242074139227	33.03957601216787
6471.590041238007	33.274911749022294
6472.938289163264	33.516286266936454
6474.286817973508	33.761679631240696
6475.6356277272525	34.00793532392786
6476.984718483029	34.25425882664823
6478.334090299379	34.50091358858811
6479.683743234858	34.749984100171034
6481.033677348033	35.00470148917445
6482.38389269748	35.26439864408301
6483.734389341793	35.525639443622836
6485.085167339573	35.78700694648556
6486.436226749436	36.048544449004076
6487.787567630007	36.31175513790287
6489.139190039932	36.58026815038809
6490.491094037857	36.85495260809932
6491.843279682447	37.13232902891105
6493.195747032382	37.41002720578478
6494.548496146348	37.68779772205008
6495.901527083045	37.96604867661941
6497.254839901187	38.24631747860227
6498.6084346595	38.52966127771605
6499.962311416722	38.81481309366097
6501.316470231601	39.1003108469138
6502.670911162898	39.38586648733387
6504.025634269391	39.67117379920171
6505.3806396098635	39.95445728361467
6506.735927243117	40.23352337758704
6508.091497227958	40.50932585705911
6509.447349623215	40.784331274078234
6510.80348448772	41.0593642002278
6512.159901880322	41.33432911824678
6513.51660185988	41.60792971575855
6514.873584485267	41.877553551223116
6516.23084981537	42.14306487829991
6517.58839790908	42.40708760814755
6518.946228825313	42.67105255913443
6520.304342622985	42.935268360882695
6521.662739361031	43.203474558735095
6523.021419098398	43.48719248136933
6524.380381894044	43.79203098192245
6525.739627806938	44.10774677431784
6527.099156896065	44.4250048070157
6528.458969220418	44.74232363786988
6529.819064839006	45.05912996102862
6531.179443810848	45.37268097421187
6532.540106194976	45.68026822077686
6533.9010520504335	45.98377651087387
6535.262281436278	46.28646088969733
6536.6237944115765	46.58919032530614
6537.985591035413	46.89207922577783
6539.347671366879	47.195875131489245
6540.71003546508	47.50179088366572
6542.072683389135	47.80963907563875
6543.435615198176	48.118144066669124
6544.798830951341	48.42674596973034
6546.162330707791	48.73551435677114
6547.526114526688	49.04590350238932
6548.890182467215	49.361623397190556
6550.254534588562	49.6837507793474
6551.619170949934	50.00877340054028
6552.984091610549	50.33416240394202
6554.349296629635	50.65962344691805
6555.7147860664345	50.985283896599576
6557.080559980198	51.31164828025548
6558.446618430195	51.639097970120666
6559.8129614757	51.96723336777284
6561.1795891760075	52.29554741984809
6562.54650159042	52.62392521201146
6563.913698778251	52.951745338109085
6565.281180798831	53.27509539582977
6566.648947711497	53.58875464408022
6568.016999575604	53.89457738668391
6569.385336450516	54.198318719301476
6570.753958395609	54.50204046609816
6572.122865470276	54.806261609077886
6573.492057733915	55.11570557405225
6574.861535245943	55.44027660185637
6576.231298065786	55.78091749959412
6577.601346252884	56.127785728140196
6578.971679866686	56.47522023635374
6580.342298966659	56.822788865748876
6581.7132036122775	57.17178842752311
6583.08439386303	57.526453703058834
6584.455869778419	57.88910264928999
6585.827631417956	58.25605046860051
6587.199678841168	58.62368827573422
6588.572012107595	58.99139166226449
6589.944631276783	59.35832917136376
6591.3175364083	59.72023453107058
6592.690727561718	60.07257696631
6594.064204796627	60.41811577485683
6595.437968172626	60.76216845124099
6596.812017749329	61.10625451061747
6598.18635358636	61.45048102227389
6599.5609757433585	61.79541919953604
6600.935884279972	62.14205442295356
6602.311079255864	62.49029587289179
6603.686560730708	62.83912120759804
6605.062328764195	63.18805034330237
6606.43838341602	63.53714672100371
6607.814724745898	63.887929129463046
6609.191352813554	64.24453337143696
6610.568267678725	64.60840797321637
6611.9454694011565	64.97570161978406
6613.322958040616	65.34344971631234
6614.700733656875	65.71125841716939
6616.07879630972	66.07858648831295
6617.457146058951	66.44318991424132
6618.835782964381	66.80324182880854
6620.214707085831	67.16046089249049
6621.593918483141	67.5172051173653
6622.973417216159	67.87401451953825
6624.353203344746	68.2307559265082
6625.733276928776	68.58646143300413
6627.113638028136	68.93975466913065
6628.494286702727	69.29104383175054
6629.8752230124555	69.64182245489306
6631.25644701725	69.99265049992077
6632.637958777046	70.34361529011855
6634.019758351792	70.69545385586987
6635.401845801448	71.04980403309162
6636.784221185991	71.40692348497858
6638.166884565405	71.76520906722769
6639.54983599969	72.12366700115611
6640.933075548856	72.48212468457568
6642.316603272929	72.83876958755928
6643.700419231944	73.1872926476125
6645.084523485952	73.5238747254675
6646.468916095012	73.85389805669554
6647.853597119198	74.18298463105602
6649.238566618597	74.51210352728286
6650.623824653309	74.83934328131957
6652.009371283446	75.15437367655055
6653.39520656913	75.44552970312304
6654.781330570499	75.71904361113288
6656.167743347702	75.98836502182692
6657.554444960899	76.25761476360626
6658.941435470266	76.52541081220559
6660.328714935989	76.7781003643663
6661.716283418268	76.99066827479953
6663.104140977314	77.16405519705248
6664.492287673351	77.32389552062706
6665.880723566617	77.48289140923275
6667.269448717359	77.64095002663578
6668.658463185843	77.78167324427342
6670.04776703234	77.8583952836161
6671.437360317139	77.8522964948494
6672.827243100539	77.80604732799749
6674.21741544285	77.75482514601562
6675.607877404403	77.70295104993923
6676.998629045529	77.6264754574026
6678.389670426579	77.41967572709915
6679.781001607919	76.98943405021764
6681.17262264992	76.41375714260356
6682.564533612973	75.80916985868258
6683.956734557476	75.20381956712573
6685.349225543842	74.57054073589165
6686.742006632498	73.71193872560262
6688.135077883879	72.33256204313875
6689.528439358438	70.50236857721679
6690.9220911166385	68.53789403926815
6692.316033218955	66.56658994369107
6693.710265725876	64.55936351358154
6695.104788697902	62.069208442171266
6696.4996021955485	58.04526744161273
6697.894706279339	52.26603084380555
6699.290101009814	45.74694594817605
6700.685786447524	39.15596456983344
6702.081762653035	32.58384118822753
6703.478029686921	26.564235598098833
6704.874587609773	23.046010629845025
6706.27143648219	23.319076919041652
6707.668576364793	25.765452843270996
6709.066007318201	28.565960869893033
6710.46372940306	31.370943642941363
6711.861742680019	34.23091970753694
6713.260047209744	37.452342734127356
6714.658643052912	41.404256954898756
6716.0575302702155	45.9156623552268
6717.4567089223565	50.56866884780417
6718.856179070049	55.22726305353237
6720.255940774021	59.86734054597821
6721.6559940950165	64.29792066801004
6723.056339093787	68.14906224843494
6724.456975831098	71.4153204916089
6725.85790436773	74.47115205141002
6727.259124764472	77.51279811157403
6728.660637082132	80.54889003154922
6730.062441381524	83.46676467040966
6731.464537723479	85.92913542809373
6732.866926168839	87.78182672965941
6734.269606778457	89.32782543993217
6735.672579613203	90.83362403436544
6737.075844733956	92.33917517122765
6738.4794022016085	93.82484411521216
6739.883252077068	95.19640337895972
6741.2873944212515	96.3633724595684
6742.691829295089	97.39195395737525
6744.096556759525	98.39178553103949
6745.5015768755175	99.39124215212179
6746.906889704033	100.38653083577474
6748.312495306054	101.34489832683757
6749.718393742578	102.21468170798232
6751.124585074607	103.00524392968754
6752.531069363165	103.77126506439872
6753.937846669282	104.53613181280947
6755.344917054005	105.3004839627579
6756.752280578391	106.05481991494175
6758.159937303512	106.7754452549272
6759.567887290451	107.45618629251157
6760.976130600304	108.11967014020634
6762.384667294178	108.78155929924655
6763.793497433198	109.44346872097665
6765.202621078498	110.10203132614484
6766.612038291223	110.7442842785326
6768.021749132533	111.360793504667
6769.431753663604	111.96195925533966
6770.842051945616	112.56054176039686
6772.252644039771	113.15920583534415
6773.66353000728	113.75688352334645
6775.074709909365	114.34675693434316
6776.486183807264	114.91999015753603
6777.897951762223	115.48003294764045
6779.310013835508	116.03669365647879
6780.722370088391	116.59334696323572
6782.135020582158	117.15004270162599
6783.547965378113	117.7060205397605
6784.961204537568	118.25972966260986
6786.374738121846	118.81105868343946
6787.788566192289	119.36155662356838
6789.2026888102455	119.91209449101173
6790.617106037082	120.46271401783682
6792.031817934173	121.01273621848173
6793.446824562909	121.55999423505753
6794.862125984693	122.10336809618816
6796.27772226094	122.64476795752097
6797.693613453079	123.18599036504583
6799.109799622548	123.72730744021457
6800.5262808308025	124.26785030640951
6801.9430571393095	124.80329226025809
6803.360128609546	125.32919588035915
6804.777495303007	125.8484283864589
6806.195157281196	126.36625719759327
6807.6131146056305	126.88415649037294
6809.031367337839	127.4020724053867
6810.449915539369	127.91925793846602
6811.868759271772	128.43444770022393
6813.287898596622	128.94778559318965
6814.707333575495	129.46059049066787
6816.12706426999	129.97346521337707
6817.547090741715	130.48646181942627
6818.967413052284	130.99980664220266
6820.388031263337	131.51409485001722
6821.808945436517	132.02951759065837
6823.230155633484	132.54551698222295
6824.651661915907	133.06167602594033
6826.073464345473	133.57792765647397
6827.49556298388	134.09379262404988
6828.917957892834	134.6073245014363
6830.340649134063	135.11699238633952
6831.763636769299	135.62431282648453
6833.186920860294	136.13128856378222
6834.610501468806	136.63836085386475
6836.034378656611	137.1451575329489
6837.458552485498	137.64921581264338
6838.883023017267	138.14717539651852
6840.307790313729	138.64015910530404
6841.732854436711	139.13184763677924
6843.158215448053	139.62358243495535
6844.583873409604	140.11537534545667
6846.009828383232	140.60673222057272
6847.436080430813	141.09658592971476
6848.862629614236	141.58479959039525
6850.289475995406	142.07242531533788
6851.716619636238	142.5600936536641
6853.144060598662	143.04775929073844
6854.57179894462	143.53301478095565
6855.999834736067	144.00772392441377
6857.428168034971	144.46721525921308
6858.856798903312	144.9185079646145
6860.285727403084	145.3686689072386
6861.7149535962935	145.81894563952744
6863.144477544959	146.27103111805872
6864.5742993111135	146.73375604541985
6866.004418956804	147.21678606742452
6867.434836544087	147.71461645047142
6868.865552135034	148.21599795858867
6870.296565791729	148.71757959295545
6871.72787757627	149.21865536145893
6873.159487550764	149.71377899904203
6874.591395777338	150.19317781650943
6876.023602318125	150.65746744984864
6877.456107235274	151.116712061352
6878.888910590949	151.5757379240896
6880.322012447323	152.034764575202
6881.755412866582	152.49228376663052
6883.18911191093	152.94415209980727
6884.623109642579	153.38884101289577
6886.057406123754	153.8301785800385
6887.492001416697	154.2711983625805
6888.926895583659	154.71227152033887
6890.362088686906	155.15193752257676
6891.797580788715	155.58381390935423
6893.233371951381	156.0024378601055
6894.669462237203	156.4126182005382
6896.105851708503	156.8212513222943
6897.542540427609	157.22985480560962
6898.979528456865	157.62508553861807
6900.416815858628	157.91465972009036
6901.854402695265	157.96407650602936
6903.29228902916	157.80850341887896
6904.730474922708	157.59293675788888
6906.168960438317	157.37452209466034
6907.607745638409	157.15917514404788
6909.0468305854165	156.985873882115
6910.48621534179	156.9447593059628
6911.925899969986	157.05281812397772
6913.365884532479	157.22240197169015
6914.806169091757	157.39759335865776
6916.246753710318	157.57384455432071
6917.687638450675	157.7762997198052
6919.128823375352	158.09409796639727
6920.570308546889	158.5838508923665
6922.012094027836	159.17082464794996
6923.454179880759	159.77345687980534
6924.896566168235	160.37615661531154
6926.339252952854	160.96458488137569
6927.782240297219	161.4590408672445
6929.225528263946	161.765955859303
6930.669116915669	161.93163355109718
6932.113006315028	162.06274675555957
6933.557196524675	162.19285240326025
6935.001687607285	162.330353265507
6936.446479625538	162.54381473018373
6937.8915726421255	162.9619798766914
6939.33696671976	163.58344191233041
6940.782661921161	164.2771482250924
6942.228658309061	164.97599816786825
6943.67495594621	165.6756776821851
6945.121554895365	166.38824485899747
6946.568455219301	167.14897937769626
6948.015656980806	167.97304596892036
6949.463160242676	168.8284266455518
6950.910965067728	169.687929371257
6952.359071518784	170.54729499606262
6953.807479658683	171.39274773424796
6955.256189550279	172.16137495550396
6956.705201256435	172.79531286341663
6958.154514840031	173.33976818997922
6959.604130363956	173.86597294439258
6961.054047891116	174.39192651888374
6962.504267484427	174.91690497175247
6963.954789206819	175.43296883538537
6965.405613121237	175.9278511619926
6966.856739290638	176.40405136121953
6968.30816777799	176.87462000182222
6969.759898646277	177.34499713851685
6971.211931958496	177.81423897572128
6972.6642677776545	178.26585143692162
6974.116906166776	178.6599054100778
6975.569847188894	178.98699244279322
6977.023090907059	179.28544662456372
6978.47663738433	179.58114694462228
6979.930486683786	179.87693770016693
6981.3846388685115	180.17365618092637
6982.83909400161	180.4744330923564
6984.293852146194	180.78145174809677
6985.748913365391	181.09216009274712
6987.204277722341	181.40354808485566
6988.659945280201	181.7150172759849
6990.115916102135	182.0274962155792
6991.572190251322	182.34658450237245
6993.028767790958	182.6792781997513
6994.485648784248	183.02257293626127
6995.942833294413	183.36863137553374
6997.400321384683	183.71484964681284
6998.858113118305	184.05890439237686
7000.316208558537	184.37854014871218
7001.774607768653	184.62950327401498
7003.23331081194	184.809678756249
7004.692317751692	184.96352924202222
7006.151628651223	185.11540483865
7007.6112435738605	185.26719283476962
7009.071162582939	185.41647890470753
7010.5313857418105	185.5557230417189
7011.9919131138395	185.68125495022537
7013.452744762405	185.79980460361358
7014.913880750897	185.9174495974571
7016.375321142722	186.0352327971987
7017.837066001293	186.15847402833697
7019.299115390043	186.31259654113168
7020.761469372417	186.5225524888265
7022.224128011869	186.770922639829
7023.687091371872	187.02764300163412
7025.150359515908	187.28461161354343
7026.613932507475	187.5444836038898
7028.07781041008	187.83017013821788
7029.541993287248	188.17952639940944
7031.0064812025175	188.58709639509027
7032.471274219435	189.01318153375573
7033.936372401564	189.4403379854377
7035.401775812481	189.86532771552194
7036.867484515776	190.25598109609382
7038.33349857505	190.52996214027996
7039.79981805392	190.66279183085146
7041.266443016016	190.73215216550005
7042.733373524977	190.79463707028265
7044.200609644461	190.8575762852849
7045.668151438137	190.93490303372778
7047.135998969687	191.0819166737559
7048.604152302806	191.34030763019283
7050.072611501203	191.66608168126618
7051.541376628598	192.00379376630852
7053.010447748729	192.34163801611612
7054.479824925345	192.6721612555341
7055.949508222204	192.94958023419835
7057.419497703085	193.11340080811144
7058.889793431773	193.18564934770757
