#wavelength (Angstrom)	surface_flux (erg / (Angstrom cm2 s))
6300.0	0.2670485106758431
6301.3125	0.3979980770991336
6302.6252734375	0.46902527883587153
6303.938320369467	0.4772926663275653
6305.251640852877	0.4821767838665488
6306.565234944722	0.4871319967625137
6307.8791027020025	0.4921066610191324
6309.193244181732	0.49708303813397914
6310.5076594409375	0.5020635097963508
6311.822348536654	0.5070798247648692
6313.137311525933	0.5121969057524387
6314.452548465834	0.5174194713096306
6315.768059413431	0.5226826400187063
6317.083844425809	0.5279499755414542
6318.399903560065	0.5332193706508315
6319.716236873307	0.5385104335871382
6321.032844422655	0.5438854493325197
6322.349726265244	0.5493764381287366
6323.666882458216	0.5549285143120577
6324.984313058728	0.5604901281863345
6326.302018123949	0.5660531246571814
6327.619997711058	0.571626587229986
6328.938251877249	0.5772557722003147
6330.256780679723	0.5829870685560561
6331.575584175699	0.5887904323167896
6332.894662422402	0.5946107558949388
6334.214015477073	0.6004326735424094
6335.533643396964	0.6062589133157499
6336.853546239339	0.6121147355606074
6338.173724061472	0.6180424310336851
6339.494176920652	0.6240365952128835
6340.814904874177	0.6300530373723814
6342.135907979359	0.6360719153247428
6343.457186293522	0.6420948440866698
6344.778739874001	0.6481623121627504
6346.100568778142	0.6543792775153078
6347.422673063304	0.6607782911237663
6348.745052786858	0.6672606445511269
6350.067708006189	0.6737533673536485
6351.39063877869	0.6802479485416668
6352.713845161769	0.6867610609867578
6354.037327212845	0.6933612720211948
6355.3610849893485	0.7001027517474393
6356.685118548721	0.7069319733149105
6358.009427948419	0.7137783297879431
6359.334013245908	0.7206263746972321
6360.658874498668	0.727482573000891
6361.984011764189	0.7343898686746959
6363.309425099973	0.7414069340426983
6364.635114563535	0.7485145137279688
6365.961080212403	0.7556483293482869
6367.2873221041145	0.7627846587730996
6368.61384029622	0.7699244423884498
6369.940634846282	0.7770904658552877
6371.267705811875	0.7843323273964629
6372.595053250586	0.7916562680224326
6373.922677220014	0.7990133167822491
6375.250577777768	0.8063744737495318
6376.578754981471	0.8137386799214613
6377.907208888761	0.8211385965212139
6379.235939557279	0.8286823798175346
6380.564947044686	0.8364309579292348
6381.894231408654	0.8442908983884445
6383.223792706865	0.8521687841156202
6384.553630997012	0.8600486371740476
6385.883746336804	0.8679444088007271
6387.2141387839565	0.8759308669867351
6388.544808396204	0.884090082365789
6389.875755231287	0.8923749573579454
6391.20697934696	0.9006901340399062
6392.53848080099	0.9090077660705245
6393.870259651158	0.9173299336997318
6395.202315955253	0.9256806012689349
6396.534649771077	0.9341020298005831
6397.867261156446	0.9425912264004667
6399.2001501691875	0.9511045697228516
6400.533316867139	0.9596211033044413
6401.866761308153	0.968142167146112
6403.200483550093	0.9767126061856258
6404.534483650832	0.9854566405724089
6405.868761668259	0.9944202470162326
6407.2033176602745	1.0034884293876742
6408.5381516847865	1.01257044910489
6409.873263799722	1.0216546264677593
6411.2086540630135	1.0307500030172165
6412.544322532611	1.0398953376427154
6413.880269266471	1.0491234937835134
6415.216494322568	1.0584053562415658
6416.552997758886	1.0676992013903592
6417.8897796334195	1.0769952260398754
6419.226840004177	1.086304845289777
6420.5641789291785	1.0957083251502857
6421.9017964664545	1.105322658638189
6423.239692674053	1.115116781993778
6424.577867610025	1.1249644737321065
6425.9163213324455	1.1348165097900607
6427.25505389939	1.144672931364737
6428.594065368952	1.1545620672023438
6429.933355799238	1.1645486631582807
6431.272925248362	1.1746445457438655
6432.612773774456	1.1847867323404204
6433.9529014356585	1.194935104882704
6435.293308290125	1.2050866374832674
6436.63399439602	1.2152666859893255
6437.974959811519	1.2255649500656287
6439.316204594813	1.2360380804167619
6440.657728804104	1.2466106100082701
6441.999532497605	1.2572007044764442
6443.341615733541	1.2677933433287483
6444.683978570154	1.2784042548494585
6446.026621065689	1.2891218078657818
6447.369543278411	1.3000490645176892
6448.7127452665945	1.3111343816139975
6450.056227088525	1.3222600725186158
6451.399988802502	1.3333892411531865
6452.744030466836	1.3445223464141782
6454.088352139851	1.3556742776783999
6455.43295387988	1.3668729011764627
6456.777835745272	1.3781178691430387
6458.122997794385	1.3893807845289632
6459.468440085592	1.400647117965149
6460.814162677278	1.4119171548168774
6462.160165627836	1.4232152874166297
6463.506448995675	1.4346131627675083
6464.853012839217	1.4461416003975849
6466.199857216891	1.4577355509118481
6467.546982187145	1.469339865735509
6468.894387808435	1.480947573973662
6470.242074139227	1.49259633666429
6471.590041238007	1.504455960997535
6472.938289163264	1.5166811739705863
6474.286817973508	1.5291495206075267
6475.6356277272525	1.541669642632326
6476.984718483029	1.554193394082231
6478.334090299379	1.5667419516580234
6479.683743234858	1.5794805974567945
6481.033677348033	1.5926655321878944
6482.38389269748	1.6062438592654877
6483.734389341793	1.619943123126917
6485.085167339573	1.6336509720460952
6486.436226749436	1.6473660721489158
6487.787567630007	1.6611456039419084
6489.139190039932	1.675127617842826
6490.491094037857	1.6893451748931465
6491.843279682447	1.703665917793766
6493.195747032382	1.7179996854203898
6494.548496146348	1.732337725342191
6495.901527083045	1.746716422408168
6497.254839901187	1.7612728288647785
6498.6084346595	1.7761011841208039
6499.962311416722	1.7910885424654837
6501.316470231601	1.8061045660216009
6502.670911162898	1.8211237765682577
6504.025634269391	1.8361346976902329
6505.3806396098635	1.851071468200728
6506.735927243117	1.8658527190030247
6508.091497227958	1.8805138302034448
6509.447349623215	1.8951462976966058
6510.80348448772	1.909780708431723
6512.159901880322	1.9244125293604557
6513.51660185988	1.9389834281557699
6514.873584485267	1.9533758483348842
6516.23084981537	1.967583681581404
6517.58839790908	1.9817250006926248
6518.946228825313	1.9958641907924306
6520.304342622985	2.0100182608891974
6521.662739361031	2.024415074772939
6523.021419098398	2.0397566681283057
6524.380381894044	2.0563848083558174
6525.739627806938	2.0736753353092507
6527.099156896065	2.0910594308212747
6528.458969220418	2.1084467242965426
6529.819064839006	2.1257974352953464
6531.179443810848	2.1429209813668004
6532.540106194976	2.1596291665494523
6533.9010520504335	2.176052955733536
6535.262281436278	2.1924185239092933
6536.6237944115765	2.208786247925533
6537.985591035413	2.2251633570977423
6539.347671366879	2.2415961883342916
6540.71003546508	2.2581599206661576
6542.072683389135	2.2748429374060075
6543.435615198176	2.291566166626009
6544.798830951341	2.308294903083808
6546.162330707791	2.325035590165951
6547.526114526688	2.341908698067341
6548.890182467215	2.3592215581256073
6550.254534588562	2.3770633658165465
6551.619170949934	2.3951431697967442
6552.984091610549	2.413251481842129
6554.349296629635	2.4313644777084646
6555.7147860664345	2.4495097616832524
6557.080559980198	2.4677966485351375
6558.446618430195	2.4863077687559176
6559.8129614757	2.5049565381969012
6561.1795891760075	2.5236330902021415
6562.54650159042	2.54231352334799
6563.913698778251	2.5609656849181377
6565.281180798831	2.579388584259167
6566.648947711497	2.59731401780126
6568.016999575604	2.614837246246217
6569.385336450516	2.6322539245665415
6570.753958395609	2.649669974347799
6572.122865470276	2.6671143770731325
6573.492057733915	2.684854913628337
6574.861535245943	2.7034530761263817
6576.231298065786	2.7229623142802284
6577.601346252884	2.742824633992865
6578.971679866686	2.7627190984568903
6580.342298966659	2.782622528960963
6581.7132036122775	2.8026362096210646
6583.08439386303	2.8230908859624337
6584.455869778419	2.8441675952600813
6585.827631417956	2.865578546314323
6587.199678841168	2.8870418768494823
6588.572012107595	2.908509343882436
6589.944631276783	2.929946375858671
6591.3175364083	2.9511762041684393
6592.690727561718	2.9720111007689383
6594.064204796627	2.9925653947837154
6595.437968172626	3.0130594117617426
6596.812017749329	3.033556128651232
6598.18635358636	3.054065478131765
6599.5609757433585	3.0746569212465844
6600.935884279972	3.0954502835327613
6602.311079255864	3.116434520009807
6603.686560730708	3.1374853086475447
6605.062328764195	3.1585442682892313
6606.43838341602	3.1796157599675023
6607.814724745898	3.200830617414065
6609.191352813554	3.2225451136950167
6610.568267678725	3.244884029870571
6611.9454694011565	3.2675155989257014
6613.322958040616	3.29018443922779
6614.700733656875	3.3128580043897498
6616.07879630972	3.3355353473897518
6617.457146058951	3.358212660458017
6618.835782964381	3.3808868438450115
6620.214707085831	3.4035608155558634
6621.593918483141	3.426238578762559
6622.973417216159	3.4489211046037256
6624.353203344746	3.471617294727996
6625.733276928776	3.494387938276497
6627.113638028136	3.5173194771218412
6628.494286702727	3.5403862772953705
6629.8752230124555	3.5634945426129367
6631.25644701725	3.586609107878514
6632.637958777046	3.609741544686478
6634.019758351792	3.6330430177427613
6635.401845801448	3.6568494492822436
6636.784221185991	3.681213684561549
6638.166884565405	3.70580691244956
6639.54983599969	3.7304253042628863
6640.933075548856	3.7550483616270838
6642.316603272929	3.7796648673584263
6643.700419231944	3.8042357758024123
6645.084523485952	3.8287374513785606
6646.468916095012	3.853203205575721
6647.853597119198	3.877667833718509
6649.238566618597	3.902137444722301
6650.623824653309	3.926607158232492
6652.009371283446	3.951050481148322
6653.39520656913	3.9754374969918658
6654.781330570499	3.9997841907743994
6656.167743347702	4.024125058053955
6657.554444960899	4.048470639742378
6658.941435470266	4.072798980432154
6660.328714935989	4.096908307555464
6661.716283418268	4.12042892560118
6663.104140977314	4.143374737280846
6664.492287673351	4.166124591626764
6665.880723566617	4.188866213564938
6667.269448717359	4.211607694642818
6668.658463185843	4.234266593660337
6670.04776703234	4.256608297775872
6671.437360317139	4.278538191509285
6672.827243100539	4.300270802959914
6674.21741544285	4.321982988475882
6675.607877404403	4.34369061376004
6676.998629045529	4.36504953689264
6678.389670426579	4.38454114200217
6679.781001607919	4.400827871038892
6681.17262264992	4.415030225858056
6682.564533612973	4.42882198898818
6683.956734557476	4.442605801581784
6685.349225543842	4.4556870720910675
6686.742006632498	4.463057429836273
6688.135077883879	4.45722056831309
6689.528439358438	4.439951486974224
6690.9220911166385	4.419281451671938
6692.316033218955	4.398444207110933
6693.710265725876	4.375330778196855
6695.104788697902	4.321344121073761
6696.4996021955485	4.169256068598122
6697.894706279339	3.9048956335466425
6699.290101009814	3.5932256524391155
6700.685786447524	3.276978078188912
6702.081762653035	2.961776870622521
6703.478029686921	2.6769611894783703
6704.874587609773	2.5296741915408028
6706.27143648219	2.5908316419573536
6707.668576364793	2.7714813328991164
6709.066007318201	2.9716098550072987
6710.46372940306	3.1719504464840806
6711.861742680019	3.372061416359873
6713.260047209744	3.5704143659093748
6714.658643052912	3.7651687320389375
6716.0575302702155	3.9571773701095485
6717.4567089223565	4.1485244757791175
6718.856179070049	4.339888376599163
6720.255940774021	4.5300432321821065
6721.6559940950165	4.706749336251282
6723.056339093787	4.846297636207417
6724.456975831098	4.948339177546119
6725.85790436773	5.036872394949617
6727.259124764472	5.124474125685018
6728.660637082132	5.211928742767659
6730.062441381524	5.296225422009823
6731.464537723479	5.368350472626667
6732.866926168839	5.424183686732522
6734.269606778457	5.471822125066734
6735.672579613203	5.518387567550671
6737.075844733956	5.564952426027838
6738.4794022016085	5.611218262949936
6739.883252077068	5.655744676846086
6741.2873944212515	5.697148544294448
6742.691829295089	5.7364418681545315
6744.096556759525	5.775300618540924
6745.5015768755175	5.8141586040600775
6746.906889704033	5.852969500952433
6748.312495306054	5.891320286624993
6749.718393742578	5.928559484658005
6751.124585074607	5.964805164478645
6752.531069363165	6.00074685159328
6753.937846669282	6.036679457161464
6755.344917054005	6.072614422174932
6756.752280578391	6.108479471948295
6758.159937303512	6.144094371036976
6759.567887290451	6.179412159222999
6760.976130600304	6.214604955897247
6762.384667294178	6.2497919026125155
6763.793497433198	6.284985184811762
6765.202621078498	6.320156318982213
6766.612038291223	6.355195643495421
6768.021749132533	6.390023349326076
6769.431753663604	6.4247274217294255
6770.842051945616	6.459415810897633
6772.252644039771	6.494111104411477
6773.66353000728	6.528808748644809
6775.074709909365	6.563478816293912
6776.486183807264	6.5980825214895065
6777.897951762223	6.63263500911526
6779.310013835508	6.6671793365726035
6780.722370088391	6.701730320462022
6782.135020582158	6.736297307988946
6783.547965378113	6.770971346712564
6784.961204537568	6.805938137711153
6786.374738121846	6.841211022977116
6787.788566192289	6.876604524993902
6789.2026888102455	6.912014352486847
6790.617106037082	6.947432490608429
6792.031817934173	6.982878129367593
6793.446824562909	7.01841250531109
6794.862125984693	7.054067270490102
6796.27772226094	7.089788447067812
6797.693613453079	7.1255252677527485
6799.109799622548	7.161269215509427
6800.5262808308025	7.197002162304832
6801.9430571393095	7.232634121756422
6803.360128609546	7.268072804753821
6804.777495303007	7.303377845237932
6806.195157281196	7.3386587968661505
6807.6131146056305	7.373946346637259
6809.031367337839	7.409248404087409
6810.449915539369	7.444623539826337
6811.868759271772	7.480170967394688
6813.287898596622	7.515879407699532
6814.707333575495	7.551645460503316
6816.12706426999	7.587421866191779
6817.547090741715	7.623209797183033
6818.967413052284	7.659070548494494
6820.388031263337	7.695165309385018
6821.808945436517	7.731545845266263
6823.230155633484	7.768061056504894
6824.651661915907	7.8045979998550035
6826.073464345473	7.84114188437782
6827.49556298388	7.877670570561998
6828.917957892834	7.914094217131904
6830.340649134063	7.9503421623234525
6831.763636769299	7.986484406437745
6833.186920860294	8.022613391187091
6834.610501468806	8.058749519623746
6836.034378656611	8.09488015505882
6837.458552485498	8.130921183505151
6838.883023017267	8.166757837214734
6840.307790313729	8.202428466157327
6841.732854436711	8.238058782795408
6843.158215448053	8.273694606485378
6844.583873409604	8.309346864632543
6846.009828383232	8.345115995776249
6847.436080430813	8.381218893940272
6848.862629614236	8.417683385587791
6850.289475995406	8.454295640763224
6851.716619636238	8.490927509888724
6853.144060598662	8.527564138195906
6854.57179894462	8.564139224005764
6855.999834736067	8.600428691866318
6857.428168034971	8.636303887558393
6858.856798903312	8.671958125043378
6860.285727403084	8.707586031621322
6861.7149535962935	8.743221811064554
6863.144477544959	8.778903087800197
6864.5742993111135	8.81482591244295
6866.004418956804	8.85120487209473
6867.434836544087	8.88791775785553
6868.865552135034	8.924714827730401
6870.296565791729	8.961521680388483
6871.72787757627	8.998309873311499
6873.159487550764	9.034844483737983
6874.591395777338	9.070703969573161
6876.023602318125	9.105914886795814
6877.456107235274	9.140911351445892
6878.888910590949	9.175901544387314
6880.322012447323	9.210904436191315
6881.755412866582	9.246006051244539
6883.18911191093	9.281442707653378
6884.623109642579	9.317301588390714
6886.057406123754	9.35336436494018
6887.492001416697	9.389458023189498
6888.926895583659	9.42555663652544
6890.362088686906	9.461558215104242
6891.797580788715	9.497017595947035
6893.233371951381	9.531553758995322
6894.669462237203	9.565502109999748
6896.105851708503	9.59934365806177
6897.542540427609	9.6331905345636
6898.979528456865	9.66703451846161
6900.416815858628	9.700807422629751
6901.854402695265	9.734409865720554
6903.29228902916	9.767867834512796
6904.730474922708	9.801288468359175
6906.168960438317	9.834713961224137
6907.607745638409	9.867895848546492
6909.0468305854165	9.897696963274198
6910.48621534179	9.916862249350121
6911.925899969986	9.924024521196358
6913.365884532479	9.926238215088421
6914.806169091757	9.928003887280237
6916.246753710318	9.929825284153829
6917.687638450675	9.933062599716918
6919.128823375352	9.942537888115892
6920.570308546889	9.961313600585374
6922.012094027836	9.98534694693077
6923.454179880759	10.010225743367702
6924.896566168235	10.035126734860349
6926.339252952854	10.06073454174503
6927.782240297219	10.090933320771498
6929.225528263946	10.130283069700459
6930.669116915669	10.176527217920375
6932.113006315028	10.22446715472608
6933.557196524675	10.272467727594377
6935.001687607285	10.320384693010219
6936.446479625538	10.367346969407537
6937.8915726421255	10.41171895235852
6939.33696671976	10.453518516509133
6940.782661921161	10.49441061187918
6942.228658309061	10.53524771564801
6943.67495594621	10.576067470133983
6945.121554895365	10.616414036120654
6946.568455219301	10.654953709118448
6948.015656980806	10.691113206973528
6949.463160242676	10.726102935518398
6950.910965067728	10.76095086110772
6952.359071518784	10.795814371465873
6953.807479658683	10.83106129745109
6955.256189550279	10.868370953881906
6956.705201256435	10.909287888220236
6958.154514840031	10.952605410120375
6959.604130363956	10.996422142526269
6961.054047891116	11.040256984407396
6962.504267484427	11.084006159525897
6963.954789206819	11.126975782814325
6965.405613121237	11.168093760788746
6966.856739290638	11.207578534048418
6968.30816777799	11.246570681946897
6969.759898646277	11.285545648390572
6971.211931958496	11.324432903529855
6972.6642677776545	11.36195080304168
6974.116906166776	11.394996722647857
6975.569847188894	11.422839594510572
6977.023090907059	11.448458104578911
6978.47663738433	11.473863136218684
6979.930486683786	11.499276106351855
6981.3846388685115	11.524773042315745
6982.83909400161	11.550638318330071
6984.293852146194	11.57707025329228
6985.748913365391	11.603837033915278
6987.204277722341	11.63066524623857
6988.659945280201	11.65750046306972
6990.115916102135	11.684420592320993
6991.572190251322	11.711895725270697
6993.028767790958	11.74051318763546
6994.485648784248	11.770020759813816
6995.942833294413	11.799760490540605
6997.400321384683	11.829513794864802
6998.858113118305	11.859099471678084
7000.316208558537	11.886787119225705
7001.774607768653	11.909135938259311
7003.23331081194	11.925981482953663
7004.692317751692	11.940780803298722
7006.151628651223	11.955427163577028
7007.6112435738605	11.970074470668823
7009.071162582939	11.984680114202796
7010.5313857418105	11.99911101968751
7011.9919131138395	12.013302409898909
7013.452744762405	12.027373063934174
7014.913880750897	12.041430246950776
7016.375321142722	12.055501758847521
7017.837066001293	12.07011097598657
7019.299115390043	12.087760098155298
7020.761469372417	12.110904958969082
7022.224128011869	12.137831128033053
7023.687091371872	12.16557965600268
7025.150359515908	12.193352811758151
7026.613932507475	12.221274148975771
7028.07781041008	12.250488448613819
7029.541993287248	12.282887185048619
7031.0064812025175	12.318197744574372
7032.471274219435	12.35443654627547
7033.936372401564	12.390731991627518
7035.401775812481	12.426869633567117
7036.867484515776	12.460491135729876
7038.33349857505	12.485560495359925
7039.79981805392	12.500283170258244
7041.266443016016	12.510353982392282
7042.733373524977	12.519921799549683
7044.200609644461	12.529520875951386
7045.668151438137	12.540077343892566
7047.135998969687	12.555266659417413
7048.604152302806	12.577859764761879
7050.072611501203	12.604932596964025
7051.541376628598	12.632800016374532
7053.010447748729	12.660677058302996
7054.479824925345	12.68803860709767
7055.949508222204	12.711655658310098
7057.419497703085	12.72726167644742
