#wavelength (Angstrom)	surface_flux (erg / (Angstrom cm2 s))
6300.0	0.43934416896040807
6301.3125	0.6551665697191895
6302.6252734375	0.7729470901550697
6303.938320369467	0.7876682646508458
6305.251640852877	0.7968647778565594
6306.565234944722	0.8062050977521975
6307.8791027020025	0.8155846576409739
6309.193244181732	0.8249675414872139
6310.5076594409375	0.8343587905907929
6311.822348536654	0.8438249641783793
6313.137311525933	0.853502168582053
6314.452548465834	0.8634002959002866
6315.768059413431	0.8733833262826118
6317.083844425809	0.8833748731957924
6318.399903560065	0.8933702880811518
6319.716236873307	0.903405974238458
6321.032844422655	0.9135975656285346
6322.349726265244	0.9240045088070585
6323.666882458216	0.9345249068899886
6324.984313058728	0.9450630563179068
6326.302018123949	0.9556038084008933
6327.619997711058	0.966163601683696
6328.938251877249	0.9768243465731548
6330.256780679723	0.9876700035614463
6331.575584175699	0.9986461953937245
6332.894662422402	1.0096531816292975
6334.214015477073	1.0206631551317278
6335.533643396964	1.0316826132088446
6336.853546239339	1.0427699763528726
6338.173724061472	1.0540230519596614
6339.494176920652	1.0654293406710378
6340.814904874177	1.0768866407444544
6342.135907979359	1.0883490622628167
6343.457186293522	1.0998198924224165
6344.778739874001	1.1113862878724412
6346.100568778142	1.123274184062324
6347.422673063304	1.1355536510973279
6348.745052786858	1.1480122063053766
6350.067708006189	1.1604927713553688
6351.39063877869	1.1729769322015104
6352.713845161769	1.185497449633755
6354.037327212845	1.1981890605167123
6355.3610849893485	1.211158210724027
6356.685118548721	1.2242997183673152
6358.009427948419	1.2374748386757106
6359.334013245908	1.2506532100289915
6360.658874498668	1.2638465772631549
6361.984011764189	1.2771331479818844
6363.309425099973	1.290619773525822
6364.635114563535	1.304271386928066
6365.961080212403	1.317970927416808
6367.2873221041145	1.3316751933809343
6368.61384029622	1.3453853747614128
6369.940634846282	1.3591369145852183
6371.267705811875	1.373006962605635
6372.595053250586	1.3870052267778465
6373.922677220014	1.4010555332912895
6375.250577777768	1.4151127731044915
6376.578754981471	1.4291764452905598
6377.907208888761	1.4433220563163531
6379.235939557279	1.4577996427494115
6380.564947044686	1.4727500586687254
6381.894231408654	1.4879573058734208
6383.223792706865	1.5032054217372013
6384.553630997012	1.5184573685379752
6385.883746336804	1.5337390395280555
6387.2141387839565	1.5491894592403286
6388.544808396204	1.5649612308297054
6389.875755231287	1.5809667805124963
6391.20697934696	1.5970287986389589
6392.53848080099	1.6130955037068953
6393.870259651158	1.6291691926775507
6395.202315955253	1.6452809603084217
6396.534649771077	1.6614856419119501
6397.867261156446	1.6777793543382642
6399.2001501691875	1.6941054976690288
6400.533316867139	1.710436880424989
6401.866761308153	1.7267767406116403
6403.200483550093	1.74320765887526
6404.534483650832	1.7599583829516876
6405.868761668259	1.7771135776115838
6407.2033176602745	1.7944614809336676
6408.5381516847865	1.8118350005484987
6409.873263799722	1.8292130176651349
6411.2086540630135	1.8466260584372776
6412.544322532611	1.8642049056138668
6413.880269266471	1.8820604490470874
6415.216494322568	1.9000944453459978
6416.552997758886	1.918166106758427
6417.8897796334195	1.9362422298431619
6419.226840004177	1.9543426469032066
6420.5641789291785	1.9726086961567812
6421.9017964664545	1.9912463873678945
6423.239692674053	2.0102010213159516
6424.577867610025	2.0292503382369658
6425.9163213324455	2.0483076609464597
6427.25505389939	2.0673716155981494
6428.594065368952	2.086474522025844
6429.933355799238	2.1056902473508776
6431.272925248362	2.125032284457163
6432.612773774456	2.1444287785307727
6433.9529014356585	2.1638339603007126
6435.293308290125	2.1832452560515065
6436.63399439602	2.2027129174513527
6437.974959811519	2.2224147116783737
6439.316204594813	2.242462909329186
6440.657728804104	2.2627079494565536
6441.999532497605	2.2829876523107053
6443.341615733541	2.303272260133734
6444.683978570154	2.3235936561695767
6446.026621065689	2.3441309460323403
6447.369543278411	2.3650930156969565
6448.7127452665945	2.386375194851903
6450.056227088525	2.407738956535757
6451.399988802502	2.429109516048929
6452.744030466836	2.4504857916669116
6454.088352139851	2.471879414458499
6455.43295387988	2.4933121520850885
6456.777835745272	2.514783733448823
6458.122997794385	2.5362719773505136
6459.468440085592	2.5577655350345947
6460.814162677278	2.5792656008894
6462.160165627836	2.600808690812941
6463.506448995675	2.622502061672489
6464.853012839217	2.644391850976833
6466.199857216891	2.6663806789814584
6467.546982187145	2.6883859876221043
6468.894387808435	2.7103978814480705
6470.242074139227	2.7324940321577382
6471.590041238007	2.7550245964635036
6472.938289163264	2.7783086344434476
6474.286817973508	2.8020936334908235
6475.6356277272525	2.825984996563723
6476.984718483029	2.849883460767206
6478.334090299379	2.8738373541506954
6479.683743234858	2.898222336864091
6481.033677348033	2.9236207128390372
6482.38389269748	2.9499122562136684
6483.734389341793	2.976477717921267
6485.085167339573	3.003061739867457
6486.436226749436	3.029662497644569
6487.787567630007	3.056425661585791
6489.139190039932	3.0837029228690755
6490.491094037857	3.1115785060761825
6491.843279682447	3.1397152228589364
6493.195747032382	3.1678833821004386
6494.548496146348	3.196059049320918
6495.901527083045	3.224288465666981
6497.254839901187	3.252745827003795
6498.6084346595	3.2815509134468237
6499.962311416722	3.3105601697580553
6501.316470231601	3.339607934998573
6502.670911162898	3.368661550671253
6504.025634269391	3.39768467524402
6505.3806396098635	3.4264665234222713
6506.735927243117	3.454746677848678
6508.091497227958	3.4826383694398273
6509.447349623215	3.5104344240636247
6510.80348448772	3.5382327323984883
6512.159901880322	3.566018641204055
6513.51660185988	3.5936039634905512
6514.873584485267	3.620609448991009
6516.23084981537	3.647015390799303
6517.58839790908	3.6732027031807
6518.946228825313	3.699379098386785
6520.304342622985	3.725589833368059
6521.662739361031	3.7523864388706807
6523.021419098398	3.7814681512254604
6524.380381894044	3.8136621982648906
6525.739627806938	3.8474578361859635
6527.099156896065	3.8814782732364534
6528.458969220418	3.9155044867074325
6529.819064839006	3.9494264780697876
6531.179443810848	3.9827166010249413
6532.540106194976	4.014853816497733
6533.9010520504335	4.046200712658588
6535.262281436278	4.077383475921455
6536.6237944115765	4.108569241906592
6537.985591035413	4.139772071006443
6539.347671366879	4.171073901727685
6540.71003546508	4.20260767463413
6542.072683389135	4.234352847820625
6543.435615198176	4.266169597036946
6544.798830951341	4.29799655246062
6546.162330707791	4.32984590765437
6547.526114526688	4.361942069903183
6548.890182467215	4.394857524258004
6550.254534588562	4.428758420657113
6551.619170949934	4.463102786132107
6552.984091610549	4.497500394087044
6554.349296629635	4.531906745837846
6555.7147860664345	4.5663696071908735
6557.080559980198	4.601078136571856
6558.446618430195	4.636175317929821
6559.8129614757	4.671511326173132
6561.1795891760075	4.706896048156342
6562.54650159042	4.742287725066025
6563.913698778251	4.777589715320287
6565.281180798831	4.812195484559492
6566.648947711497	4.8452956686836215
6568.016999575604	4.877177736877375
6569.385336450516	4.908733892055338
6570.753958395609	4.940283774958252
6572.122865470276	4.971903883455615
6573.492057733915	5.004283610405979
6574.861535245943	5.038868498950035
6576.231298065786	5.0757961531092315
6577.601346252884	5.11363003412181
6578.971679866686	5.15154389973315
6580.342298966659	5.18947608542428
6581.7132036122775	5.227645502059052
6583.08439386303	5.266767010532622
6584.455869778419	5.307231897878622
6585.827631417956	5.348418142646759
6587.199678841168	5.389716537943247
6588.572012107595	5.431022145581938
6589.944631276783	5.47222164234889
6591.3175364083	5.512734112942544
6592.690727561718	5.551942626119833
6594.064204796627	5.590222899987383
6595.437968172626	5.6282989883128325
6596.812017749329	5.666377824532787
6598.18635358636	5.7044835907691125
6599.5609757433585	5.7427740810328105
6600.935884279972	5.781521502156967
6602.311079255864	5.820700762934494
6603.686560730708	5.86002944112986
6605.062328764195	5.899374912129463
6606.43838341602	5.938745113471271
6607.814724745898	5.978405629772308
6609.191352813554	6.019079674211738
6610.568267678725	6.061020544839963
6611.9454694011565	6.103554774021249
6613.322958040616	6.1461639519450335
6614.700733656875	6.188780892870102
6616.07879630972	6.231366693320565
6617.457146058951	6.273760201530266
6618.835782964381	6.315830223034618
6620.214707085831	6.357700182984916
6621.593918483141	6.399539421144421
6622.973417216159	6.441386868419929
6624.353203344746	6.483258375186302
6625.733276928776	6.525258271825819
6627.113638028136	6.5675349155976255
6628.494286702727	6.610044311952808
6629.8752230124555	6.6526254819412545
6631.25644701725	6.695218072905952
6632.637958777046	6.737846748026005
6634.019758351792	6.780826557211682
6635.401845801448	6.824857613058994
6636.784221185991	6.87005005284713
6638.166884565405	6.915718584113779
6639.54983599969	6.961438396754987
6640.933075548856	7.007166267494414
6642.316603272929	7.052866691296068
6643.700419231944	7.098416081144593
6645.084523485952	7.14373962532084
6646.468916095012	7.1889427585144325
6647.853597119198	7.234135611983191
6649.238566618597	7.279336733671002
6650.623824653309	7.324481155097166
6652.009371283446	7.369218206902398
6653.39520656913	7.413151908661254
6654.781330570499	7.456493822600752
6656.167743347702	7.499700512741556
6657.554444960899	7.542911833578736
6658.941435470266	7.5860597496345346
6660.328714935989	7.6284894940427685
6661.716283418268	7.669001378884098
6663.104140977314	7.707640517822008
6664.492287673351	7.745636299444161
6665.880723566617	7.7835979019845425
6667.269448717359	7.82154507899352
6668.658463185843	7.85910041980503
6670.04776703234	7.895189886766376
6671.437360317139	7.929380336538848
6672.827243100539	7.962653855025237
6674.21741544285	7.995820070514275
6675.607877404403	8.028965784042791
6676.998629045529	8.061056668005396
6678.389670426579	8.087528011694694
6679.781001607919	8.104359334407267
6681.17262264992	8.11491867886985
6682.564533612973	8.124237158431054
6683.956734557476	8.13352650127434
6685.349225543842	8.14096386457543
6686.742006632498	8.133386627167946
6688.135077883879	8.091093563628931
6689.528439358438	8.018749591738908
6690.9220911166385	7.93746187416735
6692.316033218955	7.855729097212637
6693.710265725876	7.769369957933771
6695.104788697902	7.620364014661959
6696.4996021955485	7.272312277915829
6697.894706279339	6.696463280709983
6699.290101009814	6.02461988790981
6700.685786447524	5.343480804162967
6702.081762653035	4.664488045812053
6703.478029686921	4.048000910945424
6704.874587609773	3.714444452605033
6706.27143648219	3.809713301071141
6707.668576364793	4.150806544510493
6709.066007318201	4.531967119200717
6710.46372940306	4.913583372385245
6711.861742680019	5.2966501196785645
6713.260047209744	5.6888893646101355
6714.658643052912	6.099600261650629
6716.0575302702155	6.524473982464612
6717.4567089223565	6.952980586401485
6718.856179070049	7.381692778153668
6720.255940774021	7.807838661617526
6721.6559940950165	8.205392360116514
6723.056339093787	8.523940172869395
6724.456975831098	8.762740102031987
6725.85790436773	8.972821177358076
6727.259124764472	9.180926135298426
6728.660637082132	9.388646520459549
6730.062441381524	9.588190939679825
6731.464537723479	9.756233818456602
6732.866926168839	9.882112907305798
6734.269606778457	9.986781729507076
6735.672579613203	10.088669982624804
6737.075844733956	10.190550789383341
6738.4794022016085	10.2915530489809
6739.883252077068	10.387478707962066
6741.2873944212515	10.474296649807371
6742.691829295089	10.554956356720973
6744.096556759525	10.634342444350226
6745.5015768755175	10.713719125358782
6746.906889704033	10.792925791009559
6748.312495306054	10.87056619731491
6749.718393742578	10.944437996226561
6751.124585074607	11.01494032457719
6752.531069363165	11.084404152569132
6753.937846669282	11.153826438562286
6755.344917054005	11.223242381997059
6756.752280578391	11.292358658754022
6758.159937303512	11.360443794966365
6759.567887290451	11.42730720317838
6760.976130600304	11.493647412301032
6762.384667294178	11.55994794509229
6763.793497433198	11.626259186744091
6765.202621078498	11.692492297137152
6766.612038291223	11.758305246843742
6768.021749132533	11.823449114778262
6769.431753663604	11.888198319386564
6770.842051945616	11.952889548460842
6772.252644039771	12.01759315229948
6773.66353000728	12.082284701655688
6775.074709909365	12.146807516731815
6776.486183807264	12.210958541573206
6777.897951762223	12.274817057244277
6779.310013835508	12.338608471792508
6780.722370088391	12.402410342394488
6782.135020582158	12.46623397593676
6783.547965378113	12.530166961267373
6784.961204537568	12.594387943680516
6786.374738121846	12.658909759466244
6787.788566192289	12.723553981047873
6789.2026888102455	12.78822028181209
6790.617106037082	12.852899674584517
6792.031817934173	12.917584348965415
6793.446824562909	12.982249373949116
6794.862125984693	13.046881864813987
6796.27772226094	13.111503803823306
6797.693613453079	13.176135865951439
6799.109799622548	13.240780700408806
6800.5262808308025	13.3054033692038
6801.9430571393095	13.369830054843602
6803.360128609546	13.433882491895904
6804.777495303007	13.497675868828779
6806.195157281196	13.561421798815651
6807.6131146056305	13.625179565601963
6809.031367337839	13.688967621208851
6810.449915539369	13.752925153448938
6811.868759271772	13.817287935025591
6813.287898596622	13.882029161145233
6814.707333575495	13.946903107983813
6816.12706426999	14.011797465720207
6817.547090741715	14.07671315260387
6818.967413052284	14.141767726507503
6820.388031263337	14.207270332992769
6821.808945436517	14.273320253050333
6823.230155633484	14.339627691742171
6824.651661915907	14.40597603446507
6826.073464345473	14.472334679391968
6827.49556298388	14.538589947164311
6828.917957892834	14.604280245274014
6830.340649134063	14.669042521845503
6831.763636769299	14.733236419732947
6833.186920860294	14.797336881457543
6834.610501468806	14.861449400273735
6836.034378656611	14.925595356057245
6837.458552485498	14.989904465875734
6838.883023017267	15.054553717811887
6840.307790313729	15.11948397773034
6841.732854436711	15.184501390137635
6843.158215448053	15.249535302446972
6844.583873409604	15.314569108864442
6846.009828383232	15.379450605640434
6847.436080430813	15.44385110737066
6848.862629614236	15.507728449799707
6850.289475995406	15.571406685247943
6851.716619636238	15.635080022296396
6853.144060598662	15.69876553142842
6854.57179894462	15.762437981694005
6855.999834736067	15.82601209658219
6857.428168034971	15.889438915009896
6858.856798903312	15.9527920105941
6860.285727403084	16.016145456774836
6861.7149535962935	16.07951383156928
6863.144477544959	16.143001580556543
6864.5742993111135	16.20715541716415
6866.004418956804	16.2725737464472
6867.434836544087	16.3389157699634
6868.865552135034	16.405485045118173
6870.296565791729	16.472074086529734
6871.72787757627	16.538594554675317
6873.159487550764	16.604310783377315
6874.591395777338	16.667902705284718
6876.023602318125	16.72945347872028
6877.456107235274	16.790322542298046
6878.888910590949	16.851161815325145
6880.322012447323	16.912018132741107
6881.755412866582	16.97296098577507
6883.18911191093	17.034181271727984
6884.623109642579	17.095749417728946
6886.057406123754	17.157489061153257
6887.492001416697	17.219260443989796
6888.926895583659	17.2810400462814
6890.362088686906	17.342645136399895
6891.797580788715	17.403277897759985
6893.233371951381	17.46225547005053
6894.669462237203	17.520178963841424
6896.105851708503	17.577910438512806
6897.542540427609	17.63565079936991
6898.979528456865	17.693377199139242
6900.416815858628	17.750911418527913
6901.854402695265	17.80799370716672
6903.29228902916	17.86469198431595
6904.730474922708	17.921286274472365
6906.168960438317	17.977886851043657
6907.607745638409	18.03379802761766
6909.0468305854165	18.08024076719119
6910.48621534179	18.09691254907371
6911.925899969986	18.079987445152245
6913.365884532479	18.049206559336607
6914.806169091757	18.01716422816796
6916.246753710318	17.985283812832538
6917.687638450675	17.957707833733412
6919.128823375352	17.949122036571563
6920.570308546889	17.96885323018478
6922.012094027836	18.004588943302856
6923.454179880759	18.04289170257864
6924.896566168235	18.081249780001873
6926.339252952854	18.121424135700977
6927.782240297219	18.173425305990392
6929.225528263946	18.24900565486054
6930.669116915669	18.34234937971033
6932.113006315028	18.440058233567562
6933.557196524675	18.537917983706727
6935.001687607285	18.635563041774084
6936.446479625538	18.730805833394463
6937.8915726421255	18.819538814881845
6939.33696671976	18.901806874388466
6940.782661921161	18.98179125009996
6942.228658309061	19.06163279266971
6943.67495594621	19.141420931991252
6945.121554895365	19.219920969877634
6946.568455219301	19.293520401593035
6948.015656980806	19.36066642025409
6949.463160242676	19.424637558277148
6950.910965067728	19.48821818821053
6952.359071518784	19.55183294256047
6953.807479658683	19.61640770944496
6955.256189550279	19.686169251250522
6956.705201256435	19.765005126702157
6958.154514840031	19.84987814686239
6959.604130363956	19.936002626112135
6961.054047891116	20.02216780006668
6962.504267484427	20.10814037551045
6963.954789206819	20.192379226179625
6965.405613121237	20.272503221078242
6966.856739290638	20.348997518507957
6968.30816777799	20.424395356303854
6969.759898646277	20.499752699722862
6971.211931958496	20.57487416515539
6972.6642677776545	20.646395156580176
6974.116906166776	20.706170609892265
6975.569847188894	20.75228131198272
6977.023090907059	20.79254695956938
6978.47663738433	20.832246557286002
6979.930486683786	20.87196553526237
6981.3846388685115	20.91201609424255
6982.83909400161	20.95356688839785
6984.293852146194	20.997432921180042
6985.748913365391	21.042661535847625
6987.204277722341	21.088129114597134
6988.659945280201	21.13361082024847
6990.115916102135	21.179316383787494
6991.572190251322	21.226516317597017
6993.028767790958	21.276797983040893
6994.485648784248	21.32947970617727
6995.942833294413	21.382783243944644
6997.400321384683	21.436117857997758
6998.858113118305	21.489029247426316
7000.316208558537	21.537193689439306
7001.774607768653	21.572013723630185
7003.23331081194	21.59307845143908
7004.692317751692	21.60902593686511
7006.151628651223	21.624586842368487
7007.6112435738605	21.640146754139284
7009.071162582939	21.65561991296887
7010.5313857418105	21.67073848950412
7011.9919131138395	21.68537211102588
7013.452744762405	21.699759834443977
7014.913880750897	21.71411754345099
7016.375321142722	21.728507659017883
7017.837066001293	21.744279392974803
7019.299115390043	21.767883293361297
7020.761469372417	21.805650378484895
7022.224128011869	21.85316092947253
7023.687091371872	21.90278691831021
7025.150359515908	21.95247200396069
7026.613932507475	22.002608118716843
7028.07781041008	22.056738071054315
7029.541993287248	22.120715498399477
7031.0064812025175	22.193696728102605
7032.471274219435	22.269543072940078
7033.936372401564	22.345557152413672
7035.401775812481	22.421148147232927
7036.867484515776	22.490056428467245
7038.33349857505	22.53626089971415
7039.79981805392	22.554998385992654
7041.266443016016	22.561384400842694
7042.733373524977	22.566431099905078
7044.200609644461	22.57156827408476
7045.668151438137	22.579616938504575
7047.135998969687	22.601773672962118
7048.604152302806	22.646479627219325
7050.072611501203	22.70482719612428
7051.541376628598	22.765590298514592
7053.010447748729	22.826379118468566
7054.479824925345	22.885740166208624
7055.949508222204	22.934751191959215
7057.419497703085	22.961623083868496
