#wavelength (Angstrom)	surface_flux (erg / (Angstrom cm2 s))
6300.0	211.3526008713471
6301.3125	314.30616594524656
6302.6252734375	368.8878101686062
6303.938320369467	373.5541680409197
6305.251640852877	375.67081698956565
6306.565234944722	377.95531617118985
6307.8791027020025	380.284292584926
6309.193244181732	382.6153722200119
6310.5076594409375	384.9564993378649
6311.822348536654	387.40695270091607
6313.137311525933	390.1697470419264
6314.452548465834	393.2596368387254
6315.768059413431	396.4737353416586
6317.083844425809	399.6981044335023
6318.399903560065	402.9185093834432
6319.716236873307	406.0404812590318
6321.032844422655	408.76393970840314
6322.349726265244	410.93461627547873
6323.666882458216	412.81694477507455
6324.984313058728	414.65928672888606
6326.302018123949	416.50372916134273
6327.619997711058	418.44604511148907
6328.938251877249	420.9602768998989
6330.256780679723	424.53233141980627
6331.575584175699	428.84750543953504
6332.894662422402	433.3285627117397
6334.214015477073	437.8143398984877
6335.533643396964	442.2439249141604
6336.853546239339	446.15320688484087
6338.173724061472	448.76517023898884
6339.494176920652	450.1791186768948
6340.814904874177	451.20698613390056
6342.135907979359	452.2133437648869
6343.457186293522	453.2449921932351
6344.778739874001	454.66501193196365
6346.100568778142	457.414616774183
6347.422673063304	461.7857070539849
6348.745052786858	466.89310732748265
6350.067708006189	472.08244896634596
6351.39063877869	477.2650249849095
6352.713845161769	482.17358462490864
6354.037327212845	485.71007909128605
6355.3610849893485	487.0070202455575
6356.685118548721	486.9216045043174
6358.009427948419	486.5845528072788
6359.334013245908	486.2456414022307
6360.658874498668	486.06287577323496
6361.984011764189	487.0335484589752
6363.309425099973	490.5202156431555
6364.635114563535	496.07569762155276
6365.961080212403	502.2072333683368
6367.2873221041145	508.3639105836831
6368.61384029622	514.5009985842814
6369.940634846282	520.3767780006951
6371.267705811875	525.4650869440583
6372.595053250586	529.6997208738533
6373.922677220014	533.6001943450657
6375.250577777768	537.4741582001953
6376.578754981471	541.3465929605376
6377.907208888761	545.1671739520286
6379.235939557279	548.7692489320563
6380.564947044686	552.0589372912149
6381.894231408654	555.1802053812195
6383.223792706865	558.2769958441897
6384.553630997012	561.3740423887148
6385.883746336804	564.4570856003867
6387.2141387839565	567.4494118146595
6388.544808396204	570.2668146412766
6389.875755231287	572.9576180628497
6391.20697934696	575.6196625892065
6392.53848080099	578.2815501486706
6393.870259651158	580.9539880452204
6395.202315955253	583.7224417044312
6396.534649771077	586.7376299454618
6397.867261156446	589.9888777130202
6399.2001501691875	593.3206123728045
6400.533316867139	596.6580934798693
6401.866761308153	599.9913781361887
6403.200483550093	603.2408691565828
6404.534483650832	606.1860814970016
6405.868761668259	608.7454091193546
6407.2033176602745	611.122966399237
6408.5381516847865	613.4798115264304
6409.873263799722	615.8322927500802
6411.2086540630135	618.0079927591984
6412.544322532611	619.2686470314526
6413.880269266471	618.9882864882161
6415.216494322568	617.7214996273382
6416.552997758886	616.2630379507584
6417.8897796334195	614.8019401273087
6419.226840004177	613.4671613981778
6420.5641789291785	613.1305127990724
6421.9017964664545	615.0627185838244
6423.239692674053	618.9263728761798
6424.577867610025	623.350506806168
6425.9163213324455	627.8004649534196
6427.25505389939	632.2686372738079
6428.594065368952	636.9649307338607
6429.933355799238	642.3690952782943
6431.272925248362	648.5687598462038
6432.612773774456	655.0972337479116
6433.9529014356585	661.6572477634463
6435.293308290125	668.2092921257769
6436.63399439602	674.526340967547
6437.974959811519	679.8053434068919
6439.316204594813	683.5391263280853
6440.657728804104	686.4033284583442
6441.999532497605	689.1305933911284
6443.341615733541	691.8570514329691
6444.683978570154	694.5602071546658
6446.026621065689	697.1087647989852
6447.369543278411	699.349597591492
6448.7127452665945	701.3594367095408
6450.056227088525	703.3131393043658
6451.399988802502	705.2655537843723
6452.744030466836	707.2309570257053
6454.088352139851	709.325125653293
6455.43295387988	711.7647447414929
6456.777835745272	714.5471063748627
6458.122997794385	717.4513904778455
6459.468440085592	720.3646125120525
6460.814162677278	723.2696689926544
6462.160165627836	726.0087905896114
6463.506448995675	728.1185589269894
6464.853012839217	729.3996327807283
6466.199857216891	730.2727629643578
6467.546982187145	731.0946605632606
6468.894387808435	731.9164382041358
6470.242074139227	732.7319521930941
6471.590041238007	733.5129212624455
6472.938289163264	734.233575751025
6474.286817973508	734.9143106547702
6475.6356277272525	735.5869968133218
6476.984718483029	736.2600725214179
6478.334090299379	737.0371879674572
6479.683743234858	738.6919911717163
6481.033677348033	742.4237009524059
6482.38389269748	747.9847170671803
6483.734389341793	754.0997301346288
6485.085167339573	760.2428429700338
6486.436226749436	766.3768343959073
6487.787567630007	772.366394227169
6489.139190039932	777.8848418429113
6490.491094037857	782.8539433178818
6491.843279682447	787.5869104362639
6493.195747032382	792.2971020196155
6494.548496146348	797.0016645018744
6495.901527083045	801.513269549664
6497.254839901187	805.1263314850646
6498.6084346595	807.3556789051137
6499.962311416722	808.7827960951207
6501.316470231601	810.0787078124628
6502.670911162898	811.3750007664415
6504.025634269391	812.7633655073121
6505.3806396098635	814.7733172917058
6506.735927243117	818.059051678781
6508.091497227958	822.3361254254255
6509.447349623215	826.8689362660367
6510.80348448772	831.4115416798816
6512.159901880322	835.9074153952163
6513.51660185988	839.8633176088312
6514.873584485267	842.285232956599
6516.23084981537	843.1215068038192
6517.58839790908	843.3705099101278
6518.946228825313	843.576651713159
6520.304342622985	843.7845018849167
6521.662739361031	844.0258584823528
6523.021419098398	844.3986897127829
6524.380381894044	844.9506887528261
6525.739627806938	845.5947546848342
6527.099156896065	846.2515095013324
6528.458969220418	846.9092554163261
6529.819064839006	847.6062986712922
6531.179443810848	848.5282711570457
6532.540106194976	849.8584802760186
6533.9010520504335	851.4693643665404
6535.262281436278	853.1406252161612
6536.6237944115765	854.8139026454362
6537.985591035413	856.5988199632164
6539.347671366879	859.3584117164271
6540.71003546508	864.4929111705305
6542.072683389135	871.785938665415
6543.435615198176	879.7647274704406
6544.798830951341	887.7828622090724
6546.162330707791	895.775721691071
6547.526114526688	903.3598504184514
6548.890182467215	909.5570115027454
6550.254534588562	914.083297263852
6551.619170949934	917.8648121920759
6552.984091610549	921.5683626209396
6554.349296629635	925.2650479208247
6555.7147860664345	928.722562254516
6557.080559980198	931.021063043287
6558.446618430195	931.4652475018856
6559.8129614757	930.7837007427078
6561.1795891760075	929.9009228644592
6562.54650159042	929.0154392747035
6563.913698778251	928.1307839388697
6565.281180798831	927.2532854543429
6566.648947711497	926.391388757485
6568.016999575604	925.5420943533599
6569.385336450516	924.6960929150515
6570.753958395609	923.8500492674069
6572.122865470276	923.0776195545161
6573.492057733915	923.1779894997248
6574.861535245943	925.8269215622629
6576.231298065786	931.1839333111182
6577.601346252884	937.5836974802855
6578.971679866686	944.0683807109116
6580.342298966659	950.5526376142066
6581.7132036122775	956.9990164121344
6583.08439386303	963.2852333314243
6584.455869778419	969.3443552481107
6585.827631417956	975.2827859169445
6587.199678841168	981.2047370305544
6588.572012107595	987.1261992355858
6589.944631276783	992.9531511083509
6591.3175364083	998.2007502429941
6592.690727561718	1002.3540947579878
6594.064204796627	1005.7267637298094
6595.437968172626	1008.9230627256171
6596.812017749329	1012.1154461039039
6598.18635358636	1015.2419924565743
6599.5609757433585	1017.7503217362919
6600.935884279972	1018.6875314964157
6602.311079255864	1018.1414638910192
6603.686560730708	1017.1007940510178
6605.062328764195	1016.0298039382094
6606.43838341602	1014.9708996460347
6607.814724745898	1014.1218052229605
6609.191352813554	1014.0209450750953
6610.568267678725	1014.8568960103523
6611.9454694011565	1016.1282660928491
6613.322958040616	1017.4491025531282
6614.700733656875	1018.7675961813112
6616.07879630972	1019.9956341630475
6617.457146058951	1020.7678521110388
6618.835782964381	1020.7868042673148
6620.214707085831	1020.3323136887287
6621.593918483141	1019.7883001459867
6622.973417216159	1019.242776262885
6624.353203344746	1018.6896910644265
6625.733276928776	1018.0783965674418
6627.113638028136	1017.3368712419389
6628.494286702727	1016.4864737941136
6629.8752230124555	1015.605354876044
6631.25644701725	1014.722814502483
6632.637958777046	1013.9326336534373
6634.019758351792	1014.3062884343193
6635.401845801448	1018.2248503136539
6636.784221185991	1026.0628890227683
6638.166884565405	1035.4897236208178
6639.54983599969	1045.0605717335757
6640.933075548856	1054.6126285901912
6642.316603272929	1063.6430313831497
6643.700419231944	1070.4014319702476
6645.084523485952	1073.8282699001222
6646.468916095012	1075.4167528376067
6647.853597119198	1076.7266042383762
6649.238566618597	1078.031755489995
6650.623824653309	1079.1218512429123
6652.009371283446	1078.8548409530717
6653.39520656913	1075.9411070604299
6654.781330570499	1071.0696495769012
6656.167743347702	1065.7273793370086
6657.554444960899	1060.3702382690446
6658.941435470266	1055.0802687968883
6660.328714935989	1050.4749875705845
6661.716283418268	1047.6858300238691
6663.104140977314	1046.6702506886386
6664.492287673351	1046.268806305745
6665.880723566617	1045.9069782483286
6667.269448717359	1045.5214642277335
6668.658463185843	1044.7132829917998
6670.04776703234	1042.3470144140388
6671.437360317139	1037.964759473986
6672.827243100539	1032.6047280302769
6674.21741544285	1027.122816461361
6675.607877404403	1021.6246045928771
6676.998629045529	1015.5443216928143
6678.389670426579	1006.3843968565913
6679.781001607919	991.9450332433157
6681.17262264992	974.0690458583103
6682.564533612973	955.5091945765804
6683.956734557476	936.9315724082242
6685.349225543842	917.9027934801402
6686.742006632498	895.2471652975072
6688.135077883879	864.2114531486836
6689.528439358438	825.9211416987072
6690.9220911166385	785.4686685590458
6692.316033218955	744.9044787445746
6693.710265725876	703.9885204303077
6695.104788697902	658.3992485990696
6696.4996021955485	597.9772394491354
6697.894706279339	520.5809925170784
6699.290101009814	436.0275949156439
6700.685786447524	350.77463516706365
6702.081762653035	265.7376191869107
6703.478029686921	187.08125074355362
6704.874587609773	137.31830429158975
6706.27143648219	131.34950372568272
6707.668576364793	150.48433056615735
6709.066007318201	173.70810161388334
6710.46372940306	196.992042337749
6711.861742680019	221.68684988202813
6713.260047209744	255.7117890745716
6714.658643052912	308.60356782015117
6716.0575302702155	375.94326230151376
6717.4567089223565	446.9319030985752
6718.856179070049	518.0546848756767
6720.255940774021	588.9272595456353
6721.6559940950165	656.9523130250764
6723.056339093787	717.098689339883
6724.456975831098	769.2923402475196
6725.85790436773	818.62583242964
6727.259124764472	867.7680231856792
6728.660637082132	916.804182144427
6730.062441381524	963.6173561122782
6731.464537723479	1001.8698923191998
6732.866926168839	1028.6648143582452
6734.269606778457	1049.6952784940263
6735.672579613203	1069.9687073890968
6737.075844733956	1090.2335676802402
6738.4794022016085	1110.0129601785995
6739.883252077068	1127.0221461905126
6741.2873944212515	1139.067240311112
6742.691829295089	1147.7534591701426
6744.096556759525	1155.7391911488653
6745.5015768755175	1163.713422952493
6746.906889704033	1171.790061945651
6748.312495306054	1180.7231398916567
6749.718393742578	1191.7020181314665
6751.124585074607	1204.5111484580043
6752.531069363165	1217.8917126631
6753.937846669282	1231.3053139893748
6755.344917054005	1244.7067394109038
6756.752280578391	1257.8849290560456
6758.159937303512	1270.3135570192446
6759.567887290451	1281.855486515835
6760.976130600304	1293.0133350859674
6762.384667294178	1304.1350148529002
6763.793497433198	1315.2388231331868
6765.202621078498	1325.7468778757752
6766.612038291223	1333.4344177132577
6768.021749132533	1336.6823079473027
6769.431753663604	1337.2754953152378
6770.842051945616	1337.403959800109
6772.252644039771	1337.5262752604265
6773.66353000728	1337.5884889336437
6775.074709909365	1337.2216515928253
6776.486183807264	1335.9476094976453
6777.897951762223	1333.9530435621457
6779.310013835508	1331.7687280487423
6780.722370088391	1329.5772919363721
6782.135020582158	1327.4583705123937
6783.547965378113	1326.166461622484
6784.961204537568	1327.24045603728
6786.374738121846	1330.7909062095703
6787.788566192289	1335.2807489916345
6789.2026888102455	1339.8457109098592
6790.617106037082	1344.4146310650626
6792.031817934173	1349.049318560712
6793.446824562909	1353.947020614084
6794.862125984693	1359.2096884073378
6796.27772226094	1364.663446581161
6797.693613453079	1370.1447614335343
6799.109799622548	1375.6226228789405
6800.5262808308025	1380.8548325454635
6801.9430571393095	1384.6375282914846
6803.360128609546	1385.7360419305298
6804.777495303007	1384.9481383471527
6806.195157281196	1383.7394104852654
6807.6131146056305	1382.5201836222816
6809.031367337839	1381.3310622519386
6810.449915539369	1380.420523327051
6811.868759271772	1380.2094698115955
6813.287898596622	1380.6500440615105
6814.707333575495	1381.30356809297
6816.12706426999	1381.9695382993336
6817.547090741715	1382.6946013346765
6818.967413052284	1384.366184108807
6820.388031263337	1389.3180152948971
6821.808945436517	1398.2995488555318
6823.230155633484	1409.1230922823006
6824.651661915907	1420.1533937505303
6826.073464345473	1431.1675110248793
6827.49556298388	1441.5652512979473
6828.917957892834	1448.9099990256216
6830.340649134063	1451.2853034367188
6831.763636769299	1450.5895906683688
6833.186920860294	1449.3299173270161
6834.610501468806	1448.0623965711563
6836.034378656611	1446.8050699813114
6837.458552485498	1445.6254957274111
6838.883023017267	1444.6158518367515
6840.307790313729	1443.7453383655889
6841.732854436711	1442.9129893400057
6843.158215448053	1442.0820309911514
6844.583873409604	1441.3517698520736
6846.009828383232	1441.84659544637
6847.436080430813	1445.994613346967
6848.862629614236	1454.107322723267
6850.289475995406	1463.7908854489535
6851.716619636238	1473.6106529676513
6853.144060598662	1483.3852275845663
6854.57179894462	1492.0242281839717
6855.999834736067	1495.8426259454411
6857.428168034971	1492.7246292584623
6858.856798903312	1485.8493314707043
6860.285727403084	1478.4174243568182
6861.7149535962935	1470.986048956779
6863.144477544959	1463.8659043289297
6864.5742993111135	1458.6675737653507
6866.004418956804	1457.1539216291692
6867.434836544087	1458.320963513358
6868.865552135034	1460.1170042806054
6870.296565791729	1461.9310400076465
6871.72787757627	1463.9358366759907
6873.159487550764	1467.8301902517637
6874.591395777338	1476.6623870552653
6876.023602318125	1490.2404059003734
6877.456107235274	1505.4250584636754
6878.888910590949	1520.710949297598
6880.322012447323	1535.885096562165
6881.755412866582	1549.1198043983832
6883.18911191093	1555.3941410703774
6884.623109642579	1552.855794734252
6886.057406123754	1546.143544743726
6887.492001416697	1538.9333917861022
6888.926895583659	1531.7180196667616
6890.362088686906	1524.3989742295767
6891.797580788715	1516.5412460104612
6893.233371951381	1507.772505189453
6894.669462237203	1498.420504171519
6896.105851708503	1488.955277109785
6897.542540427609	1479.4879885344692
6898.979528456865	1470.2444754651733
6900.416815858628	1462.7727436095524
6901.854402695265	1459.328964433118
6903.29228902916	1459.3232235709843
6904.730474922708	1460.3232943183978
6906.168960438317	1461.3706082545993
6907.607745638409	1462.4800996114595
6909.0468305854165	1464.4275084527492
6910.48621534179	1469.0068214838548
6911.925899969986	1476.5561084747471
6913.365884532479	1485.330991572663
6914.806169091757	1494.2186009019035
6916.246753710318	1503.1092218060967
6917.687638450675	1512.0313572209363
6919.128823375352	1521.0860525637088
6920.570308546889	1530.337481176644
6922.012094027836	1539.700927708352
6923.454179880759	1549.0839362502415
6924.896566168235	1558.46455244041
6926.339252952854	1567.5162771335417
6927.782240297219	1574.4075744405718
6929.225528263946	1576.98822213885
6930.669116915669	1576.3222853401558
6932.113006315028	1574.861119900545
6933.557196524675	1573.375738125628
6935.001687607285	1571.898271828441
6936.446479625538	1570.5052596637447
6937.8915726421255	1569.3404159258912
6939.33696671976	1568.4021701581544
6940.782661921161	1567.5442298208527
6942.228658309061	1566.6916911906776
6943.67495594621	1565.8952562458028
6945.121554895365	1566.147125318223
6946.568455219301	1570.3502926951207
6948.015656980806	1579.7525893147574
6949.463160242676	1591.7194049474401
6950.910965067728	1604.0132338722926
6952.359071518784	1616.304879144812
6953.807479658683	1628.357670945744
6955.256189550279	1639.0938282104055
6956.705201256435	1647.5220634289103
6958.154514840031	1654.4168307623822
6959.604130363956	1660.9984336089992
6961.054047891116	1667.5747381724777
6962.504267484427	1674.0408450378036
6963.954789206819	1679.580127747665
6965.405613121237	1682.9308511729698
6966.856739290638	1684.3500933177352
6968.30816777799	1685.180185548275
6969.759898646277	1685.980669795344
6971.211931958496	1686.8010428538119
6972.6642677776545	1687.905067584643
6974.116906166776	1689.931264632169
6975.569847188894	1693.0300881846824
6977.023090907059	1696.588524879448
6978.47663738433	1700.192735182455
6979.930486683786	1703.7887524465355
6981.3846388685115	1707.1337592527484
6982.83909400161	1709.3177222026459
6984.293852146194	1709.7059968808055
6985.748913365391	1709.0404217694231
6987.204277722341	1708.195963301561
6988.659945280201	1707.3532578691504
6990.115916102135	1706.8768782280504
6991.572190251322	1708.9388473183876
6993.028767790958	1716.252862715292
6994.485648784248	1727.6535535661408
6995.942833294413	1740.100890370995
6997.400321384683	1752.585518600371
6998.858113118305	1764.9583282173114
7000.316208558537	1776.0802965343578
7001.774607768653	1783.6865461203645
7003.23331081194	1787.6688315881524
7004.692317751692	1790.3027266656457
7006.151628651223	1792.834456310783
7007.6112435738605	1795.34811030588
7009.071162582939	1797.4670234137564
7010.5313857418105	1798.0148615007367
7011.9919131138395	1796.4190126750261
7013.452744762405	1793.7294341288707
7014.913880750897	1790.8943041412192
7016.375321142722	1788.0517084457022
7017.837066001293	1784.906272907332
7019.299115390043	1780.0437845897268
7020.761469372417	1772.0762361585898
7022.224128011869	1761.9726032287585
7023.687091371872	1751.4052485236655
7025.150359515908	1740.8257866754657
7026.613932507475	1730.4833113555198
7028.07781041008	1722.3007811402076
7029.541993287248	1719.4554228674128
7031.0064812025175	1721.4893075421285
7032.471274219435	1725.0704861679963
7033.936372401564	1728.7348770070878
7035.401775812481	1732.4488374877405
7036.867484515776	1736.9084134762509
7038.33349857505	1743.8950864203343
7039.79981805392	1753.938502579598
7041.266443016016	1765.3578786988928
7042.733373524977	1776.9287082742574
7044.200609644461	1788.480877337806
7045.668151438137	1799.3569339000553
7047.135998969687	1806.9465698941437
7048.604152302806	1809.2818629554256
7050.072611501203	1808.4394833828796
7051.541376628598	1807.0366181365935
7053.010447748729	1805.6290948916596
7054.479824925345	1804.4208375076682
7055.949508222204	1804.6479410607656
7057.419497703085	1807.9436777195606
7058.889793431773	1813.7133613248836
7060.360395472071	1820.1532224400803
