#wavelength (Angstrom)	surface_flux (erg / (Angstrom cm2 s))
6300.0	2.25339206680192
6301.3125	3.3612012241059603
6302.6252734375	3.9673596451542057
6303.938320369467	4.045367727739759
6305.251640852877	4.095159356085812
6306.565234944722	4.145769855966742
6307.8791027020025	4.196603402702926
6309.193244181732	4.2474553408930005
6310.5076594409375	4.298349306140293
6311.822348536654	4.349611662129483
6313.137311525933	4.401909786646731
6314.452548465834	4.455292184366308
6315.768059413431	4.50909190197245
6317.083844425809	4.562934389435176
6318.399903560065	4.616797916402786
6319.716236873307	4.670882642298844
6321.032844422655	4.725824367470483
6322.349726265244	4.781949952104884
6323.666882458216	4.838699127539
6324.984313058728	4.89554567841225
6326.302018123949	4.952406472508072
6327.619997711058	5.009379941784355
6328.938251877249	5.0669563713080965
6330.256780679723	5.125638317196676
6331.575584175699	5.185100297085873
6332.894662422402	5.244745301393934
6334.214015477073	5.304406853777663
6335.533643396964	5.364109825197261
6336.853546239339	5.424089736186735
6338.173724061472	5.484740894005014
6339.494176920652	5.546012908653883
6340.814904874177	5.607493758568126
6342.135907979359	5.668998441052102
6343.457186293522	5.730547607006824
6344.778739874001	5.792599721390737
6346.100568778142	5.856343258980216
6347.422673063304	5.922146805409247
6348.745052786858	5.9888926508461875
6350.067708006189	6.055754525598709
6351.39063877869	6.122636080443471
6352.713845161769	6.189726913029476
6354.037327212845	6.257806744308086
6355.3610849893485	6.327491575486643
6356.685118548721	6.39817271956558
6358.009427948419	6.469047261406955
6359.334013245908	6.539939456319513
6360.658874498668	6.610912710156958
6361.984011764189	6.682390222594873
6363.309425099973	6.754950191290332
6364.635114563535	6.8284028606392795
6365.961080212403	6.902114787320691
6367.2873221041145	6.975852197262068
6368.61384029622	7.049614442360464
6369.940634846282	7.123511236119958
6371.267705811875	7.197781393162609
6372.595053250586	7.272454965346829
6373.922677220014	7.347296161754723
6375.250577777768	7.42216535092657
6376.578754981471	7.497069993565534
6377.907208888761	7.572437988139434
6379.235939557279	7.649686302172641
6380.564947044686	7.7296131614400085
6381.894231408654	7.810994494854954
6383.223792706865	7.89260643293303
6384.553630997012	7.974238787367589
6385.883746336804	8.056019548278599
6387.2141387839565	8.13863685369155
6388.544808396204	8.222846052521325
6389.875755231287	8.308213676019944
6391.20697934696	8.393862084641384
6392.53848080099	8.479534958745544
6393.870259651158	8.56523772455109
6395.202315955253	8.651073356696356
6396.534649771077	8.737223448935628
6397.867261156446	8.823675143265088
6399.2001501691875	8.91024100509499
6400.533316867139	8.996830988672114
6401.866761308153	9.083466932110852
6403.200483550093	9.170603150141126
6404.534483650832	9.25949809121621
6405.868761668259	9.350617535812304
6407.2033176602745	9.442796482126992
6408.5381516847865	9.535115676515826
6409.873263799722	9.62745841626013
6411.2086540630135	9.719974154671966
6412.544322532611	9.813303247533863
6413.880269266471	9.907988648445745
6415.216494322568	10.003549325682032
6416.552997758886	10.099295936294434
6417.8897796334195	10.195065961938813
6419.226840004177	10.290964986691153
6420.5641789291785	10.387743810621709
6421.9017964664545	10.486496774298379
6423.239692674053	10.586933311012979
6424.577867610025	10.68787275885759
6425.9163213324455	10.788854681585692
6427.25505389939	10.889876785499686
6428.594065368952	10.991171520308042
6429.933355799238	11.093270152847404
6431.272925248362	11.196269725306864
6432.612773774456	11.299653440669756
6433.9529014356585	11.40309211483165
6435.293308290125	11.50656326715909
6436.63399439602	11.610331950579223
6437.974959811519	11.715335812287762
6439.316204594813	11.82216703254136
6440.657728804104	11.930036740251273
6441.999532497605	12.038089505449232
6443.341615733541	12.146168021544263
6444.683978570154	12.254415609761594
6446.026621065689	12.363638387051715
6447.369543278411	12.474776505426524
6448.7127452665945	12.587358866836093
6450.056227088525	12.70031191296083
6451.399988802502	12.813299075928247
6452.744030466836	12.926326847524955
6454.088352139851	13.039552303247039
6455.43295387988	13.153269418090224
6456.777835745272	13.267474523107008
6458.122997794385	13.381868043040502
6459.468440085592	13.49629669991724
6460.814162677278	13.610769156654788
6462.160165627836	13.725644400867452
6463.506448995675	13.841976882436697
6464.853012839217	13.960220180091964
6466.199857216891	14.079416938621138
6467.546982187145	14.198755516384798
6468.894387808435	14.318127260003045
6470.242074139227	14.437847508380054
6471.590041238007	14.559338651013613
6472.938289163264	14.683896758292098
6474.286817973508	14.810496088076487
6475.6356277272525	14.937533730292284
6476.984718483029	15.064606127373155
6478.334090299379	15.191823144880862
6479.683743234858	15.320064524867059
6481.033677348033	15.450693937700887
6482.38389269748	15.583429835773398
6483.734389341793	15.716822035001302
6485.085167339573	15.850272528637735
6486.436226749436	15.983799894270378
6487.787567630007	16.118042491201738
6489.139190039932	16.254541506152048
6490.491094037857	16.393666029992833
6491.843279682447	16.53393843197906
6493.195747032382	16.67435215723176
6494.548496146348	16.814806937139416
6495.901527083045	16.95563642921176
6497.254839901187	17.09809746249546
6498.6084346595	17.243054253711385
6499.962311416722	17.389471041999226
6501.316470231601	17.536152572774338
6502.670911162898	17.68286558357094
6504.025634269391	17.829535089307736
6505.3806396098635	17.975733856751578
6506.735927243117	18.120934054304588
6508.091497227958	18.265365191555013
6509.447349623215	18.40962079597358
6510.80348448772	18.55389929372795
6512.159901880322	18.698195995282838
6513.51660185988	18.842388272522967
6514.873584485267	18.986228989372464
6516.23084981537	19.12970530914205
6517.58839790908	19.27306546322225
6518.946228825313	19.416444814505333
6520.304342622985	19.55992759206006
6521.662739361031	19.704918204621645
6523.021419098398	19.855743552446736
6524.380381894044	20.01451007309289
6525.739627806938	20.177370846072094
6527.099156896065	20.340820043376937
6528.458969220418	20.50430268527105
6529.819064839006	20.66766982734071
6531.179443810848	20.830212522594845
6532.540106194976	20.99123070159066
6533.9010520504335	21.151211547415762
6535.262281436278	21.310996416989497
6536.6237944115765	21.470810049496034
6537.985591035413	21.630715308595413
6539.347671366879	21.791164551102913
6540.71003546508	21.95289170054064
6542.072683389135	22.115783350818166
6543.435615198176	22.279067574619553
6544.798830951341	22.442405567450404
6546.162330707791	22.60585011689429
6547.526114526688	22.770433351396548
6548.890182467215	22.938788330972116
6550.254534588562	23.111679238119752
6551.619170949934	23.28661335005526
6552.984091610549	23.461795878711104
6554.349296629635	23.637016117083657
6555.7147860664345	23.812309466896544
6557.080559980198	23.98781627390295
6558.446618430195	24.163642626378696
6559.8129614757	24.33967737350185
6561.1795891760075	24.515779474204045
6562.54650159042	24.691917246695805
6563.913698778251	24.867946522667662
6565.281180798831	25.042959993018513
6566.648947711497	25.21574693574048
6568.016999575604	25.38673738118347
6569.385336450516	25.557265980603706
6570.753958395609	25.727810889781342
6572.122865470276	25.89855421580234
6573.492057733915	26.071260112214954
6574.861535245943	26.24962771380649
6576.231298065786	26.43400915183474
6577.601346252884	26.62072834142214
6578.971679866686	26.80767094054284
6580.342298966659	26.994682710221237
6581.7132036122775	27.182398572953755
6583.08439386303	27.37289187774243
6584.455869778419	27.567297496652998
6585.827631417956	27.763811354108476
6587.199678841168	27.960666541210873
6588.572012107595	28.157560549588883
6589.944631276783	28.354271456908876
6591.3175364083	28.5496643361405
6592.690727561718	28.742533896029695
6594.064204796627	28.933614180703415
6595.437968172626	29.124319776388365
6596.812017749329	29.31505495155251
6598.18635358636	29.505859955893154
6599.5609757433585	29.696984753613773
6600.935884279972	29.888860548142624
6602.311079255864	30.08144759862925
6603.686560730708	30.274298530942488
6605.062328764195	30.46720326258455
6606.43838341602	30.66019163090393
6607.814724745898	30.853961571955843
6609.191352813554	31.050413627964197
6610.568267678725	31.25021344701226
6611.9454694011565	31.451591221415917
6613.322958040616	31.653184621307982
6614.700733656875	31.854819184094705
6616.07879630972	32.056461840455114
6617.457146058951	32.25797603143323
6618.835782964381	32.45925058503219
6620.214707085831	32.660390103583396
6621.593918483141	32.861538099260386
6622.973417216159	33.06272749655118
6624.353203344746	33.263959099474484
6625.733276928776	33.46523489690384
6627.113638028136	33.66655771333539
6628.494286702727	33.86792672241144
6629.8752230124555	34.06933887752996
6631.25644701725	34.27079304191088
6632.637958777046	34.47231676741473
6634.019758351792	34.67422951985969
6635.401845801448	34.87724121660167
6636.784221185991	35.08146354315315
6638.166884565405	35.286201623420155
6639.54983599969	35.49102470907041
6640.933075548856	35.69586214438787
6642.316603272929	35.900028827847414
6643.700419231944	36.10114004789147
6645.084523485952	36.29775224012142
6646.468916095012	36.49189979784491
6647.853597119198	36.68570773724238
6649.238566618597	36.879541650012
6650.623824653309	37.07263457727582
6652.009371283446	37.26084232059375
6653.39520656913	37.439485198876866
6654.781330570499	37.61106342354904
6656.167743347702	37.780972618471196
6657.554444960899	37.950865878695645
6658.941435470266	38.12014315841546
6660.328714935989	38.28291416252466
6661.716283418268	38.42838648367603
6663.104140977314	38.55696595508365
6664.492287673351	38.679712152406374
6665.880723566617	38.80210523622122
6667.269448717359	38.92411336549431
6668.658463185843	39.03880054210564
6670.04776703234	39.126428304853754
6671.437360317139	39.17903641236161
6672.827243100539	39.21467340604432
6674.21741544285	39.24821843786254
6675.607877404403	39.281485176931376
6676.998629045529	39.30380703406254
6678.389670426579	39.268098932905346
6679.781001607919	39.132889538162
6681.17262264992	38.932920250305884
6682.564533612973	38.72008706950501
6683.956734557476	38.50692073203287
6685.349225543842	38.28039553260238
6686.742006632498	37.94598009792066
6688.135077883879	37.36218408255749
6689.528439358438	36.56250999805204
6690.9220911166385	35.69854533079581
6692.316033218955	34.831326011048105
6693.710265725876	33.94363216538577
6695.104788697902	32.780012924875706
6696.4996021955485	30.739934449086192
6697.894706279339	27.696810527048065
6699.290101009814	24.23093926084266
6700.685786447524	20.724035363574068
6702.081762653035	17.227381119204736
6703.478029686921	14.03061560099195
6704.874587609773	12.191466644810944
6706.27143648219	12.410021689229021
6707.668576364793	13.808135714284168
6709.066007318201	15.398466423157219
6710.46372940306	16.991173046011856
6711.861742680019	18.60869465567755
6713.260047209744	20.38893068060517
6714.658643052912	22.497945334417118
6716.0575302702155	24.858791268487604
6717.4567089223565	27.2834244181824
6718.856179070049	29.710640808965767
6720.255940774021	32.12688889564793
6721.6559940950165	34.4197204376848
6723.056339093787	36.37131635336085
6724.456975831098	37.97847076708744
6725.85790436773	39.461661421331904
6727.259124764472	40.93643389466841
6728.660637082132	42.40852179533835
6730.062441381524	43.82345235509569
6731.464537723479	45.0181470844991
6732.866926168839	45.91806190194826
6734.269606778457	46.669691332699486
6735.672579613203	47.401884819467014
6737.075844733956	48.13397768783449
6738.4794022016085	48.85734896846453
6739.883252077068	49.530594869114694
6741.2873944212515	50.113958031980026
6742.691829295089	50.63652804946748
6744.096556759525	51.146479988018505
6745.5015768755175	51.65628182966113
6746.906889704033	52.16425535247256
6748.312495306054	52.65592163046267
6749.718393742578	53.10844251798797
6751.124585074607	53.525957011023785
6752.531069363165	53.93263702701579
6753.937846669282	54.3388209116862
6755.344917054005	54.74479732269883
6756.752280578391	55.14644816813961
6758.159937303512	55.53350403760964
6759.567887290451	55.90328919072825
6760.976130600304	56.265610464258565
6762.384667294178	56.627256157658685
6763.793497433198	56.98892877930791
6765.202621078498	57.34924250792323
6766.612038291223	57.70286209297531
6768.021749132533	58.04590465490273
6769.431753663604	58.38265074104254
6770.842051945616	58.718352220788205
6772.252644039771	59.054105938989416
6773.66353000728	59.38947804999326
6775.074709909365	59.72169775905314
6776.486183807264	60.047174145357
6777.897951762223	60.3673091974044
6779.310013835508	60.68608904522645
6780.722370088391	61.004885166193354
6782.135020582158	61.323715313786764
6783.547965378113	61.64224460813514
6784.961204537568	61.95979000638507
6786.374738121846	62.276302452195104
6787.788566192289	62.59246420477846
6789.2026888102455	62.908658896958656
6790.617106037082	63.22490119213173
6792.031817934173	63.54081557090627
6793.446824562909	63.85520363090385
6794.862125984693	64.16744596102453
6796.27772226094	64.47859899286873
6797.693613453079	64.78965632505354
6799.109799622548	65.10077113817056
6800.5262808308025	65.41160087112947
6801.9430571393095	65.72043873730878
6803.360128609546	66.02553427423176
6804.777495303007	66.32801854227617
6806.195157281196	66.62996942850577
6807.6131146056305	66.93196860153971
6809.031367337839	67.23404160683958
6810.449915539369	67.53627779753162
6811.868759271772	67.83882852263453
6813.287898596622	68.14167658801014
6814.707333575495	68.44466427992083
6816.12706426999	68.74771952034206
6817.547090741715	69.050855629374
6818.967413052284	69.35433953880766
6820.388031263337	69.6588731963348
6821.808945436517	69.96468203460638
6823.230155633484	70.27110805661538
6824.651661915907	70.57765942745878
6826.073464345473	70.88425765443341
6827.49556298388	71.19035722821351
6828.917957892834	71.49374266635704
6830.340649134063	71.79267144684825
6831.763636769299	72.08886972856308
6833.186920860294	72.38461706828558
6834.610501468806	72.6804185321038
6836.034378656611	72.97621428758121
6837.458552485498	73.27156938483061
6838.883023017267	73.56589036290228
6840.307790313729	73.85937553476798
6841.732854436711	74.15267496609802
6843.158215448053	74.44602556775983
6844.583873409604	74.73937094099585
6846.009828383232	75.03197157902457
6847.436080430813	75.32223051124744
6848.862629614236	75.60994287503028
6850.289475995406	75.89668312844152
6851.716619636238	76.18339486336482
6853.144060598662	76.47014897034491
6854.57179894462	76.75654476116291
6855.999834736067	77.0412280493055
6857.428168034971	77.32342132194763
6858.856798903312	77.60429286566871
6860.285727403084	77.88501890413795
6861.7149535962935	78.16580829529286
6863.144477544959	78.44701252814471
6864.5742993111135	78.73046652612521
6866.004418956804	79.01817870397156
6867.434836544087	79.3090052514322
6868.865552135034	79.60060871876412
6870.296565791729	79.89229274259557
6871.72787757627	80.18378123997348
6873.159487550764	80.47278730149316
6874.591395777338	80.75520733142137
6876.023602318125	81.03129984179384
6877.456107235274	81.30529082634659
6878.888910590949	81.57920686390395
6880.322012447323	81.8531766257106
6881.755412866582	82.12714698247744
6883.18911191093	82.40097196000995
6884.623109642579	82.6745977133241
6886.057406123754	82.94815912909128
6887.492001416697	83.2217631007045
6888.926895583659	83.49540282359574
6890.362088686906	83.7682525524292
6891.797580788715	84.03670602179882
6893.233371951381	84.29767658799334
6894.669462237203	84.55388137165504
6896.105851708503	84.80921702594146
6897.542540427609	85.06458858989619
6898.979528456865	85.31943965805934
6900.416815858628	85.56983625811449
6901.854402695265	85.81004473980884
6903.29228902916	86.04156427613292
6904.730474922708	86.27057595057633
6906.168960438317	86.49951562754873
6907.607745638409	86.72696033164449
6909.0468305854165	86.93359560107774
6910.48621534179	87.07475454218843
6911.925899969986	87.14201986275722
6913.365884532479	87.17882331118835
6914.806169091757	87.21287327151644
6916.246753710318	87.24740591355784
6917.687638450675	87.29410709278204
6919.128823375352	87.3944045942461
6920.570308546889	87.57460890080004
6922.012094027836	87.79998713080218
6923.454179880759	88.03263282606693
6924.896566168235	88.26542476759138
6926.339252952854	88.50073914787066
6927.782240297219	88.75227151648932
6929.225528263946	89.03610043960623
6930.669116915669	89.34426925169994
6932.113006315028	89.65844764887254
6933.557196524675	89.97287024739025
6935.001687607285	90.28722659233527
6936.446479625538	90.60029059444227
6937.8915726421255	90.90976005235116
6939.33696671976	91.21566013642507
6940.782661921161	91.52033437515594
6942.228658309061	91.8249826923893
6943.67495594621	92.12957958713535
6945.121554895365	92.43209962774601
6946.568455219301	92.7266167509572
6948.015656980806	93.01058368916195
6949.463160242676	93.28937866160157
6950.910965067728	93.56756925152624
6952.359071518784	93.84582221100409
6953.807479658683	94.1243983551495
6955.256189550279	94.40448173630818
6956.705201256435	94.6871613858589
6958.154514840031	94.97158650874198
6959.604130363956	95.25641650432394
6961.054047891116	95.54130981847545
6962.504267484427	95.82574755206126
6963.954789206819	96.1059606328122
6965.405613121237	96.37612561996325
6966.856739290638	96.63742905044795
6968.30816777799	96.89606637354404
6969.759898646277	97.15462012762843
6971.211931958496	97.41266271721408
6972.6642677776545	97.6626374380489
6974.116906166776	97.8862509025482
6975.569847188894	98.07919266151109
6977.023090907059	98.2590253520045
6978.47663738433	98.43760534846459
6979.930486683786	98.61623003436263
6981.3846388685115	98.79512821013326
6982.83909400161	98.9751539499664
6984.293852146194	99.15690287545188
6985.748913365391	99.33967877914377
6987.204277722341	99.5226605130342
6988.659945280201	99.70568401837944
6990.115916102135	99.888926216255
6991.572190251322	100.07345719574919
6993.028767790958	100.26061391045386
6994.485648784248	100.4498222301244
6995.942833294413	100.6395844445682
6997.400321384683	100.82940252822998
6998.858113118305	101.01834582844383
7000.316208558537	101.19731239846564
7001.774607768653	101.34820356618266
7003.23331081194	101.47015434467626
7004.692317751692	101.58134888818363
7006.151628651223	101.69174580652857
7007.6112435738605	101.8021120197465
7009.071162582939	101.91136015336639
7010.5313857418105	102.01609430255232
7011.9919131138395	102.11466142270267
7013.452744762405	102.21009259534583
7014.913880750897	102.30512508076708
7016.375321142722	102.40022044745739
7017.837066001293	102.49740321387789
7019.299115390043	102.60634760277189
7020.761469372417	102.73654857198719
7022.224128011869	102.8813776443892
7023.687091371872	103.0293946761671
7025.150359515908	103.17751643689272
7026.613932507475	103.32665849381293
7028.07781041008	103.48477538050844
7029.541993287248	103.66501004614523
7031.0064812025175	103.86546822647242
7032.471274219435	104.0723669641236
7033.936372401564	104.27964993572125
7035.401775812481	104.4859694275487
7036.867484515776	104.67696900213754
7038.33349857505	104.81590432765384
7039.79981805392	104.89185107897134
7041.266443016016	104.93947663939144
7042.733373524977	104.98403735402272
7044.200609644461	105.02877661042065
7045.668151438137	105.07905734451505
7047.135998969687	105.15616213477182
7048.604152302806	105.27613600918927
7050.072611501203	105.4220472994828
7051.541376628598	105.57255735372156
7053.010447748729	105.72311955397292
7054.479824925345	105.87055932718899
7055.949508222204	105.99534166634668
7057.419497703085	106.07165465283965
7058.889793431773	106.10889659973185
7060.360395472071	106.13557394332955
7061.831303887795	106.1618424040761
7063.302518742772	106.18846062271571
