#wavelength (Angstrom)	surface_flux (erg / (Angstrom cm2 s))
6300.0	266.04780302965867
6301.3125	395.05628860220133
6302.6252734375	462.3886330304951
6303.938320369467	466.86811402572425
6305.251640852877	468.64582947955677
6306.565234944722	471.0450814406931
6307.8791027020025	473.6080984927524
6309.193244181732	476.17765598370505
6310.5076594409375	478.7864830097912
6311.822348536654	481.8367491497871
6313.137311525933	486.15084963386437
6314.452548465834	491.7885533068172
6315.768059413431	497.9279827907349
6317.083844425809	504.1075841016807
6318.399903560065	510.2707742769646
6319.716236873307	516.0568963064924
6321.032844422655	520.3203245743424
6322.349726265244	522.4721037140156
6323.666882458216	523.5217700019447
6324.984313058728	524.4175000610903
6326.302018123949	525.3193264136146
6327.619997711058	526.5607372180166
6328.938251877249	529.7920508502931
6330.256780679723	536.7048907007949
6331.575584175699	546.2036568779486
6332.894662422402	556.2787738723454
6334.214015477073	566.3691637938596
6335.533643396964	576.259443369624
6336.853546239339	584.3067901416448
6338.173724061472	587.760786861004
6339.494176920652	586.97294049866
6340.814904874177	584.8172690064819
6342.135907979359	582.5842516772713
6343.457186293522	580.4514622727447
6344.778739874001	579.876558203288
6346.100568778142	584.6382259267589
6347.422673063304	595.9083561131296
6348.745052786858	610.1332386651937
6350.067708006189	624.6857825569302
6351.39063877869	639.2088736362049
6352.713845161769	652.596516381599
6354.037327212845	660.3044800878063
6355.3610849893485	658.7426999758285
6356.685118548721	651.458648350659
6358.009427948419	643.1317676637352
6359.334013245908	634.7957615104737
6360.658874498668	627.1061610120108
6361.984011764189	624.2007361304704
6363.309425099973	631.7327369802928
6364.635114563535	647.8468130891769
6365.961080212403	666.349493390872
6367.2873221041145	684.9550405087051
6368.61384029622	703.5055403871643
6369.940634846282	721.318594446372
6371.267705811875	736.9087936282918
6372.595053250586	750.0892357612496
6373.922677220014	762.3265639026947
6375.250577777768	774.4893080661247
6376.578754981471	786.6395693676023
6377.907208888761	798.4537864410631
6379.235939557279	808.8604849748006
6380.564947044686	817.2560685211727
6381.894231408654	824.5661536419115
6383.223792706865	831.7162044590034
6384.553630997012	838.8654675798823
6385.883746336804	845.9365760651243
6387.2141387839565	852.5124378532703
6388.544808396204	858.1352229875145
6389.875755231287	863.0676681922047
6391.20697934696	867.8417311924707
6392.53848080099	872.6128988656677
6393.870259651158	877.4304045249025
6395.202315955253	882.6819459373432
6396.534649771077	889.0512308069492
6397.867261156446	896.4898334031192
6399.2001501691875	904.2920269526333
6400.533316867139	912.1187649456318
6401.866761308153	919.9259663918974
6403.200483550093	927.3692062606308
6404.534483650832	933.4944240872778
6405.868761668259	937.9485023404619
6407.2033176602745	941.6146634398881
6408.5381516847865	945.1898215117454
6409.873263799722	948.7367854163416
6411.2086540630135	951.2265636116684
6412.544322532611	948.2533201924936
6413.880269266471	936.0813791104752
6415.216494322568	918.020428497685
6416.552997758886	898.8134079092775
6417.8897796334195	879.5880534205805
6419.226840004177	861.0516944765387
6420.5641789291785	847.9756867606703
6421.9017964664545	847.3146079695648
6423.239692674053	857.2218606540503
6424.577867610025	870.1942349044358
6425.9163213324455	883.3056013646417
6427.25505389939	896.5344308104831
6428.594065368952	911.2738383724859
6429.933355799238	930.7078398563116
6431.272925248362	955.4180124993402
6432.612773774456	982.3070110630072
6433.9529014356585	1009.4019109930762
6435.293308290125	1036.448795604328
6436.63399439602	1062.1425732829628
6437.974959811519	1081.8668267682597
6439.316204594813	1092.7060211733215
6440.657728804104	1098.5441315625526
6441.999532497605	1103.5928310666632
6443.341615733541	1108.635069907877
6444.683978570154	1113.5696231246254
6446.026621065689	1117.7984012184254
6447.369543278411	1120.6238682545782
6448.7127452665945	1122.3955560512193
6450.056227088525	1123.9099878922286
6451.399988802502	1125.416998273213
6452.744030466836	1126.973585569502
6454.088352139851	1129.03305541806
6455.43295387988	1132.443805261501
6456.777835745272	1137.1952323985117
6458.122997794385	1142.4227488808556
6459.468440085592	1147.6839805320972
6460.814162677278	1152.8839187585415
6462.160165627836	1156.9005132862833
6463.506448995675	1156.437949203305
6464.853012839217	1150.0785184725537
6466.199857216891	1140.8145845479137
6467.546982187145	1131.183062720274
6468.894387808435	1121.5498081755336
6470.242074139227	1111.9636006434516
6471.590041238007	1102.6400326375062
6472.938289163264	1093.7755502895197
6474.286817973508	1085.2146791132568
6475.6356277272525	1076.7144624181992
6476.984718483029	1068.2158359240639
6478.334090299379	1060.2732331332536
6479.683743234858	1057.0400552214355
6481.033677348033	1064.9544199676125
6482.38389269748	1082.687061804993
6483.734389341793	1103.391362602653
6485.085167339573	1124.243993647801
6486.436226749436	1145.0871303134893
6487.787567630007	1165.7407449256152
6489.139190039932	1185.7701942388744
6490.491094037857	1205.0713897077333
6491.843279682447	1224.0610555880069
6493.195747032382	1243.0230632269852
6494.548496146348	1261.9511947683604
6495.901527083045	1279.7723163232884
6497.254839901187	1292.4445451773192
6498.6084346595	1297.1886214254328
6499.962311416722	1297.3355237242745
6501.316470231601	1296.7291550519926
6502.670911162898	1296.1214571340004
6504.025634269391	1295.8924765597324
6505.3806396098635	1298.2273969343066
6506.735927243117	1305.8259278973842
6508.091497227958	1317.5142393955487
6509.447349623215	1330.2566751038974
6510.80348448772	1343.0382717827467
6512.159901880322	1355.582084075563
6513.51660185988	1365.400634017058
6514.873584485267	1367.4809622339371
6516.23084981537	1361.562566716944
6517.58839790908	1352.6803708304506
6518.946228825313	1343.579907303473
6520.304342622985	1334.4864480041572
6521.662739361031	1325.5699239759401
6523.021419098398	1317.35388510103
6524.380381894044	1310.0932072765138
6525.739627806938	1303.3224154425877
6527.099156896065	1296.6173064183758
6528.458969220418	1289.9168530258603
6529.819064839006	1283.497176021925
6531.179443810848	1278.6958583253365
6532.540106194976	1276.8337335931053
6533.9010520504335	1276.9916469599355
6535.262281436278	1277.582223939597
6536.6237944115765	1278.1839338735767
6537.985591035413	1279.3227741110331
6539.347671366879	1285.163075834065
6540.71003546508	1302.4612721942747
6542.072683389135	1330.1732834166714
6543.435615198176	1361.1926857776843
6544.798830951341	1392.4003825870723
6546.162330707791	1423.487999667869
6547.526114526688	1452.6541990394392
6548.890182467215	1475.303571055605
6550.254534588562	1490.1024180190448
6551.619170949934	1501.4012495283127
6552.984091610549	1512.332484563202
6554.349296629635	1523.2254947940291
6555.7147860664345	1532.8478559270575
6557.080559980198	1536.3196842757454
6558.446618430195	1529.9523086666322
6559.8129614757	1517.610966547018
6561.1795891760075	1504.200249589178
6562.54650159042	1490.7728804907645
6563.913698778251	1477.2984150444042
6565.281180798831	1463.5000244888722
6566.648947711497	1449.0083068316405
6568.016999575604	1433.9544641891616
6569.385336450516	1418.7457043277514
6570.753958395609	1403.5279127339074
6572.122865470276	1388.675966533092
6573.492057733915	1378.186495657575
6574.861535245943	1380.439783472592
6576.231298065786	1396.233557423922
6577.601346252884	1417.2397183228074
6578.971679866686	1438.6682577910574
6580.342298966659	1460.111546715724
6581.7132036122775	1481.785206478029
6583.08439386303	1504.39342114431
6584.455869778419	1528.3216333551527
6585.827631417956	1552.957110588973
6587.199678841168	1577.699743500767
6588.572012107595	1602.4397515461474
6589.944631276783	1626.6948083579637
6591.3175364083	1647.9830458340004
6592.690727561718	1663.668723922335
6594.064204796627	1675.357027534034
6595.437968172626	1686.1413462513592
6596.812017749329	1696.9042929560965
6598.18635358636	1707.2751942950692
6599.5609757433585	1713.9790163356254
6600.935884279972	1711.366047939957
6602.311079255864	1699.9571004765671
6603.686560730708	1685.613978824011
6605.062328764195	1671.0893870776251
6606.43838341602	1656.6210781494879
6607.814724745898	1643.1617549333553
6609.191352813554	1633.3057332545968
6610.568267678725	1627.96164141694
6611.9454694011565	1624.7135981144095
6613.322958040616	1621.7019481350537
6614.700733656875	1618.672602220433
6616.07879630972	1615.0537175944535
6617.457146058951	1608.4738061009816
6618.835782964381	1597.0022221959046
6620.214707085831	1582.4552259317197
6621.593918483141	1567.3247427483618
6622.973417216159	1552.1828556072687
6624.353203344746	1537.129148464507
6625.733276928776	1522.7847427568297
6627.113638028136	1510.0328747682343
6628.494286702727	1498.61161070724
6629.8752230124555	1487.5625477978795
6631.25644701725	1476.5263638733795
6632.637958777046	1465.9671288671375
6634.019758351792	1461.433622684194
6635.401845801448	1475.2565373648588
6636.784221185991	1509.3756313332042
6638.166884565405	1551.721165975075
6639.54983599969	1594.8111451254
6640.933075548856	1637.8107616187715
6642.316603272929	1678.3166228265168
6643.700419231944	1707.9630844898084
6645.084523485952	1721.6860649707003
6646.468916095012	1726.622226658958
6647.853597119198	1730.2261386635987
6649.238566618597	1733.8062181341488
6650.623824653309	1736.305754722473
6652.009371283446	1731.9898239246575
6653.39520656913	1714.3824782753663
6654.781330570499	1686.9436021339466
6656.167743347702	1657.1398711958343
6657.554444960899	1627.2608070368053
6658.941435470266	1597.6944165450102
6660.328714935989	1571.3244576627906
6661.716283418268	1553.4346519315852
6663.104140977314	1543.82631487727
6664.492287673351	1537.084930013917
6665.880723566617	1530.527536639816
6667.269448717359	1523.9355182069544
6668.658463185843	1516.7468513877704
6670.04776703234	1507.36213169551
6671.437360317139	1495.1363415650455
6672.827243100539	1481.531950170332
6674.21741544285	1467.7546116584826
6675.607877404403	1453.9416997829455
6676.998629045529	1438.8628605918434
6678.389670426579	1417.0878699720652
6679.781001607919	1383.8339248200753
6681.17262264992	1343.1076774033104
6682.564533612973	1300.8941840819305
6683.956734557476	1258.6437141386245
6685.349225543842	1215.7866770304267
6686.742006632498	1168.078995549311
6688.135077883879	1109.1683248294987
6689.528439358438	1040.5587905285768
6690.9220911166385	969.05605540499
6692.316033218955	897.4003867441373
6693.710265725876	825.5567080248977
6695.104788697902	751.3463326055494
6696.4996021955485	669.6474376509454
6697.894706279339	579.3803946292633
6699.290101009814	485.4944346791622
6700.685786447524	391.2451152000953
6702.081762653035	297.2275412572862
6703.478029686921	210.07267719794015
6704.874587609773	153.99602666704925
6706.27143648219	145.025313553962
6707.668576364793	163.05638215661372
6709.066007318201	185.48512637255823
6710.46372940306	207.98173665366645
6711.861742680019	232.2708193421572
6713.260047209744	268.42192364745995
6714.658643052912	328.561219375634
6716.0575302702155	407.06993059059454
6717.4567089223565	490.21688879103004
6718.856179070049	573.5329407152628
6720.255940774021	657.0133930725995
6721.6559940950165	742.0993136749045
6723.056339093787	831.5821338912466
6724.456975831098	925.5029430734121
6725.85790436773	1021.036248151563
6727.259124764472	1116.7012977992401
6728.660637082132	1212.1751803654365
6730.062441381524	1303.614393503322
6731.464537723479	1379.512407664989
6732.866926168839	1434.6095242078686
6734.269606778457	1479.24213682968
6735.672579613203	1522.5016334772042
6737.075844733956	1565.7343306463033
6738.4794022016085	1607.4698778356108
6739.883252077068	1640.681017706221
6741.2873944212515	1658.6199337802173
6742.691829295089	1666.2238502371436
6744.096556759525	1671.6692711228577
6745.5015768755175	1677.0780172525624
6746.906889704033	1683.3643315321085
6748.312495306054	1697.0879288083195
6749.718393742578	1728.59568413661
6751.124585074607	1776.012427882815
6752.531069363165	1828.38703772781
6753.937846669282	1881.0357162147957
6755.344917054005	1933.7106294050445
6756.752280578391	1986.6270106750942
6758.159937303512	2040.3215891989007
6759.567887290451	2094.9342145151245
6760.976130600304	2149.952340054182
6762.384667294178	2205.021181703889
6763.793497433198	2259.9588603281127
6765.202621078498	2310.682525929181
6766.612038291223	2341.473806129364
6768.021749132533	2340.8931986478933
6769.431753663604	2321.5516979985287
6770.842051945616	2298.9219372767884
6772.252644039771	2276.2469860075735
6773.66353000728	2253.478384479604
6775.074709909365	2230.0704675819698
6776.486183807264	2205.316060217265
6777.897951762223	2179.491256500559
6779.310013835508	2153.381053619688
6780.722370088391	2127.2555953620626
6782.135020582158	2101.5356908484187
6783.547965378113	2080.4709043795333
6784.961204537568	2072.728743474846
6786.374738121846	2078.931873094935
6787.788566192289	2090.423078261333
6789.2026888102455	2102.334503234231
6790.617106037082	2114.249981843726
6792.031817934173	2126.2018267378267
6793.446824562909	2138.2931541819044
6794.862125984693	2150.577262086669
6796.27772226094	2162.9632532305736
6797.693613453079	2175.365636747306
6799.109799622548	2187.749583072995
6800.5262808308025	2199.030087650557
6801.9430571393095	2203.8119495337505
6803.360128609546	2196.561908124784
6804.777495303007	2180.8552073448836
6806.195157281196	2163.2600137266923
6807.6131146056305	2145.6156200374976
6809.031367337839	2128.240266588886
6810.449915539369	2113.365995230264
6811.868759271772	2104.773732399051
6813.287898596622	2102.0335776595234
6814.707333575495	2101.204932872407
6816.12706426999	2100.4866950928235
6817.547090741715	2100.1118526703044
6818.967413052284	2105.2517360744905
6820.388031263337	2129.505755411343
6821.808945436517	2177.241227065381
6823.230155633484	2235.709741656801
6824.651661915907	2295.3821447316254
6826.073464345473	2354.9218742877138
6827.49556298388	2409.6390453482813
6828.917957892834	2440.4913330674417
6830.340649134063	2432.501537273783
6831.763636769299	2400.5059920357626
6833.186920860294	2364.0975218068434
6834.610501468806	2327.6255159347593
6836.034378656611	2291.6585156860133
6837.458552485498	2259.5078450181377
6838.883023017267	2235.691555301136
6840.307790313729	2218.700007033792
6841.732854436711	2203.5844151816395
6843.158215448053	2188.5413241778374
6844.583873409604	2174.1094254783684
6846.009828383232	2167.136540635303
6847.436080430813	2182.4104579423065
6848.862629614236	2221.8282871892775
6850.289475995406	2270.8109367971674
6851.716619636238	2320.6210268762416
6853.144060598662	2370.2306973996906
6854.57179894462	2414.774260952205
6855.999834736067	2437.807743247973
6857.428168034971	2429.88969236773
6858.856798903312	2405.20641012737
6860.285727403084	2378.04057858768
6861.7149535962935	2350.8625502105483
6863.144477544959	2324.1440460184663
6864.5742993111135	2300.2804348854406
6866.004418956804	2281.893568504363
6867.434836544087	2267.4902519310117
6868.865552135034	2254.0190632002195
6870.296565791729	2240.571761305635
6871.72787757627	2228.2597005334546
6873.159487550764	2227.237683975267
6874.591395777338	2255.727292909277
6876.023602318125	2312.580691240058
6877.456107235274	2379.0329154098094
6878.888910590949	2446.085240421683
6880.322012447323	2512.6033878938483
6881.755412866582	2569.8702089543617
6883.18911191093	2593.938497950295
6884.623109642579	2575.973700699209
6886.057406123754	2538.1003563406316
6887.492001416697	2497.851055808143
6888.926895583659	2457.5707623293306
6890.362088686906	2416.599982257118
6891.797580788715	2372.034562199622
6893.233371951381	2321.3888024721946
6894.669462237203	2266.8508014916606
6896.105851708503	2211.558540618547
6897.542540427609	2156.252811811107
6898.979528456865	2102.2430361789534
6900.416815858628	2058.494876078877
6901.854402695265	2038.0755130422924
6903.29228902916	2037.5683104037257
6904.730474922708	2042.8864186224894
6906.168960438317	2048.4780286935115
6907.607745638409	2054.27253549206
6909.0468305854165	2062.7956555485107
6910.48621534179	2079.8883941070885
6911.925899969986	2106.651465811535
6913.365884532479	2137.405386070266
6914.806169091757	2168.526784383831
6916.246753710318	2199.653561257538
6917.687638450675	2230.7585650788865
6919.128823375352	2261.745536622834
6920.570308546889	2292.553342849009
6922.012094027836	2323.262689582408
6923.454179880759	2353.9616566933364
6924.896566168235	2384.6535137670517
6926.339252952854	2414.370525065745
6927.782240297219	2437.6806249046026
6929.225528263946	2448.206570850657
6930.669116915669	2449.10422349885
6932.113006315028	2447.64394355531
6933.557196524675	2446.112351749585
6935.001687607285	2444.4956634548994
6936.446479625538	2442.0049658486596
6937.8915726421255	2437.158942056502
6939.33696671976	2429.9737786228116
6940.782661921161	2421.9573658832137
6942.228658309061	2413.881763361314
6943.67495594621	2406.0363823499124
6945.121554895365	2402.509528402131
6946.568455219301	2415.262826267933
6948.015656980806	2449.437893060661
6949.463160242676	2494.1789650723863
6950.910965067728	2540.266525425016
6952.359071518784	2586.3544139312835
6953.807479658683	2631.90079548798
6955.256189550279	2674.445275715214
6956.705201256435	2711.7249106531353
6958.154514840031	2745.50765130556
6959.604130363956	2778.5792484344793
6961.054047891116	2811.6400590340945
6962.504267484427	2843.986333010162
6963.954789206819	2870.337564583143
6965.405613121237	2882.5350670009407
6966.856739290638	2882.2411687765625
6968.30816777799	2878.1357107198623
6969.759898646277	2873.8368266887833
6971.211931958496	2869.611912426468
6972.6642677776545	2866.4622180035312
6974.116906166776	2866.811583369315
6975.569847188894	2871.2311360504086
6977.023090907059	2877.3938617364356
6978.47663738433	2883.7288149316837
6979.930486683786	2890.0301655725975
6981.3846388685115	2895.349910393414
6982.83909400161	2896.135101502952
6984.293852146194	2889.907963215612
6985.748913365391	2879.5647770520377
6987.204277722341	2868.521581970253
6988.659945280201	2857.4865469970005
6990.115916102135	2848.161523806859
6991.572190251322	2850.6943005697126
6993.028767790958	2877.763393615592
6994.485648784248	2923.92413780704
6995.942833294413	2974.973378825828
6997.400321384683	3026.1954541816226
6998.858113118305	3076.992392256334
7000.316208558537	3123.0258112932406
7001.774607768653	3155.669102520147
7003.23331081194	3174.5099741941963
7004.692317751692	3188.215776140646
7006.151628651223	3201.5332092478116
7007.6112435738605	3214.7308336313113
7009.071162582939	3225.3266519768977
7010.5313857418105	3225.569330328252
7011.9919131138395	3211.6857008737384
7013.452744762405	3190.5943493101686
7014.913880750897	3168.5431995646186
7016.375321142722	3146.4575705632906
7017.837066001293	3123.0960118698335
7019.299115390043	3092.509992682096
7020.761469372417	3048.8612094586956
7022.224128011869	2996.225413521294
7023.687091371872	2941.6369768243953
7025.150359515908	2886.9955129624764
7026.613932507475	2833.353420937996
7028.07781041008	2788.836609278013
7029.541993287248	2766.8711889390966
7031.0064812025175	2765.522073955058
7032.471274219435	2770.709338019896
7033.936372401564	2776.246162606379
7035.401775812481	2782.070297913811
7036.867484515776	2792.262750148811
7038.33349857505	2817.268574652887
7039.79981805392	2860.19315522512
7041.266443016016	2911.181841660107
7042.733373524977	2963.055193330692
7044.200609644461	3014.799484505843
7045.668151438137	3062.0556593915376
7047.135998969687	3087.516166320348
7048.604152302806	3078.132768139946
7050.072611501203	3047.6747489795675
7051.541376628598	3013.49526859197
7053.010447748729	2979.2824881597403
7054.479824925345	2946.6711381264913
7055.949508222204	2925.6248360462714
7057.419497703085	2929.3086692636925
7058.889793431773	2952.929133308189
7060.360395472071	2981.9468353863967
