#wavelength (Angstrom)	surface_flux (erg / (Angstrom cm2 s))
6300.0	114.92065777897444
6301.3125	171.15304342839394
6302.6252734375	201.43288826508692
6303.938320369467	204.6625357541006
6305.251640852877	206.45965511589827
6306.565234944722	208.30770806133535
6307.8791027020025	210.16943482566296
6309.193244181732	212.03203921005192
6310.5076594409375	213.8991673421066
6311.822348536654	215.8137594914374
6313.137311525933	217.86362399970696
6314.452548465834	220.05514253779475
6315.768059413431	222.30056219366887
6317.083844425809	224.55060228097065
6318.399903560065	226.7997353648817
6319.716236873307	229.01992656690928
6321.032844422655	231.12212303883197
6322.349726265244	233.06054358512577
6323.666882458216	234.9136625746215
6324.984313058728	236.75518470570054
6326.302018123949	238.5978354512353
6327.619997711058	240.4817926843867
6328.938251877249	242.60604293874243
6330.256780679723	245.1745530831593
6331.575584175699	248.0552216872065
6332.894662422402	251.00574508676215
6334.214015477073	253.95847585986613
6335.533643396964	256.8892525247663
6336.853546239339	259.6147171266189
6338.173724061472	261.8278912901767
6339.494176920652	263.56800734823156
6340.814904874177	265.15583910615004
6342.135907979359	266.73541909499346
6343.457186293522	268.3270362418122
6344.778739874001	270.10017951514914
6346.100568778142	272.4942151751373
6347.422673063304	275.64540470705504
6348.745052786858	279.14054110186345
6350.067708006189	282.674159839064
6351.39063877869	286.2047668967915
6352.713845161769	289.6047487991381
6354.037327212845	292.3497780343515
6355.3610849893485	294.0256217481211
6356.685118548721	295.0415985023257
6358.009427948419	295.93763712466
6359.334013245908	296.83307157765194
6360.658874498668	297.8102639802784
6361.984011764189	299.38996993639165
6363.309425099973	302.28367451552805
6364.635114563535	306.25787424646455
6365.961080212403	310.533095180229
6367.2873221041145	314.8216678675364
6368.61384029622	319.09712773453987
6369.940634846282	323.197266525802
6371.267705811875	326.768997915604
6372.595053250586	329.76789467477704
6373.922677220014	332.54258238110566
6375.250577777768	335.2995132949307
6376.578754981471	338.05652817270675
6377.907208888761	340.8030730285775
6379.235939557279	343.5041962637865
6380.564947044686	346.1402085468687
6381.894231408654	348.74130377316254
6383.223792706865	351.3376708656338
6384.553630997012	353.93462700369616
6385.883746336804	356.5374612255502
6387.2141387839565	359.1741235403012
6388.544808396204	361.87529385572844
6389.875755231287	364.62336597947615
6391.20697934696	367.38269287378347
6392.53848080099	370.14288807407496
6393.870259651158	372.9145526701248
6395.202315955253	375.790835060199
6396.534649771077	378.9360030390146
6397.867261156446	382.3384219030019
6399.2001501691875	385.82853369267036
6400.533316867139	389.3248791083933
6401.866761308153	392.81632689782344
6403.200483550093	396.21133201089447
6404.534483650832	399.2563137179577
6405.868761668259	401.8574165793728
6407.2033176602745	404.24939332503243
6408.5381516847865	406.6174775964783
6409.873263799722	408.98350702025044
6411.2086540630135	411.25746417006314
6412.544322532611	413.0538518649676
6413.880269266471	414.04580987761005
6415.216494322568	414.52292596394625
6416.552997758886	414.9001930295678
6417.8897796334195	415.2763673465235
6419.226840004177	415.72578347057555
6420.5641789291785	416.75217652224984
6421.9017964664545	419.0897748926452
6423.239692674053	422.5436244934056
6424.577867610025	426.32157539536905
6425.9163213324455	430.1147021238055
6427.25505389939	433.92451237628893
6428.594065368952	437.9439889092693
6429.933355799238	442.6142007913904
6431.272925248362	448.01571167858134
6432.612773774456	453.7194588010541
6433.9529014356585	459.452140891281
6435.293308290125	465.17924317862725
6436.63399439602	470.7359847095137
6437.974959811519	475.5394995415812
6439.316204594813	479.22167410913704
6440.657728804104	482.2728968479625
6441.999532497605	485.22493115317496
6443.341615733541	488.1765153217173
6444.683978570154	491.10651650283006
6446.026621065689	493.8928379559076
6447.369543278411	496.39308147368337
6448.7127452665945	498.67860222112466
6450.056227088525	500.91200631913813
6451.399988802502	503.144315622127
6452.744030466836	505.39744740809283
6454.088352139851	507.85872572314435
6455.43295387988	510.878742311854
6456.777835745272	514.4531157850206
6458.122997794385	518.224563974774
6459.468440085592	522.0102802904381
6460.814162677278	525.7911761279263
6462.160165627836	529.4663729861246
6463.506448995675	532.7395586689297
6464.853012839217	535.4832733756666
6466.199857216891	537.9665475934172
6467.546982187145	540.4174644519359
6468.894387808435	542.8663826712037
6470.242074139227	545.2177556506
6471.590041238007	547.0406281559635
6472.938289163264	547.9423172416741
6474.286817973508	548.2336049077808
6475.6356277272525	548.4001440276168
6476.984718483029	548.5644512308372
6478.334090299379	548.7557647131993
6479.683743234858	549.1749215247263
6481.033677348033	550.133235807848
6482.38389269748	551.5664311714722
6483.734389341793	553.1434405563616
6485.085167339573	554.7277423958418
6486.436226749436	556.3317093702501
6487.787567630007	558.2068732109831
6489.139190039932	560.9605084837185
6490.491094037857	564.7380465667261
6491.843279682447	568.9572515490822
6493.195747032382	573.2215064525609
6494.548496146348	577.48239092908
6495.901527083045	581.6185395751289
6497.254839901187	585.172907626032
6498.6084346595	587.8312241931035
6499.962311416722	589.9701471712281
6501.316470231601	592.0243345111044
6502.670911162898	594.079347194562
6504.025634269391	596.2202458823933
6505.3806396098635	598.9399543458288
6506.735927243117	602.8474607745584
6508.091497227958	607.677978074425
6509.447349623215	612.7467369366182
6510.80348448772	617.8247955097962
6512.159901880322	622.8729166522091
6513.51660185988	627.5704468823598
6514.873584485267	631.2711801735016
6516.23084981537	633.941536109768
6517.58839790908	636.2305523307364
6518.946228825313	638.4921477138788
6520.304342622985	640.7575392181176
6521.662739361031	643.0902105854304
6523.021419098398	645.6857518512564
6524.380381894044	648.6393807847091
6525.739627806938	651.7772036587364
6527.099156896065	654.9407452552217
6528.458969220418	658.1015361496328
6529.819064839006	661.0904394095517
6531.179443810848	663.0895336524088
6532.540106194976	663.2911395362948
6533.9010520504335	662.2573129276072
6535.262281436278	660.9587206892941
6536.6237944115765	659.6548926110223
6537.985591035413	658.4850798843211
6539.347671366879	658.4906424393479
6540.71003546508	661.3611382413158
6542.072683389135	666.835477784489
6543.435615198176	673.1365820372409
6544.798830951341	679.4844691418783
6546.162330707791	685.8217838521919
6547.526114526688	691.9792542588051
6548.890182467215	697.5250490295533
6550.254534588562	702.3338404970002
6551.619170949934	706.8144469884801
6552.984091610549	711.2612226335116
6554.349296629635	715.7031075727871
6555.7147860664345	719.9629554878493
6557.080559980198	723.3393584157694
6558.446618430195	725.3021268375811
6559.8129614757	726.4068292031081
6561.1795891760075	727.3584251173799
6562.54650159042	728.3083091440477
6563.913698778251	729.2604897820656
6565.281180798831	730.228082149428
6566.648947711497	731.2285871352706
6568.016999575604	732.2557888909214
6569.385336450516	733.2903954592981
6570.753958395609	734.3254953489826
6572.122865470276	735.4309684342453
6573.492057733915	737.3666571147301
6574.861535245943	741.7258272119828
6576.231298065786	748.6601434266543
6577.601346252884	756.5862615720972
6578.971679866686	764.5935018948927
6580.342298966659	772.5939964365443
6581.7132036122775	780.4108335438218
6583.08439386303	787.4663235945875
6584.455869778419	793.4442625302885
6585.827631417956	798.8473181898886
6587.199678841168	804.1678027505483
6588.572012107595	809.4875339407241
6589.944631276783	814.7253626541874
6591.3175364083	819.4609268271518
6592.690727561718	823.2478026006407
6594.064204796627	826.3578654389313
6595.437968172626	829.3150528959532
6596.812017749329	832.2688771649908
6598.18635358636	835.1633723185544
6599.5609757433585	837.500627157915
6600.935884279972	838.4217026191322
6602.311079255864	838.0057789596442
6603.686560730708	837.1440404773941
6605.062328764195	836.254987428916
6606.43838341602	835.38185117315
6607.814724745898	834.7832855311639
6609.191352813554	835.1636333662568
6610.568267678725	836.7695824866117
6611.9454694011565	838.9452343025697
6613.322958040616	841.1857026033119
6614.700733656875	843.4267916735404
6616.07879630972	845.6715771673503
6617.457146058951	847.9330642643092
6618.835782964381	850.2218405924992
6620.214707085831	852.527945999058
6621.593918483141	854.8377150278673
6622.973417216159	857.1477661557502
6624.353203344746	859.4159623140603
6625.733276928776	861.354395405926
6627.113638028136	862.5536594617903
6628.494286702727	863.1351682264356
6629.8752230124555	863.5431691195897
6631.25644701725	863.9442182357659
6632.637958777046	864.4089960867515
6634.019758351792	865.6743926752206
6635.401845801448	869.3779505414749
6636.784221185991	875.7772738631239
6638.166884565405	883.2694754387411
6639.54983599969	890.8609301449086
6640.933075548856	898.4352823149404
6642.316603272929	905.5405192183468
6643.700419231944	910.6032876389056
6645.084523485952	912.671169692262
6646.468916095012	913.0863800402025
6647.853597119198	913.250923067341
6649.238566618597	913.4118561012845
6650.623824653309	913.4321060145056
6652.009371283446	912.5653417433945
6653.39520656913	909.9687970499232
6654.781330570499	906.0927340169304
6656.167743347702	901.9088501505698
6657.554444960899	897.7151190292477
6658.941435470266	893.5748152699825
6660.328714935989	889.9789763903667
6661.716283418268	887.8272983665208
6663.104140977314	887.085949852933
6664.492287673351	886.8329635882831
6665.880723566617	886.6114932723116
6667.269448717359	886.35130575585
6668.658463185843	885.3989216938221
6670.04776703234	881.894670717101
6671.437360317139	875.0885738446495
6672.827243100539	866.6810837116452
6674.21741544285	858.0740472019434
6675.607877404403	849.4473827509732
6676.998629045529	840.1414145782071
6678.389670426579	827.2433416940088
6679.781001607919	808.1876431626442
6681.17262264992	785.1235084002881
6682.564533612973	761.2613532429658
6683.956734557476	737.3792480166644
6685.349225543842	713.1968152939851
6686.742006632498	686.6170821030474
6688.135077883879	654.501393192211
6689.528439358438	617.5929278076475
6690.9220911166385	579.2543225645805
6692.316033218955	540.8395266297155
6693.710265725876	502.2836221941859
6695.104788697902	461.9111304896834
6696.4996021955485	415.7832071763569
6697.894706279339	363.0695842150916
6699.290101009814	307.5763788745541
6700.685786447524	251.80721932234903
6702.081762653035	196.1810951434239
6703.478029686921	144.7774936944044
6704.874587609773	112.49422381443297
6706.27143648219	109.19182654029645
6707.668576364793	122.50186763829582
6709.066007318201	138.51789890400175
6710.46372940306	154.57366997086507
6711.861742680019	171.547308481305
6713.260047209744	194.5897841667708
6714.658643052912	229.90410889251766
6716.0575302702155	274.6160584932881
6717.4567089223565	321.7016016879814
6718.856179070049	368.8745899491295
6720.255940774021	416.07664232057823
6721.6559940950165	463.4962833110012
6723.056339093787	511.49869428429463
6724.456975831098	560.0892521897463
6725.85790436773	608.8983228084558
6727.259124764472	657.7321933171685
6728.660637082132	706.4967044654725
6730.062441381524	753.7437776878247
6731.464537723479	795.1382099462184
6732.866926168839	828.6983561235024
6734.269606778457	858.3185596290579
6735.672579613203	887.4240951245123
6737.075844733956	916.5227899378365
6738.4794022016085	945.0889227286917
6739.883252077068	970.6094415056403
6741.2873944212515	990.6712265242161
6742.691829295089	1007.0399037648378
6744.096556759525	1022.6395142533485
6745.5015768755175	1038.227606671048
6746.906889704033	1053.8687216969229
6748.312495306054	1069.9354010677398
6749.718393742578	1087.015267935852
6751.124585074607	1105.0018278309171
6752.531069363165	1123.2731423577109
6753.937846669282	1141.5632086855785
6755.344917054005	1159.854912191505
6756.752280578391	1178.1176140326124
6758.159937303512	1196.2749082055886
6759.567887290451	1214.3068872784131
6760.976130600304	1232.2865169293998
6762.384667294178	1250.2643042585044
6763.793497433198	1268.2176506394817
6765.202621078498	1285.3397420908652
6766.612038291223	1298.5244624978702
6768.021749132533	1305.5112456767686
6769.431753663604	1308.7921576678389
6770.842051945616	1311.4247545245753
6772.252644039771	1314.0488986908601
6773.66353000728	1316.549344501745
6775.074709909365	1318.1637072667731
6776.486183807264	1317.90394560809
6777.897951762223	1316.1558110537655
6779.310013835508	1314.016078538327
6780.722370088391	1311.8621211034763
6782.135020582158	1309.8177264255644
6783.547965378113	1309.020376130068
6784.961204537568	1311.790103264274
6786.374738121846	1318.2935768472832
6787.788566192289	1326.2135192573862
6789.2026888102455	1334.2469511416289
6790.617106037082	1342.2883501651434
6792.031817934173	1350.467071025314
6793.446824562909	1359.1959147757843
6794.862125984693	1368.6882458923906
6796.27772226094	1378.5801760676281
6797.693613453079	1388.5294601269754
6799.109799622548	1398.4719442190762
6800.5262808308025	1407.9390736073285
6801.9430571393095	1414.601952578946
6803.360128609546	1416.0720905036417
6804.777495303007	1413.8927796724458
6806.195157281196	1410.8992392769464
6807.6131146056305	1407.885194819847
6809.031367337839	1404.9092270383157
6810.449915539369	1402.2881132203513
6811.868759271772	1400.5584524702251
6813.287898596622	1399.6592321537062
6814.707333575495	1399.031192089987
6816.12706426999	1398.4187149411873
6817.547090741715	1397.9039537220826
6818.967413052284	1398.9597321734836
6820.388031263337	1405.4592381205791
6821.808945436517	1418.6463076085615
6823.230155633484	1434.8901225298462
6824.651661915907	1451.4767265336588
6826.073464345473	1468.0446744518056
6827.49556298388	1483.8708084583595
6828.917957892834	1496.0199274693105
6830.340649134063	1502.1834324449367
6831.763636769299	1504.6482098370989
6833.186920860294	1506.4343158850238
6834.610501468806	1508.2105837268114
6836.034378656611	1509.8608073745793
6837.458552485498	1510.568374532809
6838.883023017267	1509.2190795355104
6840.307790313729	1506.1852171753935
6841.732854436711	1502.6872165515083
6843.158215448053	1499.1699184404622
6844.583873409604	1495.8742480975425
6846.009828383232	1495.278831919482
6847.436080430813	1502.7362337070153
6848.862629614236	1518.9331283073052
6850.289475995406	1538.5924916092479
6851.716619636238	1558.5517559312054
6853.144060598662	1578.4029005515777
6854.57179894462	1595.5542850802462
6855.999834736067	1601.2472571408398
6857.428168034971	1590.452959606103
6858.856798903312	1570.727526729953
6860.285727403084	1549.6784283519346
6861.7149535962935	1528.6349418670036
6863.144477544959	1508.6277457721978
6864.5742993111135	1495.015553610258
6866.004418956804	1493.6637466743448
6867.434836544087	1501.2318802652285
6868.865552135034	1510.8935791270223
6870.296565791729	1520.6157207953386
6871.72787757627	1530.6259042385707
6873.159487550764	1543.4762659365365
6874.591395777338	1563.746309528494
6876.023602318125	1591.1475579345897
6877.456107235274	1620.963944171776
6878.888910590949	1650.9338819510801
6880.322012447323	1680.644140069172
6881.755412866582	1705.86575281551
6883.18911191093	1714.981170534157
6884.623109642579	1703.7044704717641
6886.057406123754	1682.768968685084
6887.492001416697	1660.680281408191
6888.926895583659	1638.5843603782464
6890.362088686906	1616.4857188513506
6891.797580788715	1594.3923723407577
6893.233371951381	1572.3111812790382
6894.669462237203	1550.2361047876427
6896.105851708503	1528.158479979245
6897.542540427609	1506.0749330004408
6898.979528456865	1483.7868761820914
6900.416815858628	1459.9234848784326
6901.854402695265	1432.4868242741695
6903.29228902916	1401.9992867001404
6904.730474922708	1370.6147085577068
6906.168960438317	1339.1820010041022
6907.607745638409	1308.1587755541966
6909.0468305854165	1282.7538039643853
6910.48621534179	1275.0129627064289
6911.925899969986	1287.2062486777443
6913.365884532479	1307.6208849773
6914.806169091757	1328.7844093694696
6916.246753710318	1349.9617422714668
6917.687638450675	1371.3838418928115
6919.128823375352	1393.869481036999
6920.570308546889	1417.938656635138
6922.012094027836	1442.9049146324285
6923.454179880759	1468.019078931202
6924.896566168235	1493.1203886836893
6926.339252952854	1516.8051321667
6927.782240297219	1531.2023612098947
6929.225528263946	1527.071586689268
6930.669116915669	1508.9855824634003
6932.113006315028	1487.4789453053006
6933.557196524675	1465.865290378365
6935.001687607285	1444.558248607659
6936.446479625538	1426.452969930503
6937.8915726421255	1416.9855876508036
6939.33696671976	1416.0966992292706
6940.782661921161	1418.2526497478814
6942.228658309061	1420.6201351225516
6943.67495594621	1423.0899619425727
6945.121554895365	1427.4576440363383
6946.568455219301	1438.976521772694
6948.015656980806	1459.9047053213574
6949.463160242676	1485.4745300001475
6950.910965067728	1511.636942627002
6952.359071518784	1537.7862266154111
6953.807479658683	1563.0727581229821
6955.256189550279	1583.6205022811603
6956.705201256435	1595.864481798263
6958.154514840031	1602.5898726057578
6959.604130363956	1608.1852623994791
6961.054047891116	1613.7591025010697
6962.504267484427	1619.1746946305777
6963.954789206819	1623.2652341687767
6965.405613121237	1624.2279405544048
6966.856739290638	1622.4301293716608
6968.30816777799	1619.7897375993418
6969.759898646277	1617.10624445526
6971.211931958496	1614.4402410565585
6972.6642677776545	1612.033112218135
6974.116906166776	1610.4692057232003
6975.569847188894	1609.8862109317192
6977.023090907059	1609.7231229828242
6978.47663738433	1609.60121274316
6979.930486683786	1609.474626941218
6981.3846388685115	1609.216755233282
6982.83909400161	1608.3531348052995
6984.293852146194	1606.5528819785588
6985.748913365391	1604.2027678657203
6987.204277722341	1601.7589722963337
6988.659945280201	1599.3186514446738
6990.115916102135	1597.3549734650676
6991.572190251322	1598.6957136818014
6993.028767790958	1606.8738582941373
6994.485648784248	1620.372200888479
6995.942833294413	1635.2329008038948
6997.400321384683	1650.141903173086
6998.858113118305	1664.9418327086319
7000.316208558537	1678.5159725419471
7001.774607768653	1688.6437988936789
7003.23331081194	1695.219186282872
7004.692317751692	1700.473145549914
7006.151628651223	1705.6274967027105
7007.6112435738605	1710.7429654134971
7009.071162582939	1715.0105391301931
7010.5313857418105	1715.903653211919
7011.9919131138395	1712.1924351889638
7013.452744762405	1706.1320136111633
7014.913880750897	1699.7589133213633
7016.375321142722	1693.3786919342263
7017.837066001293	1686.7671926101777
7019.299115390043	1678.8484879419184
7020.761469372417	1668.5665876329865
7022.224128011869	1656.6586840525817
7023.687091371872	1644.3971035091813
7025.150359515908	1632.1255547341375
7026.613932507475	1620.085851402664
7028.07781041008	1610.1624546011794
7029.541993287248	1605.4689833743098
7031.0064812025175	1605.556676329434
7032.471274219435	1607.160289617672
7033.936372401564	1608.8450521639593
7035.401775812481	1610.6000785957292
7036.867484515776	1613.422425564467
7038.33349857505	1619.8639911278426
7039.79981805392	1630.683471408749
7041.266443016016	1643.4732140201681
7042.733373524977	1656.479164077911
7044.200609644461	1669.462874848752
7045.668151438137	1681.6442883267737
7047.135998969687	1689.9265078686863
7048.604152302806	1691.9747699027694
7050.072611501203	1690.252857617239
7051.541376628598	1687.8658287830242
7053.010447748729	1685.4740999820638
7054.479824925345	1683.4193688318594
7055.949508222204	1683.792129149863
7057.419497703085	1689.3545838092825
7058.889793431773	1699.1009948503454
7060.360395472071	1709.9808130639344
7061.831303887795	1720.907239871759
