#wavelength (Angstrom)	surface_flux (erg / (Angstrom cm2 s))
6300.0	0.3395292898226604
6301.3125	0.5057669875176765
6302.6252734375	0.5954613004084982
6303.938320369467	0.6052227726238026
6305.251640852877	0.610628267062255
6306.565234944722	0.6160850109850338
6307.8791027020025	0.6215560659815056
6309.193244181732	0.6270287464691313
6310.5076594409375	0.6325068364056325
6311.822348536654	0.638034663380423
6313.137311525933	0.6437028724965685
6314.452548465834	0.6495180517358454
6315.768059413431	0.6553896135235144
6317.083844425809	0.6612666853378367
6318.399903560065	0.6671457718615617
6319.716236873307	0.6730429783056134
6321.032844422655	0.6790094622418518
6322.349726265244	0.68507152342648
6323.666882458216	0.6911840818214947
6324.984313058728	0.6973047973716242
6326.302018123949	0.7034268569978283
6327.619997711058	0.7095519816350174
6328.938251877249	0.7156888733995542
6330.256780679723	0.7218464522028166
6331.575584175699	0.728018941396259
6332.894662422402	0.7341957450915279
6334.214015477073	0.7403739192774937
6335.533643396964	0.7465583836188551
6336.853546239339	0.7527897842377225
6338.173724061472	0.7591361707810803
6339.494176920652	0.7655888467285709
6340.814904874177	0.7720767049281282
6342.135907979359	0.7785678173041675
6343.457186293522	0.7850629760241298
6344.778739874001	0.7916011807639411
6346.100568778142	0.7982835299617376
6347.422673063304	0.8051413776500049
6348.745052786858	0.8120796451662367
6350.067708006189	0.8190280453939119
6351.39063877869	0.8259783126518149
6352.713845161769	0.8329442283313319
6354.037327212845	0.8399824739827667
6355.3610849893485	0.8471378296241696
6356.685118548721	0.8543660471215508
6358.009427948419	0.8616087590145464
6359.334013245908	0.8688531866093687
6360.658874498668	0.876103602027081
6361.984011764189	0.8833885969602207
6363.309425099973	0.8907472348440513
6364.635114563535	0.8981666957998474
6365.961080212403	0.9056041841804616
6367.2873221041145	0.9130439061966653
6368.61384029622	0.9204863032087701
6369.940634846282	0.9279444049320394
6371.267705811875	0.9354465733619596
6372.595053250586	0.942996377453852
6373.922677220014	0.9505658141982654
6375.250577777768	0.9581383006556126
6376.578754981471	0.9657139654100652
6377.907208888761	0.9733273037751996
6379.235939557279	0.9810925454105949
6380.564947044686	0.9890740397796427
6381.894231408654	0.9971731078053947
6383.223792706865	1.005291086663324
6384.553630997012	1.0134110503365132
6385.883746336804	1.0215444884984899
6387.2141387839565	1.0297531076486128
6388.544808396204	1.0381046411968293
6389.875755231287	1.0465602193247507
6391.20697934696	1.0550411426905566
6392.53848080099	1.0635244293865969
6393.870259651158	1.0720116940038982
6395.202315955253	1.0805218375935886
6396.534649771077	1.0890881920231716
6397.867261156446	1.0977083968443286
6399.2001501691875	1.1063480474532874
6400.533316867139	1.114990615315441
6401.866761308153	1.1236371709083874
6403.200483550093	1.1323233040427043
6404.534483650832	1.1411475980879333
6405.868761668259	1.1501465410485086
6407.2033176602745	1.159228870062326
6408.5381516847865	1.1683225734822336
6409.873263799722	1.1774184693357073
6411.2086540630135	1.1865268424043136
6412.544322532611	1.1956917638920685
6413.880269266471	1.2049506015110079
6415.216494322568	1.2142702494244242
6416.552997758886	1.2236032652316469
6417.8897796334195	1.2329384645517658
6419.226840004177	1.2422831846849631
6420.5641789291785	1.2516895871564775
6421.9017964664545	1.261233700772839
6423.239692674053	1.2708953386932778
6424.577867610025	1.2805924752180216
6425.9163213324455	1.2902931219166027
6427.25505389939	1.2999954938113512
6428.594065368952	1.3096959999441502
6429.933355799238	1.3193864325053122
6431.272925248362	1.3290652926407214
6432.612773774456	1.338740565572822
6433.9529014356585	1.348417337820501
6435.293308290125	1.358096713737666
6436.63399439602	1.3677929699838705
6437.974959811519	1.3775566077367811
6439.316204594813	1.3874195215747516
6440.657728804104	1.3973392236501665
6441.999532497605	1.4072696413028367
6443.341615733541	1.4172024151045843
6444.683978570154	1.4271533438887551
6446.026621065689	1.4372109052838844
6447.369543278411	1.4474782883267963
6448.7127452665945	1.4579037861959656
6450.056227088525	1.4683695672891446
6451.399988802502	1.4788386845440427
6452.744030466836	1.489308670400563
6454.088352139851	1.499767448338268
6455.43295387988	1.5101924157944706
6456.777835745272	1.5205838557037907
6458.122997794385	1.530964802888344
6459.468440085592	1.5413470435450336
6460.814162677278	1.5517302530729684
6462.160165627836	1.5620929565908919
6463.506448995675	1.5723720747471055
6464.853012839217	1.5825404739592253
6466.199857216891	1.5926554266042476
6467.546982187145	1.6027654880714448
6468.894387808435	1.6128787623981131
6470.242074139227	1.6230396196137342
6471.590041238007	1.6334479277832155
6472.938289163264	1.6442858051259215
6474.286817973508	1.6554091182624326
6475.6356277272525	1.6665926325379317
6476.984718483029	1.67777978108153
6478.334090299379	1.6890216900482071
6479.683743234858	1.7007087581322502
6481.033677348033	1.7134461355407011
6482.38389269748	1.7271088787226443
6483.734389341793	1.7410534415971923
6485.085167339573	1.7550144464262591
6486.436226749436	1.7689840995236779
6487.787567630007	1.7830370700956226
6489.139190039932	1.7973536316233472
6490.491094037857	1.8119769568202626
6491.843279682447	1.8267342062432006
6493.195747032382	1.841507642481013
6494.548496146348	1.8562836622217875
6495.901527083045	1.871048088932245
6497.254839901187	1.885747545706994
6498.6084346595	1.9003453299733573
6499.962311416722	1.9148854316221426
6501.316470231601	1.9294186142776797
6502.670911162898	1.9439543515231699
6504.025634269391	1.9584615844471602
6505.3806396098635	1.9727584326672718
6506.735927243117	1.9866201898731826
6508.091497227958	2.000144558963224
6509.447349623215	2.0135842096057583
6510.80348448772	2.027023603112464
6512.159901880322	2.040436925941037
6513.51660185988	2.053525506575505
6514.873584485267	2.065687438384154
6516.23084981537	2.0768914433496115
6517.58839790908	2.0877420663587407
6518.946228825313	2.098568964656509
6520.304342622985	2.109424601644707
6521.662739361031	2.1208146215236012
6523.021419098398	2.1342968878523365
6524.380381894044	2.1506298046110772
6525.739627806938	2.168428317519178
6527.099156896065	2.186430179870339
6528.458969220418	2.2044341256288718
6529.819064839006	2.222316985059169
6531.179443810848	2.239486992612509
6532.540106194976	2.2553597928581186
6533.9010520504335	2.2703420339760845
6535.262281436278	2.285135994253312
6536.6237944115765	2.2999290791551563
6537.985591035413	2.314726828184675
6539.347671366879	2.3295415117971516
6540.71003546508	2.344393037834425
6542.072683389135	2.3592783306541856
6543.435615198176	2.3741764524853974
6544.798830951341	2.3890782138432107
6546.162330707791	2.4039897949809608
6547.526114526688	2.4190067591155056
6548.890182467215	2.4343728973193186
6550.254534588562	2.4501589640955226
6551.619170949934	2.4661341619663224
6552.984091610549	2.482132314183786
6554.349296629635	2.4981354501031143
6555.7147860664345	2.514193766022407
6557.080559980198	2.5305060204867336
6558.446618430195	2.5472224539150448
6559.8129614757	2.5641856357654196
6561.1795891760075	2.581195802564484
6562.54650159042	2.5982090359360615
6563.913698778251	2.615119772901203
6565.281180798831	2.631265355822269
6566.648947711497	2.6457615295807884
6568.016999575604	2.6589223618111393
6569.385336450516	2.6717226096009505
6570.753958395609	2.684511488956825
6572.122865470276	2.6973572620543242
6573.492057733915	2.7108472616504042
6574.861535245943	2.7262130283554606
6576.231298065786	2.743571794326314
6577.601346252884	2.7616996890777226
6578.971679866686	2.779892788768811
6580.342298966659	2.79809752232798
6581.7132036122775	2.816478643798496
6583.08439386303	2.8355741654581004
6584.455869778419	2.8556785740867214
6585.827631417956	2.8763237285673737
6587.199678841168	2.89705113216913
6588.572012107595	2.9177811952631663
6589.944631276783	2.9383932612334203
6591.3175364083	2.958267929471964
6592.690727561718	2.9767473974589906
6594.064204796627	2.9942322727425057
6595.437968172626	3.011494574961326
6596.812017749329	3.0287549299430374
6598.18635358636	3.046034131983134
6599.5609757433585	3.06345886102492
6600.935884279972	3.0812476501538066
6602.311079255864	3.0993803550161223
6603.686560730708	3.1176302402196594
6605.062328764195	3.135890831213145
6606.43838341602	3.154168269117406
6607.814724745898	3.172672064194953
6609.191352813554	3.191972734565596
6610.568267678725	3.2122700980298013
6611.9454694011565	3.233032877950978
6613.322958040616	3.2538521176245165
6614.700733656875	3.274673831980218
6616.07879630972	3.2954347945996036
6617.457146058951	3.315872895331747
6618.835782964381	3.3357747485907465
6620.214707085831	3.355341099226876
6621.593918483141	3.3748473706809614
6622.973417216159	3.394356767522507
6624.353203344746	3.4138758065936314
6625.733276928776	3.4334424204666516
6627.113638028136	3.4531105489827594
6628.494286702727	3.472864196812258
6629.8752230124555	3.492644835500141
6631.25644701725	3.512430522245426
6632.637958777046	3.5322418625850935
6634.019758351792	3.5523281520176533
6635.401845801448	3.5732433826105763
6636.784221185991	3.5950747043760396
6638.166884565405	3.61727985107547
6639.54983599969	3.639522673767824
6640.933075548856	3.661768853364992
6642.316603272929	3.6839874811970326
6643.700419231944	3.706070971040933
6645.084523485952	3.727954196736698
6646.468916095012	3.7497289409498666
6647.853597119198	3.771491074818706
6649.238566618597	3.7932575022048702
6650.623824653309	3.815019413746405
6652.009371283446	3.836728808375048
6653.39520656913	3.8583314825665282
6654.781330570499	3.879856396916221
6656.167743347702	3.9013660493489652
6657.554444960899	3.922879560274699
6658.941435470266	3.9443720694571125
6660.328714935989	3.9656131316869656
6661.716283418268	3.9861805165551636
6663.104140977314	4.006090102108913
6664.492287673351	4.025774572468764
6665.880723566617	4.0454483284523075
6667.269448717359	4.065128547699664
6668.658463185843	4.084855188477455
6670.04776703234	4.104741962379241
6671.437360317139	4.124834728204502
6672.827243100539	4.14502951154004
6674.21741544285	4.165240596413041
6675.607877404403	4.1854515168895094
6676.998629045529	4.205493924877853
6678.389670426579	4.224625233622279
6679.781001607919	4.242191391736283
6681.17262264992	4.25874031324592
6682.564533612973	4.275090460601365
6683.956734557476	4.291438101614571
6685.349225543842	4.307330814413122
6686.742006632498	4.319514471427187
6688.135077883879	4.32311843906689
6689.528439358438	4.319296001943387
6690.9220911166385	4.313265377614317
6692.316033218955	4.307127651381235
6693.710265725876	4.2991544432010285
6695.104788697902	4.266257545027157
6696.4996021955485	4.154159391131877
6697.894706279339	3.9514188445854996
6699.290101009814	3.710484526852531
6700.685786447524	3.4658566561093997
6702.081762653035	3.222078337125896
6703.478029686921	3.002903530324706
6704.874587609773	2.895078900912199
6706.27143648219	2.956020212430399
6707.668576364793	3.1137087982048297
6709.066007318201	3.2871704747663992
6710.46372940306	3.4607954940069283
6711.861742680019	3.633432729971754
6713.260047209744	3.799314851125365
6714.658643052912	3.951496595400396
6716.0575302702155	4.093196127806231
6717.4567089223565	4.232277990436604
6718.856179070049	4.371301878578967
6720.255940774021	4.5094053051338685
6721.6559940950165	4.63728363089494
6723.056339093787	4.736913206260258
6724.456975831098	4.8080287553309855
6725.85790436773	4.868873915743579
6727.259124764472	4.929009613514634
6728.660637082132	4.989055885528717
6730.062441381524	5.047156429429598
6731.464537723479	5.097753917391816
6732.866926168839	5.138308064288477
6734.269606778457	5.173811056625979
6735.672579613203	5.20865377833484
6737.075844733956	5.243498158311198
6738.4794022016085	5.278195766461609
6739.883252077068	5.3120279432189745
6741.2873944212515	5.344304606780319
6742.691829295089	5.375530676632217
6744.096556759525	5.406542345703532
6745.5015768755175	5.437555988111588
6746.906889704033	5.46853445779802
6748.312495306054	5.499166147712668
6749.718393742578	5.528959548029586
6751.124585074607	5.558003736938825
6752.531069363165	5.586818930752584
6753.937846669282	5.615627626882726
6755.344917054005	5.64444184311988
6756.752280578391	5.673254789379722
6758.159937303512	5.702049531191871
6759.567887290451	5.7308216571093595
6760.976130600304	5.759587341194769
6762.384667294178	5.788357779523599
6763.793497433198	5.8171337221621915
6765.202621078498	5.845901157756208
6766.612038291223	5.874606141127066
6768.021749132533	5.903209412441401
6769.431753663604	5.9317542546481725
6770.842051945616	5.960293772017931
6772.252644039771	5.98883904898692
6773.66353000728	6.0173849440217895
6775.074709909365	6.0458987596981935
6776.486183807264	6.074338120182943
6777.897951762223	6.102719571583064
6779.310013835508	6.131090155774801
6780.722370088391	6.159466060022358
6782.135020582158	6.187856230122877
6783.547965378113	6.216347046978418
6784.961204537568	6.245114693727647
6786.374738121846	6.274171828353803
6787.788566192289	6.303342479439614
6789.2026888102455	6.332527700765819
6790.617106037082	6.361719861129256
6792.031817934173	6.390936612889741
6793.446824562909	6.420234286179417
6794.862125984693	6.449641996942386
6796.27772226094	6.479110091894632
6797.693613453079	6.508591871069316
6799.109799622548	6.538079676982685
6800.5262808308025	6.567565961066039
6801.9430571393095	6.597013333939395
6803.360128609546	6.626383449423801
6804.777495303007	6.655701086502443
6806.195157281196	6.685011766174701
6807.6131146056305	6.714328254840957
6809.031367337839	6.743659122917666
6810.449915539369	6.773072072211015
6811.868759271772	6.802681784061592
6813.287898596622	6.832475220365694
6814.707333575495	6.862332859343863
6816.12706426999	6.8922000726768635
6817.547090741715	6.922075413587007
6818.967413052284	6.951987562673961
6820.388031263337	6.982011941197179
6821.808945436517	7.012172770844426
6823.230155633484	7.042399352442423
6824.651661915907	7.072638840248534
6826.073464345473	7.102884163026932
6827.49556298388	7.133120145295439
6828.917957892834	7.163285184408736
6830.340649134063	7.193330828837493
6831.763636769299	7.223305077006283
6833.186920860294	7.253271315092515
6834.610501468806	7.283243632197742
6836.034378656611	7.313226061339453
6837.458552485498	7.343243589107458
6838.883023017267	7.3733303073284615
6840.307790313729	7.403474826477623
6841.732854436711	7.433639807291874
6843.158215448053	7.463811641110844
6844.583873409604	7.493985091844035
6846.009828383232	7.524108117251676
6847.436080430813	7.554068331238866
6848.862629614236	7.583851317049561
6850.289475995406	7.613567877290912
6851.716619636238	7.643284417480266
6853.144060598662	7.673006086033365
6854.57179894462	7.702708357233142
6855.999834736067	7.732308341452651
6857.428168034971	7.761758447431269
6858.856798903312	7.791130186862859
6860.285727403084	7.820495557271039
6861.7149535962935	7.849868610673574
6863.144477544959	7.879344139537588
6864.5742993111135	7.9094183086542635
6866.004418956804	7.9406341951957575
6867.434836544087	7.9726825086571065
6868.865552135034	8.004931196128462
6870.296565791729	8.037191963512806
6871.72787757627	8.06940054368187
6873.159487550764	8.101031297546545
6874.591395777338	8.131141027454648
6876.023602318125	8.159789149921147
6877.456107235274	8.187946992298745
6878.888910590949	8.216080354644927
6880.322012447323	8.244220546122593
6881.755412866582	8.272382962237687
6883.18911191093	8.3006098944183
6884.623109642579	8.32891694550818
6886.057406123754	8.35726504531856
6887.492001416697	8.385623232931707
6888.926895583659	8.413985733565317
6890.362088686906	8.442290079057466
6891.797580788715	8.470263505708738
6893.233371951381	8.49767255200513
6894.669462237203	8.524722730824248
6896.105851708503	8.551708770342373
6897.542540427609	8.57869940798449
6898.979528456865	8.605694169473471
6900.416815858628	8.632682775595779
6901.854402695265	8.659650244165016
6903.29228902916	8.686600494007983
6904.730474922708	8.71354967883382
6906.168960438317	8.740504096435265
6907.607745638409	8.766923134439855
6909.0468305854165	8.786033444067858
6910.48621534179	8.782170887517548
6911.925899969986	8.752383620628379
6913.365884532479	8.71190262617609
6914.806169091757	8.67044489458918
6916.246753710318	8.62909013915763
6917.687638450675	8.59058084829597
6919.128823375352	8.564639483881766
6920.570308546889	8.557440709466817
6922.012094027836	8.560833249743688
6923.454179880759	8.565921039795528
6924.896566168235	8.571048159014826
6926.339252952854	8.57788256976696
6927.782240297219	8.5958697907429
6929.225528263946	8.636098855791358
6930.669116915669	8.69308221741564
6932.113006315028	8.754177853276138
6933.557196524675	8.81540939904183
6935.001687607285	8.876443441706572
6936.446479625538	8.93532337129906
6937.8915726421255	8.988375320156301
6939.33696671976	9.035639435968084
6940.782661921161	9.080855497899693
6942.228658309061	9.12593832304458
6943.67495594621	9.170976328108837
6945.121554895365	9.215013789341977
6946.568455219301	9.255254432428327
6948.015656980806	9.290496300327534
6949.463160242676	9.323277153307513
6950.910965067728	9.355752245234145
6952.359071518784	9.388256897249057
6953.807479658683	9.421787491528072
6955.256189550279	9.460894064350663
6956.705201256435	9.509761505021938
6958.154514840031	9.565120329730304
6959.604130363956	9.621818827714446
6961.054047891116	9.678553619439672
6962.504267484427	9.735071541181389
6963.954789206819	9.78969868756242
6965.405613121237	9.839848776894843
6966.856739290638	9.886048765252193
6968.30816777799	9.931050142899807
6969.759898646277	9.975999851404032
6971.211931958496	10.020760178100202
6972.6642677776545	10.062673089378027
6974.116906166776	10.095303978828055
6975.569847188894	10.11713666625035
6977.023090907059	10.134348716347093
6978.47663738433	10.151110545473726
6979.930486683786	10.167887907346667
6981.3846388685115	10.185015723400072
6982.83909400161	10.203748143966632
6984.293852146194	10.224959796021365
6985.748913365391	10.247628326516809
6987.204277722341	10.270547914043503
6988.659945280201	10.293477360850465
6990.115916102135	10.316650234693858
6991.572190251322	10.341480865397328
6993.028767790958	10.369736298231233
6994.485648784248	10.40065769436326
6995.942833294413	10.432265517115626
6997.400321384683	10.463902238081003
6998.858113118305	10.495153765708409
7000.316208558537	10.522119969451682
7001.774607768653	10.537045677084485
7003.23331081194	10.539560244859066
7004.692317751692	10.53745546924923
7006.151628651223	10.534998551363891
7007.6112435738605	10.532547204471037
7009.071162582939	10.530224590717552
7010.5313857418105	10.528415348450325
7011.9919131138395	10.527306710567256
7013.452744762405	10.526555361385736
7014.913880750897	10.525851264951262
7016.375321142722	10.525176301635419
7017.837066001293	10.525862968560773
7019.299115390043	10.534282974105112
7020.761469372417	10.556689957812637
7022.224128011869	10.588718218255057
7023.687091371872	10.622832957025834
7025.150359515908	10.657002769921533
7026.613932507475	10.69153136946529
7028.07781041008	10.729245971677232
7029.541993287248	10.774817870020609
7031.0064812025175	10.82757380036233
7032.471274219435	10.882614994592034
7033.936372401564	10.93778890088482
7035.401775812481	10.992616833097614
7036.867484515776	11.042000785913062
7038.33349857505	11.072892760366276
7039.79981805392	11.081413502256915
7041.266443016016	11.079873479668063
7042.733373524977	11.077241279011373
7044.200609644461	11.0746882754294
7045.668151438137	11.074725648814109
7047.135998969687	11.087320797942015
7048.604152302806	11.119988187629852
7050.072611501203	11.164798105365433
7051.541376628598	11.211756889100945
7053.010447748729	11.258737544786227
7054.479824925345	11.30449352095713
7055.949508222204	11.34137836864646
7057.419497703085	11.359288712161467
7058.889793431773	11.361903265623479
