#wavelength (Angstrom)	surface_flux (erg / (Angstrom cm2 s))
6300.0	54.106856701918844
6301.3125	80.56464838375788
6302.6252734375	94.78026547932654
6303.938320369467	96.26076254336411
6305.251640852877	97.08449075603549
6306.565234944722	97.94644846588163
6307.8791027020025	98.8185887588416
6309.193244181732	99.69127959074861
6310.5076594409375	100.56747023228975
6311.822348536654	101.48161083373589
6313.137311525933	102.50414836270303
6314.452548465834	103.64020268772869
6315.768059413431	104.8193712574084
6317.083844425809	106.00211706934141
6318.399903560065	107.18374897190144
6319.716236873307	108.33654681622413
6321.032844422655	109.37245758977953
6322.349726265244	110.2462140808969
6323.666882458216	111.0354095064919
6324.984313058728	111.81292096666466
6326.302018123949	112.59106040182077
6327.619997711058	113.39604749816998
6328.938251877249	114.3576409672849
6330.256780679723	115.60884718759732
6331.575584175699	117.06352305594923
6332.894662422402	118.56366280782785
6334.214015477073	120.06515549650955
6335.533643396964	121.5530233794409
6336.853546239339	122.91403398225454
6338.173724061472	123.95861320482648
6339.494176920652	124.71098890796037
6340.814904874177	125.36925451329351
6342.135907979359	126.022357104224
6343.457186293522	126.68373603817153
6344.778739874001	127.47123194923348
6346.100568778142	128.6903231487878
6347.422673063304	130.43574818721186
6348.745052786858	132.42021646596586
6350.067708006189	134.43134754351917
6351.39063877869	136.44025060984288
6352.713845161769	138.3568120920921
6354.037327212845	139.81077910153275
6355.3610849893485	140.50964188081736
6356.685118548721	140.74243992712778
6358.009427948419	140.89044292663903
6359.334013245908	141.0378942783542
6360.658874498668	141.24034409751258
6361.984011764189	141.848709018189
6363.309425099973	143.34243073572415
6364.635114563535	145.56416045444413
6365.961080212403	147.98864141618267
6367.2873221041145	150.42202450994847
6368.61384029622	152.85039041135175
6369.940634846282	155.2097633697993
6371.267705811875	157.36088432725526
6372.595053250586	159.28623098483936
6373.922677220014	161.12330312279178
6375.250577777768	162.95352662258128
6376.578754981471	164.78345766854397
6377.907208888761	166.59858217628943
6379.235939557279	168.35083615693316
6380.564947044686	170.01314362132257
6381.894231408654	171.62702580332007
6383.223792706865	173.23399709879845
6384.553630997012	174.8411401985975
6385.883746336804	176.44110280048383
6387.2141387839565	177.99452758619626
6388.544808396204	179.458213155742
6389.875755231287	180.85695173451555
6391.20697934696	182.2409395977844
6392.53848080099	183.6248479101886
6393.870259651158	185.0129732750847
6395.202315955253	186.43890702077977
6396.534649771077	187.9618876564968
6397.867261156446	189.5777194753622
6399.2001501691875	191.22525625499674
6400.533316867139	192.87512204054863
6401.866761308153	194.5240993333647
6403.200483550093	196.15213795329353
6404.534483650832	197.70369862702364
6405.868761668259	199.15822515221367
6407.2033176602745	200.56713316592777
6408.5381516847865	201.97099262274392
6409.873263799722	203.37232925673942
6411.2086540630135	204.67090938495986
6412.544322532611	205.43757719491435
6413.880269266471	205.30845461818572
6415.216494322568	204.60592593857868
6416.552997758886	203.79198305530545
6417.8897796334195	202.97648045480534
6419.226840004177	202.22920779353356
6420.5641789291785	202.0211024269373
6421.9017964664545	203.03858778342635
6423.239692674053	205.09940299918395
6424.577867610025	207.46297422261296
6425.9163213324455	209.84048977201294
6427.25505389939	212.23115394829162
6428.594065368952	214.78860835268708
6429.933355799238	217.8640064567551
6431.272925248362	221.52148832248602
6432.612773774456	225.4194591383195
6433.9529014356585	229.34033232767
6435.293308290125	233.25679171670987
6436.63399439602	237.04159451448078
6437.974959811519	240.24465638651466
6439.316204594813	242.58172302680282
6440.657728804104	244.43146835181753
6441.999532497605	246.2045156830966
6443.341615733541	247.97716727461162
6444.683978570154	249.7372132784212
6446.026621065689	251.41328695754868
6447.369543278411	252.92215516919836
6448.7127452665945	254.3055257072332
6450.056227088525	255.6584434417363
6451.399988802502	257.0107167018518
6452.744030466836	258.3674901303598
6454.088352139851	259.7675808755112
6455.43295387988	261.28363826188314
6456.777835745272	262.914754420908
6458.122997794385	264.5868937220765
6459.468440085592	266.262175197192
6460.814162677278	267.93048959179583
6462.160165627836	269.4602598875457
6463.506448995675	270.4650028679051
6464.853012839217	270.77847124939694
6466.199857216891	270.75156414879774
6467.546982187145	270.68177261943845
6468.894387808435	270.611357936676
6470.242074139227	270.52077090717984
6471.590041238007	270.3214181838656
6472.938289163264	269.93257421863035
6474.286817973508	269.4181277797588
6475.6356277272525	268.8779165937166
6476.984718483029	268.3373214392564
6478.334090299379	267.8520577602681
6479.683743234858	267.83496881401953
6481.033677348033	268.92599602968187
6482.38389269748	270.9930119698065
6483.734389341793	273.35547077198044
6485.085167339573	275.7327368605343
6486.436226749436	278.1190174440064
6487.787567630007	280.62514005736364
6489.139190039932	283.51867617872017
6490.491094037857	286.86370443847966
6491.843279682447	290.4036857925735
6493.195747032382	293.9638668034361
6494.548496146348	297.5201905317544
6495.901527083045	300.9419189455843
6497.254839901187	303.7366703885899
6498.6084346595	305.56587577717266
6499.962311416722	306.8353146215417
6501.316470231601	308.01325081670564
6502.670911162898	309.1912856291069
6504.025634269391	310.41569688723547
6505.3806396098635	311.9525698060019
6506.735927243117	314.13064234133924
6508.091497227958	316.8069797582933
6509.447349623215	319.6119366962232
6510.80348448772	322.4219229516448
6512.159901880322	325.2023117836646
6513.51660185988	327.6408553313047
6514.873584485267	329.10828732737303
6516.23084981537	329.5719075511051
6517.58839790908	329.6637394683091
6518.946228825313	329.7284241203683
6520.304342622985	329.7933785459948
6521.662739361031	329.863496258931
6523.021419098398	329.9538539248671
6524.380381894044	330.0717912121633
6525.739627806938	330.203903862563
6527.099156896065	330.3379761230136
6528.458969220418	330.47227352055035
6529.819064839006	330.61584758773523
6531.179443810848	330.8125399587434
6532.540106194976	331.1056432814148
6533.9010520504335	331.465030663393
6535.262281436278	331.8386731458197
6536.6237944115765	332.21301254061115
6537.985591035413	332.6726302718714
6539.347671366879	333.8782325002869
6540.71003546508	336.90178415394485
6542.072683389135	341.5776332118055
6543.435615198176	346.7782858236534
6544.798830951341	352.0088710916898
6546.162330707791	357.22663711593225
6547.526114526688	362.2336502209385
6548.890182467215	366.52495989218056
6550.254534588562	369.95401747863923
6551.619170949934	372.99886366234483
6552.984091610549	376.00369347734573
6554.349296629635	379.0031056161992
6555.7147860664345	381.8130886418219
6557.080559980198	383.70504813798874
6558.446618430195	384.1282445130146
6559.8129614757	383.6597798298088
6561.1795891760075	383.03193766711496
6562.54650159042	382.4018868949746
6563.913698778251	381.764190610158
6565.281180798831	381.07189156989796
6566.648947711497	380.26232971828136
6568.016999575604	379.35776039740017
6569.385336450516	378.4272566429169
6570.753958395609	377.4955644762733
6572.122865470276	376.6145151266606
6573.492057733915	376.3346985453582
6574.861535245943	377.8106123130141
6576.231298065786	381.15215423971597
6577.601346252884	385.2120159229189
6578.971679866686	389.33030888664183
6580.342298966659	393.45065990310434
6581.7132036122775	397.59821687989216
6583.08439386303	401.8551102167075
6584.455869778419	406.2662948933981
6585.827631417956	410.7603068188601
6587.199678841168	415.2671541671339
6588.572012107595	419.7740632515739
6589.944631276783	424.2265238291419
6591.3175364083	428.34405684641354
6592.690727561718	431.82879398152056
6594.064204796627	434.86213933402365
6595.437968172626	437.7936809403897
6596.812017749329	440.7231055125409
6598.18635358636	443.58961048496695
6599.5609757433585	445.8655035789262
6600.935884279972	446.6404708469364
6602.311079255864	445.99842846832473
6603.686560730708	444.88386425948306
6605.062328764195	443.7403098111461
6606.43838341602	442.604102956851
6607.814724745898	441.59709831846715
6609.191352813554	441.0511195161255
6610.568267678725	441.08238385167755
6611.9454694011565	441.3818902708531
6613.322958040616	441.71178130825416
6614.700733656875	442.0388757821203
6616.07879630972	442.2674753887277
6617.457146058951	442.00067406832267
6618.835782964381	440.9153477531198
6620.214707085831	439.31547635985953
6621.593918483141	437.6181231074416
6622.973417216159	435.91904382672163
6624.353203344746	434.2363781351471
6625.733276928776	432.6841540406934
6627.113638028136	431.42451964480597
6628.494286702727	430.40938813961344
6629.8752230124555	429.4628121521368
6631.25644701725	428.51882592679107
6632.637958777046	427.65115872300316
6634.019758351792	427.7457163873293
6635.401845801448	430.77118971609656
6636.784221185991	437.03727624407554
6638.166884565405	444.616948487274
6639.54983599969	452.31564767832873
6640.933075548856	459.99882594766774
6642.316603272929	467.2521766687826
6643.700419231944	472.6335951639402
6645.084523485952	475.27011390625444
6646.468916095012	476.39198057052187
6647.853597119198	477.2842449193168
6649.238566618597	478.17253576076666
6650.623824653309	478.8796293102239
6652.009371283446	478.4435123199327
6653.39520656913	475.77786756657997
6654.781330570499	471.46307840169356
6656.167743347702	466.7516532228804
6657.554444960899	462.02760906945684
6658.941435470266	457.329201159352
6660.328714935989	452.89715442736775
6661.716283418268	449.1725335466821
6663.104140977314	446.13875300406943
6664.492287673351	443.34382967307283
6665.880723566617	440.56380020739834
6667.269448717359	437.76796393328084
6668.658463185843	434.69899793639723
6670.04776703234	430.624613335643
6671.437360317139	425.2494882247843
6672.827243100539	419.2432155388857
6674.21741544285	413.15780520465034
6675.607877404403	407.0636581783303
6676.998629045529	400.68398151528885
6678.389670426579	392.79665712863823
6679.781001607919	382.3252745163051
6681.17262264992	370.1715645976252
6682.564533612973	357.68251489974926
6683.956734557476	345.18445080350045
6685.349225543842	332.53646753461004
6686.742006632498	318.69263894855396
6688.135077883879	302.0874696365036
6689.528439358438	283.09164178740406
6690.9220911166385	263.3823679636396
6692.316033218955	243.6349696776985
6693.710265725876	223.84570257408862
6695.104788697902	203.53932396034455
6696.4996021955485	181.59859728575
6697.894706279339	157.78802022654003
6699.290101009814	133.18718110656732
6700.685786447524	108.50622284488335
6702.081762653035	83.8879781955864
6703.478029686921	61.12235015967492
6704.874587609773	46.7458543622424
6706.27143648219	45.08487068964657
6707.668576364793	50.71266392533802
6709.066007318201	57.527684692173594
6710.46372940306	64.3604511789534
6711.861742680019	71.62239521491169
6713.260047209744	81.7228049148244
6714.658643052912	97.56304518138415
6716.0575302702155	117.79874112637623
6717.4567089223565	139.14450838080833
6718.856179070049	160.53103660010694
6720.255940774021	181.97153226764823
6721.6559940950165	203.95122780921804
6723.056339093787	227.410046657184
6724.456975831098	252.36182402563907
6725.85790436773	277.85516673251277
6727.259124764472	303.39147964016144
6728.660637082132	328.8964353577216
6730.062441381524	353.70224213734207
6731.464537723479	375.8096899496982
6732.866926168839	394.30492898143825
6734.269606778457	410.98386392555875
6735.672579613203	427.42608503759385
6737.075844733956	443.86284563454524
6738.4794022016085	459.91074204561954
6739.883252077068	473.73947878351686
6741.2873944212515	483.5915425858502
6742.691829295089	490.75286641111444
6744.096556759525	497.35307511076815
6745.5015768755175	503.94437574088835
6746.906889704033	510.6732455240099
6748.312495306054	518.5590418179582
6749.718393742578	529.209633642773
6751.124585074607	542.3336263413478
6752.531069363165	556.2292534487781
6753.937846669282	570.1686692784381
6755.344917054005	584.1233271532438
6756.752280578391	598.2671751243729
6758.159937303512	613.0339906856417
6759.567887290451	628.5367974844012
6760.976130600304	644.3613596654995
6762.384667294178	660.2209432896412
6763.793497433198	676.0511112010009
6765.202621078498	690.9152817008321
6766.612038291223	701.2077525135385
6768.021749132533	704.3043690629123
6769.431753663604	703.0980196514297
6770.842051945616	701.1380356854107
6772.252644039771	699.168126031558
6773.66353000728	697.1526821763271
6775.074709909365	694.814818141838
6776.486183807264	691.7956930726648
6777.897951762223	688.2354055892354
6779.310013835508	684.5322865716971
6780.722370088391	680.823398410028
6782.135020582158	677.2016410100242
6783.547965378113	674.5759061484032
6784.961204537568	674.7999899772623
6786.374738121846	678.0070674101135
6787.788566192289	682.3455438141298
6789.2026888102455	686.7742881474215
6790.617106037082	691.2069605794243
6792.031817934173	695.7053340414485
6793.446824562909	700.466540329716
6794.862125984693	705.592470965895
6796.27772226094	710.9093523245429
6797.693613453079	716.2537463863176
6799.109799622548	721.5930613973139
6800.5262808308025	726.6028912282881
6801.9430571393095	729.6705731186795
6803.360128609546	729.1421773245848
6804.777495303007	726.0863690220243
6806.195157281196	722.466418630046
6807.6131146056305	718.8320265846862
6809.031367337839	715.2513706184496
6810.449915539369	712.1704499781017
6811.868759271772	710.3447569277711
6813.287898596622	709.6883901734883
6814.707333575495	709.413952368056
6816.12706426999	709.1615530479421
6817.547090741715	709.0063076181103
6818.967413052284	710.411450333502
6820.388031263337	717.2249508508502
6821.808945436517	730.6825466600911
6823.230155633484	747.177059792556
6824.651661915907	764.0122043831398
6826.073464345473	780.8147103344438
6827.49556298388	796.4141474991842
6828.917957892834	806.0584865051409
6830.340649134063	806.0101535342269
6831.763636769299	799.971569309618
6833.186920860294	792.8321410491618
6834.610501468806	785.6767694936301
6836.034378656611	778.5839212386342
6837.458552485498	771.9671144406025
6838.883023017267	766.390563424649
6840.307790313729	761.66574423593
6841.732854436711	757.1746522864063
6843.158215448053	752.692099093952
6844.583873409604	748.4017781622283
6846.009828383232	746.4568891939541
6847.436080430813	751.5072410416021
6848.862629614236	764.1493527963688
6850.289475995406	779.7990373287503
6851.716619636238	795.7089503233661
6853.144060598662	811.5577807003879
6854.57179894462	825.85908859232
6855.999834736067	833.5893331879068
6857.428168034971	831.8642045266303
6858.856798903312	825.0175373503987
6860.285727403084	817.4126100189693
6861.7149535962935	809.8041364856387
6863.144477544959	802.3382639350666
6864.5742993111135	795.7574452018056
6866.004418956804	790.8743322470172
6867.434836544087	787.226104211148
6868.865552135034	783.8669624244171
6870.296565791729	780.5153738193587
6871.72787757627	777.4794743650292
6873.159487550764	777.5824023401487
6874.591395777338	785.8899421824808
6876.023602318125	802.082983831534
6877.456107235274	820.9446770977955
6878.888910590949	839.973285172845
6880.322012447323	858.8507455432052
6881.755412866582	875.110320390928
6883.18911191093	881.9755420059803
6884.623109642579	876.946449767417
6886.057406123754	866.2837417859154
6887.492001416697	854.9487082493396
6888.926895583659	843.6055069591167
6890.362088686906	832.0905260186108
6891.797580788715	819.6824412848023
6893.233371951381	805.7638627725164
6894.669462237203	790.8782631247828
6896.105851708503	775.8050437916344
6897.542540427609	760.7286399538094
6898.979528456865	746.0388437561838
6900.416815858628	734.4082520070194
6901.854402695265	729.7320936374094
6903.29228902916	730.9918949281258
6904.730474922708	733.9884716794121
6906.168960438317	737.066864774393
6907.607745638409	740.155103255102
6909.0468305854165	743.3684235623905
6910.48621534179	746.9733228430982
6911.925899969986	751.0200215440714
6913.365884532479	755.2493921754779
6914.806169091757	759.4961178613104
6916.246753710318	763.7512692711257
6917.687638450675	768.2001391262295
6919.128823375352	773.4996123480507
6920.570308546889	780.0668717968289
6922.012094027836	787.3511881993496
6923.454179880759	794.751511608491
6924.896566168235	802.1510946120538
6926.339252952854	809.3098927303789
6927.782240297219	814.886406023704
6929.225528263946	817.3057142261787
6930.669116915669	817.3471869140567
6932.113006315028	816.8063083314738
6933.557196524675	816.2477887178601
6935.001687607285	815.6776760433338
6936.446479625538	814.9891715813962
6937.8915726421255	813.9817427247511
6939.33696671976	812.6575807041672
6940.782661921161	811.220815466567
6942.228658309061	809.77596420042
6943.67495594621	808.3776858507713
6945.121554895365	807.8523352830506
6946.568455219301	810.617673747559
6948.015656980806	817.7129582796819
6949.463160242676	826.9439514577999
6950.910965067728	836.4471446910758
6952.359071518784	845.9516632961853
6953.807479658683	855.399426698612
6955.256189550279	864.5282144931804
6956.705201256435	873.0968498801659
6958.154514840031	881.2937553642693
6959.604130363956	889.4158271447465
6961.054047891116	897.5372001896061
6962.504267484427	905.4868520012499
6963.954789206819	911.9954749964322
6965.405613121237	915.1019155626207
6966.856739290638	915.2057578169628
6968.30816777799	914.3934283873228
6969.759898646277	913.5346403281139
6971.211931958496	912.6773446524476
6972.6642677776545	911.8438932767338
6974.116906166776	911.0883960748419
6975.569847188894	910.4236028889933
6977.023090907059	909.7975653187884
6978.47663738433	909.175213476527
6979.930486683786	908.5507120001237
6981.3846388685115	907.8693504315622
6982.83909400161	906.9260673019082
6984.293852146194	905.5778556258706
6985.748913365391	903.9918767252982
6987.204277722341	902.365290166972
6988.659945280201	900.7414780612971
6990.115916102135	899.4572152459965
6991.572190251322	900.5268015521074
6993.028767790958	906.4668773363146
6994.485648784248	916.1966959867085
6995.942833294413	926.8969819857521
6997.400321384683	937.6317090047652
6998.858113118305	948.30008265816
7000.316208558537	958.219306461481
7001.774607768653	966.031680938525
7003.23331081194	971.6723176324165
7004.692317751692	976.5053282859277
7006.151628651223	981.2777729586691
7007.6112435738605	986.0162629343662
7009.071162582939	990.0131709161677
7010.5313857418105	991.058560701827
7011.9919131138395	988.0766871328343
7013.452744762405	983.0400666440115
7014.913880750897	977.7300073232026
7016.375321142722	972.4148143521542
7017.837066001293	966.9459698486174
7019.299115390043	960.6097212248488
7020.761469372417	952.7055418443093
7022.224128011869	943.7224729494516
7023.687091371872	934.5045548340302
7025.150359515908	925.2798211399955
7026.613932507475	916.2185023139532
7028.07781041008	908.6498128070696
7029.541993287248	904.7699600606313
7031.0064812025175	904.2624078562653
7032.471274219435	904.8239993551549
7033.936372401564	905.442711256172
7035.401775812481	906.1249761312913
7036.867484515776	907.7753108870133
7038.33349857505	912.7087645173524
7039.79981805392	921.6136163287457
7041.266443016016	932.3056750618098
7042.733373524977	943.1936846892795
7044.200609644461	954.0598993680471
7045.668151438137	964.1524830239747
7047.135998969687	970.4865170861038
7048.604152302806	970.8116587108414
7050.072611501203	967.502605100718
7051.541376628598	963.5521407195467
7053.010447748729	959.596882344829
7054.479824925345	955.9743142580569
7055.949508222204	954.7502674873847
7057.419497703085	958.6543575907604
7058.889793431773	966.6927117902452
7060.360395472071	975.8507698360306
7061.831303887795	985.054566803664
7063.302518742772	994.230524857064
7064.774040100844	1003.0521857492092
