#wavelength (Angstrom)	surface_flux (erg / (Angstrom cm2 s))
6300.0	0.529032930391468
6301.3125	0.7881644183290838
6302.6252734375	0.9281837338406527
6303.938320369467	0.9436970577522956
6305.251640852877	0.9524042196004847
6306.565234944722	0.9611745664757463
6307.8791027020025	0.9699628710655279
6309.193244181732	0.9787536043820704
6310.5076594409375	0.9875549623204157
6311.822348536654	0.9964582434758943
6313.137311525933	1.0056501436672591
6314.452548465834	1.0151442316319572
6315.768059413431	1.0247539298233475
6317.083844425809	1.0343744592515336
6318.399903560065	1.043998011195894
6319.716236873307	1.0536453355278237
6321.032844422655	1.0633823432117981
6322.349726265244	1.0732429186647854
6323.666882458216	1.083168981331402
6324.984313058728	1.0931059808210641
6326.302018123949	1.1030451179052574
6327.619997711058	1.1129875408245655
6328.938251877249	1.1229391588322815
6330.256780679723	1.132906029071751
6331.575584175699	1.1428842292731163
6332.894662422402	1.1528665647554663
6334.214015477073	1.1628510495791091
6335.533643396964	1.1728465208193128
6336.853546239339	1.1829253359390222
6338.173724061472	1.1932086356707938
6339.494176920652	1.2036809385790652
6340.814904874177	1.2142156609268504
6342.135907979359	1.2247559648751831
6343.457186293522	1.235302404800795
6344.778739874001	1.2459120186934558
6346.100568778142	1.256732665444867
6347.422673063304	1.2678102011112629
6348.745052786858	1.2790055709554702
6350.067708006189	1.2902159784601388
6351.39063877869	1.301429438842525
6352.713845161769	1.3126696057752631
6354.037327212845	1.3240337545142946
6355.3610849893485	1.3355987352396896
6356.685118548721	1.3472886105139483
6358.009427948419	1.3590032117077258
6359.334013245908	1.3707205744713005
6360.658874498668	1.3824443505520772
6361.984011764189	1.394199899165423
6363.309425099973	1.4060218672865912
6364.635114563535	1.4178988847406735
6365.961080212403	1.4297929947813255
6367.2873221041145	1.4416901895663048
6368.61384029622	1.453593006749884
6369.940634846282	1.4655378557884022
6371.267705811875	1.4776039901982936
6372.595053250586	1.489801382573887
6373.922677220014	1.5020517817657058
6375.250577777768	1.5143088485235436
6376.578754981471	1.5265708526417074
6377.907208888761	1.538889164133328
6379.235939557279	1.5514338925785838
6380.564947044686	1.5643008665246885
6381.894231408654	1.577343134231113
6383.223792706865	1.5904137681603536
6384.553630997012	1.60348760863955
6385.883746336804	1.6165847220780811
6387.2141387839565	1.6298127244986071
6388.544808396204	1.6432897428495423
6389.875755231287	1.6569479881613733
6391.20697934696	1.670650208817625
6392.53848080099	1.6843563218586444
6393.870259651158	1.6980680872662128
6395.202315955253	1.7118094197474205
6396.534649771077	1.7256224926196075
6397.867261156446	1.739504319452125
6399.2001501691875	1.7534113699053007
6400.533316867139	1.7673227313587805
6401.866761308153	1.7812397950876169
6403.200483550093	1.7952081888167655
6404.534483650832	1.8093543006057493
6405.868761668259	1.8237249097006363
6407.2033176602745	1.8382030134794292
6408.5381516847865	1.85269629016997
6409.873263799722	1.8671931388166294
6411.2086540630135	1.8817128302506247
6412.544322532611	1.8963379183944349
6413.880269266471	1.911138400211623
6415.216494322568	1.9260522618487264
6416.552997758886	1.940990634248376
6417.8897796334195	1.9559325350020293
6419.226840004177	1.9708869297424505
6420.5641789291785	1.985918408544642
6421.9017964664545	2.001121115565619
6423.239692674053	2.016470054240742
6424.577867610025	2.03186365494795
6425.9163213324455	2.047262307596216
6427.25505389939	2.0626632633664386
6428.594065368952	2.078055534901393
6429.933355799238	2.093414009327806
6431.272925248362	2.1087341001974744
6432.612773774456	2.124040238125708
6433.9529014356585	2.1393479849874137
6435.293308290125	2.154659769949078
6436.63399439602	2.1699962262660693
6437.974959811519	2.1854303391382204
6439.316204594813	2.201008203198393
6440.657728804104	2.2166684143595865
6441.999532497605	2.2323443877041753
6443.341615733541	2.2480240745581033
6444.683978570154	2.2637326319687863
6446.026621065689	2.279610892076476
6447.369543278411	2.295823103553185
6448.7127452665945	2.312286963298612
6450.056227088525	2.3288149156766087
6451.399988802502	2.345348148669071
6452.744030466836	2.3618814550795855
6454.088352139851	2.3783838164636313
6455.43295387988	2.394797178714151
6456.777835745272	2.4111222680852706
6458.122997794385	2.4274182480243676
6459.468440085592	2.443715390393796
6460.814162677278	2.460012881263421
6462.160165627836	2.4762559269779496
6463.506448995675	2.4922835799723217
6464.853012839217	2.5080266084011273
6466.199857216891	2.523631142433813
6467.546982187145	2.5392210708239826
6468.894387808435	2.5548161379244227
6470.242074139227	2.570492770063915
6471.590041238007	2.5865951684035036
6472.938289163264	2.6034369663449235
6474.286817973508	2.620769945625796
6475.6356277272525	2.6382062200509484
6476.984718483029	2.65564838929016
6478.334090299379	2.6731885744806605
6479.683743234858	2.691529557081388
6481.033677348033	2.7117607064392106
6482.38389269748	2.733657103586523
6483.734389341793	2.7560602600821547
6485.085167339573	2.7784924524257217
6486.436226749436	2.8009402817955134
6487.787567630007	2.8235463762963335
6489.139190039932	2.846655082490333
6490.491094037857	2.870348865919206
6491.843279682447	2.89429757967182
6493.195747032382	2.9182763291752334
6494.548496146348	2.9422588408037096
6495.901527083045	2.9662098258299103
6497.254839901187	2.9899964070298353
6498.6084346595	3.013527216325239
6499.962311416722	3.0369117617599963
6501.316470231601	3.0602764139355965
6502.670911162898	3.083644785629828
6504.025634269391	3.1069419061462415
6505.3806396098635	3.1297287163550433
6506.735927243117	3.151462775482923
6508.091497227958	3.172379937483305
6509.447349623215	3.19309014556233
6510.80348448772	3.2137972952178933
6512.159901880322	3.234456729128709
6513.51660185988	3.2545301893427734
6514.873584485267	3.2729329357117543
6516.23084981537	3.2896085996787092
6517.58839790908	3.3056466756795935
6518.946228825313	3.3216412630108207
6520.304342622985	3.3376885050924407
6521.662739361031	3.354730121984515
6523.021419098398	3.3756675047323497
6524.380381894044	3.4019131174500754
6525.739627806938	3.430887411629508
6527.099156896065	3.4602395576484803
6528.458969220418	3.4895944575949476
6529.819064839006	3.518710402387319
6531.179443810848	3.5464256828399026
6532.540106194976	3.5715931367445157
6533.9010520504335	3.5950110644872835
6535.262281436278	3.6180581249012764
6536.6237944115765	3.641102215128881
6537.985591035413	3.664153507314886
6539.347671366879	3.687230622402566
6540.71003546508	3.7103637713814823
6542.072683389135	3.7335482868645062
6543.435615198176	3.756752394954128
6544.798830951341	3.7799621502573126
6546.162330707791	3.803186774910227
6547.526114526688	3.826569060408905
6548.890182467215	3.850473281701644
6550.254534588562	3.875005160871544
6551.619170949934	3.8998198382034515
6552.984091610549	3.924669010882727
6554.349296629635	3.9495264311047
6555.7147860664345	3.974485525349977
6557.080559980198	3.9999162212525534
6558.446618430195	4.026098144889761
6559.8129614757	4.05273828755602
6561.1795891760075	4.0794648508245706
6562.54650159042	4.1061959299734605
6563.913698778251	4.132718239577054
6565.281180798831	4.157692360728512
6566.648947711497	4.1793309633145475
6568.016999575604	4.198268866553002
6569.385336450516	4.216476329977484
6570.753958395609	4.2346592176098286
6572.122865470276	4.252950345673548
6573.492057733915	4.2724809874113765
6574.861535245943	4.295623237865229
6576.231298065786	4.3226028999874755
6577.601346252884	4.351062651760095
6578.971679866686	4.379646650931117
6580.342298966659	4.40825044944908
6581.7132036122775	4.437164832639541
6583.08439386303	4.467339376172615
6584.455869778419	4.499293840387834
6585.827631417956	4.532201969849378
6587.199678841168	4.565254531178728
6588.572012107595	4.59831051170089
6589.944631276783	4.631125769723697
6591.3175364083	4.662446426316874
6592.690727561718	4.690940863955533
6594.064204796627	4.71742004885838
6595.437968172626	4.743446812265118
6596.812017749329	4.769467775647282
6598.18635358636	4.795524960453056
6599.5609757433585	4.821874202179188
6600.935884279972	4.8489568379002685
6602.311079255864	4.87673218479848
6603.686560730708	4.904742340101935
6605.062328764195	4.932772273249802
6606.43838341602	4.960831708767577
6607.814724745898	4.989300754052005
6609.191352813554	5.019214481249362
6610.568267678725	5.050935413039148
6611.9454694011565	5.083499671371319
6613.322958040616	5.116165299249412
6614.700733656875	5.148833370511785
6616.07879630972	5.181356683401752
6617.457146058951	5.213124901254268
6618.835782964381	5.243641144875991
6620.214707085831	5.2733728575340235
6621.593918483141	5.302961375147732
6622.973417216159	5.33255382687754
6624.353203344746	5.362157726652134
6625.733276928776	5.391809002545245
6627.113638028136	5.4215587438120565
6628.494286702727	5.451391801059046
6629.8752230124555	5.4812527399229545
6631.25644701725	5.5111207779040665
6632.637958777046	5.541035662245705
6634.019758351792	5.5714677410761135
6635.401845801448	5.603462236760705
6636.784221185991	5.637183575823706
6638.166884565405	5.671608658497957
6639.54983599969	5.706103268699145
6640.933075548856	5.740601858177048
6642.316603272929	5.775026814106876
6643.700419231944	5.809107984083984
6645.084523485952	5.842681833894865
6646.468916095012	5.8759788309961145
6647.853597119198	5.90923970909024
6649.238566618597	5.94250660282715
6650.623824653309	5.97573784259032
6652.009371283446	6.008707570314312
6653.39520656913	6.041160744094465
6654.781330570499	6.07323362658251
6656.167743347702	6.105220280574217
6657.554444960899	6.1372107747176665
6658.941435470266	6.169155765987289
6660.328714935989	6.200583511027896
6661.716283418268	6.230629664293558
6663.104140977314	6.2593267291043775
6664.492287673351	6.287560449680525
6665.880723566617	6.315769723965535
6667.269448717359	6.343982003847013
6668.658463185843	6.372148769601659
6670.04776703234	6.400131941630647
6671.437360317139	6.427875835098042
6672.827243100539	6.455506710114844
6674.21741544285	6.483128655266657
6675.607877404403	6.510745137689939
6676.998629045529	6.537929442056573
6678.389670426579	6.562798772685531
6679.781001607919	6.583694811261551
6681.17262264992	6.602006767639302
6682.564533612973	6.619809814791884
6683.956734557476	6.637602361295953
6685.349225543842	6.6543794994325385
6686.742006632498	6.66290560788521
6688.135077883879	6.652350730491187
6689.528439358438	6.625279218827726
6690.9220911166385	6.593293887645011
6692.316033218955	6.561066545976737
6693.710265725876	6.525551848836944
6695.104788697902	6.445454408891326
6696.4996021955485	6.223693800192051
6697.894706279339	5.8398064947401105
6699.290101009814	5.387601681389562
6700.685786447524	4.928786176739023
6702.081762653035	4.471486620497416
6703.478029686921	4.058212353319073
6704.874587609773	3.8442024820216067
6706.27143648219	3.932206452955528
6707.668576364793	4.193341921112475
6709.066007318201	4.482700029874036
6710.46372940306	4.77236160247338
6711.861742680019	5.0614150194064536
6713.260047209744	5.346095014375035
6714.658643052912	5.621867294519651
6716.0575302702155	5.89083288647437
6717.4567089223565	6.158126261760544
6718.856179070049	6.425418525670239
6720.255940774021	6.690957960710911
6721.6559940950165	6.937020598131567
6723.056339093787	7.129274037054508
6724.456975831098	7.2672129660249185
6725.85790436773	7.385588830978267
6727.259124764472	7.5026137895507
6728.660637082132	7.61943381916367
6730.062441381524	7.731873830080677
6731.464537723479	7.827434598043121
6732.866926168839	7.900402658442306
6734.269606778457	7.962006150463385
6735.672579613203	8.022120797975616
6737.075844733956	8.082234711960325
6738.4794022016085	8.141982314974422
6739.883252077068	8.199596084714825
6741.2873944212515	8.253378785003754
6742.691829295089	8.30457224874491
6744.096556759525	8.355233065728157
6745.5015768755175	8.405893401550088
6746.906889704033	8.45646214650483
6748.312495306054	8.506174798998707
6749.718393742578	8.553825481794691
6751.124585074607	8.599632739293519
6752.531069363165	8.64487287536021
6753.937846669282	8.690091766684517
6755.344917054005	8.73531334977577
6756.752280578391	8.780442760000698
6758.159937303512	8.825243428218794
6759.567887290451	8.869653716444853
6760.976130600304	8.913899540878335
6762.384667294178	8.95813728135637
6763.793497433198	9.00238247181982
6765.202621078498	9.046584557451162
6766.612038291223	9.090548904263633
6768.021749132533	9.134133862232337
6769.431753663604	9.177495591400987
6770.842051945616	9.22082568662655
6772.252644039771	9.264164160005858
6773.66353000728	9.307494842012941
6775.074709909365	9.350714523329573
6776.486183807264	9.393689445370434
6777.897951762223	9.436471832813297
6779.310013835508	9.479210168252045
6780.722370088391	9.521955541953492
6782.135020582158	9.564723714954471
6783.547965378113	9.60765834851464
6784.961204537568	9.651052455422201
6786.374738121846	9.694927087177389
6787.788566192289	9.738989582723407
6789.2026888102455	9.78307538283524
6790.617106037082	9.827171517353317
6792.031817934173	9.871301622067577
6793.446824562909	9.915541120251579
6794.862125984693	9.959928996826049
6796.27772226094	10.004398768898016
6797.693613453079	10.048887907908663
6799.109799622548	10.093385964067082
6800.5262808308025	10.13787268769049
6801.9430571393095	10.182247578943423
6803.360128609546	10.226407566221539
6804.777495303007	10.27041925105708
6806.195157281196	10.314404987120385
6807.6131146056305	10.358399068665966
6809.031367337839	10.402417932075908
6810.449915539369	10.446589391778152
6811.868759271772	10.491129955334408
6813.287898596622	10.536015007485885
6814.707333575495	10.5810189013705
6816.12706426999	10.626038503141917
6817.547090741715	10.671070681195452
6818.967413052284	10.716163564426337
6820.388031263337	10.761443717562441
6821.808945436517	10.806951786965618
6823.230155633484	10.852569131632945
6824.651661915907	10.89820707052933
6826.073464345473	10.943852392724205
6827.49556298388	10.989436774081396
6828.917957892834	11.034682750670711
6830.340649134063	11.079372091534182
6831.763636769299	11.123720978960577
6833.186920860294	11.168014902099117
6834.610501468806	11.212317254856668
6836.034378656611	11.256638504959078
6837.458552485498	11.301041105784668
6838.883023017267	11.345610269524913
6840.307790313729	11.39031752640061
6841.732854436711	11.435069544503792
6843.158215448053	11.479832308638478
6844.583873409604	11.524598622016173
6846.009828383232	11.569304098411813
6847.436080430813	11.613809694313979
6848.862629614236	11.658097573665994
6850.289475995406	11.702304821537256
6851.716619636238	11.746513595013782
6853.144060598662	11.790726961189185
6854.57179894462	11.834838339827916
6855.999834736067	11.878487530182888
6857.428168034971	11.921467720636517
6858.856798903312	11.964089661727058
6860.285727403084	12.006666215179994
6861.7149535962935	12.049254862102531
6863.144477544959	12.092060607166168
6864.5742993111135	12.1361556617193
6866.004418956804	12.182713614778812
6867.434836544087	12.231066088568522
6868.865552135034	12.279847215663764
6870.296565791729	12.328650096413186
6871.72787757627	12.377344371906208
6873.159487550764	12.424870231904949
6874.591395777338	12.469325971885281
6876.023602318125	12.510831388528194
6877.456107235274	12.551344900904626
6878.888910590949	12.591805668564723
6880.322012447323	12.632280041355544
6881.755412866582	12.672850331596864
6883.18911191093	12.713742659424748
6884.623109642579	12.755040445747287
6886.057406123754	12.796534784286425
6887.492001416697	12.83806012763139
6888.926895583659	12.87959052073789
6890.362088686906	12.920983707366526
6891.797580788715	12.961618667759028
6893.233371951381	13.000963863982415
6894.669462237203	13.039487199499249
6896.105851708503	13.077859700013091
6897.542540427609	13.116236961833149
6898.979528456865	13.154485534225543
6900.416815858628	13.191668139807655
6901.854402695265	13.22641872450364
6903.29228902916	13.259094468156373
6904.730474922708	13.291168024718841
6906.168960438317	13.323219668951912
6907.607745638409	13.354336094247758
6909.0468305854165	13.37272460058914
6910.48621534179	13.351113231608462
6911.925899969986	13.284362695607417
6913.365884532479	13.198990805631153
6914.806169091757	13.111915270521841
6916.246753710318	13.025044894298437
6917.687638450675	12.943866453631195
6919.128823375352	12.887831253391754
6920.570308546889	12.869292673218824
6922.012094027836	12.871942812263299
6923.454179880759	12.877983701617636
6924.896566168235	12.884094557753542
6926.339252952854	12.893043171904408
6927.782240297219	12.920532101789187
6929.225528263946	12.984996141718518
6930.669116915669	13.07731260233209
6932.113006315028	13.176464947188002
6933.557196524675	13.27584273895397
6935.001687607285	13.37490247292409
6936.446479625538	13.470491741802116
6937.8915726421255	13.55669136524564
6939.33696671976	13.633566027547833
6940.782661921161	13.707141102941991
6942.228658309061	13.780501663867854
6943.67495594621	13.85378469319092
6945.121554895365	13.92535392935718
6946.568455219301	13.9904219682181
6948.015656980806	14.046930980771052
6949.463160242676	14.099225777924152
6950.910965067728	14.150996294680725
6952.359071518784	14.202815026775534
6953.807479658683	14.25632056043347
6955.256189550279	14.318995341714457
6956.705201256435	14.397721339583768
6958.154514840031	14.487121951457103
6959.604130363956	14.578725289154015
6961.054047891116	14.67038794699973
6962.504267484427	14.76168918525229
6963.954789206819	14.849843798963626
6965.405613121237	14.930548483691265
6966.856739290638	15.004680039534872
6968.30816777799	15.076816660626436
6969.759898646277	15.148866738583761
6971.211931958496	15.220575729341489
6972.6642677776545	15.287181182464504
6974.116906166776	15.337154089220633
6975.569847188894	15.367777879944365
6977.023090907059	15.390121016048129
6978.47663738433	15.41165571255404
6979.930486683786	15.433217644492444
6981.3846388685115	15.45543868898159
6982.83909400161	15.480685098481075
6984.293852146194	15.510607064371126
6985.748913365391	15.543275674025292
6987.204277722341	15.576415858114256
6988.659945280201	15.609572001099302
6990.115916102135	15.643133626648533
6991.572190251322	15.679462839699816
6993.028767790958	15.721510823468732
6994.485648784248	15.76801022333432
6995.942833294413	15.81565496878876
6997.400321384683	15.86334687671893
6998.858113118305	15.910361178206333
7000.316208558537	15.949853534302468
7001.774607768653	15.968214393894511
7003.23331081194	15.96479331397635
7004.692317751692	15.953264116867938
7006.151628651223	15.941115312922816
7007.6112435738605	15.92897608521767
7009.071162582939	15.917091574066193
7010.5313857418105	15.906227359235812
7011.9919131138395	15.896756106783746
7013.452744762405	15.88799448450505
7014.913880750897	15.879325399812211
7016.375321142722	15.870706413951936
7017.837066001293	15.864498321294908
7019.299115390043	15.871990061587033
7020.761469372417	15.904261388605175
7022.224128011869	15.953577462506251
7023.687091371872	16.00658866264838
7025.150359515908	16.059695963094168
7026.613932507475	16.113468216151627
7028.07781041008	16.173162324506727
7029.541993287248	16.24746405388753
7031.0064812025175	16.33512154182831
7032.471274219435	16.42702605713275
7033.936372401564	16.519175161481296
7035.401775812481	16.610704236998092
7036.867484515776	16.692497014143402
7038.33349857505	16.74122101955278
7039.79981805392	16.74993935829389
7041.266443016016	16.74066564810644
7042.733373524977	16.729437543338886
7044.200609644461	16.718349832949563
7045.668151438137	16.711897109909106
7047.135998969687	16.72791936527788
7048.604152302806	16.779866244993126
7050.072611501203	16.85354487801932
7051.541376628598	16.931068265827946
7053.010447748729	17.008629872030557
7054.479824925345	17.084042550695624
7055.949508222204	17.143895478031016
7057.419497703085	17.17046871747701
7058.889793431773	17.17021422924349
