#wavelength (Angstrom)	surface_flux (erg / (Angstrom cm2 s))
6300.0	2088.571758580126
6301.3125	3092.884236789169
6302.6252734375	3602.3841402914372
6303.938320369467	3622.900066216575
6305.251640852877	3639.401097789759
6306.565234944722	3674.498472265493
6307.8791027020025	3714.4900561111567
6309.193244181732	3754.6689269899866
6310.5076594409375	3795.074774555834
6311.822348536654	3837.977343318253
6313.137311525933	3888.0180250829117
6314.452548465834	3945.534141207965
6315.768059413431	4005.887224743227
6317.083844425809	4066.4723828472843
6318.399903560065	4126.736530901793
6319.716236873307	4179.880991667223
6321.032844422655	4204.309798014435
6322.349726265244	4188.920664953791
6323.666882458216	4152.744161184316
6324.984313058728	4113.654176563964
6326.302018123949	4074.6481114609505
6327.619997711058	4041.047196681129
6328.938251877249	4039.173527983909
6330.256780679723	4096.008004087924
6331.575584175699	4194.076123080383
6332.894662422402	4301.325737790528
6334.214015477073	4408.809448926207
6335.533643396964	4513.788298379954
6336.853546239339	4595.730272673828
6338.173724061472	4620.260626770545
6339.494176920652	4591.772497748392
6340.814904874177	4546.185391936457
6342.135907979359	4499.6277325430765
6343.457186293522	4453.264268442169
6344.778739874001	4410.046626723085
6346.100568778142	4377.62631552846
6347.422673063304	4358.37630926226
6348.745052786858	4345.100653607031
6350.067708006189	4332.47971691115
6351.39063877869	4319.753489005905
6352.713845161769	4303.440966856086
6354.037327212845	4269.237999886365
6355.3610849893485	4205.843922939757
6356.685118548721	4124.425325216831
6358.009427948419	4039.711966371684
6359.334013245908	3954.982049997751
6360.658874498668	3874.944204718917
6361.984011764189	3829.6655155904364
6363.309425099973	3860.2252971159246
6364.635114563535	3953.141652704229
6365.961080212403	4063.4097527291538
6367.2873221041145	4174.420296172246
6368.61384029622	4285.056761055654
6369.940634846282	4390.719061442097
6371.267705811875	4481.3939748274415
6372.595053250586	4555.821583053249
6373.922677220014	4623.888604758039
6375.250577777768	4691.44984657485
6376.578754981471	4758.744839518985
6377.907208888761	4819.732807256605
6379.235939557279	4854.409824413884
6380.564947044686	4851.507023968464
6381.894231408654	4828.305222266963
6383.223792706865	4802.082389661797
6384.553630997012	4775.857484545537
6385.883746336804	4751.11574601401
6387.2141387839565	4735.653061531547
6388.544808396204	4738.026752033971
6389.875755231287	4753.326000568413
6391.20697934696	4771.60797072802
6392.53848080099	4789.969982013586
6393.870259651158	4808.986976024762
6395.202315955253	4834.2264407657885
6396.534649771077	4875.506681609259
6397.867261156446	4932.132284112814
6399.2001501691875	4993.968736174099
6400.533316867139	5056.147196356475
6401.866761308153	5118.2840018460065
6403.200483550093	5179.4905805787
6404.534483650832	5237.305576625291
6405.868761668259	5290.817992342144
6407.2033176602745	5342.306433926714
6408.5381516847865	5393.568855271101
6409.873263799722	5444.501983826724
6411.2086540630135	5482.986921558523
6412.544322532611	5457.137708748952
6413.880269266471	5322.960619606989
6415.216494322568	5119.432672764084
6416.552997758886	4902.409778342929
6417.8897796334195	4685.153134032185
6419.226840004177	4473.02071950895
6420.5641789291785	4301.604816784786
6421.9017964664545	4222.7836160521665
6423.239692674053	4222.782282076699
6424.577867610025	4245.630055153233
6425.9163213324455	4269.499250901118
6427.25505389939	4294.096983254183
6428.594065368952	4328.2090511762535
6429.933355799238	4391.915724218643
6431.272925248362	4488.884767165581
6432.612773774456	4599.582500815165
6433.9529014356585	4711.566502652292
6435.293308290125	4823.23499743133
6436.63399439602	4926.346987295629
6437.974959811519	4991.752120831495
6439.316204594813	5001.040261762609
6440.657728804104	4978.736752967555
6441.999532497605	4951.436185483377
6443.341615733541	4924.109158429613
6444.683978570154	4898.026223390587
6446.026621065689	4880.061671222511
6447.369543278411	4878.232804984372
6448.7127452665945	4888.522195633874
6450.056227088525	4901.774807203298
6451.399988802502	4915.122650525944
6452.744030466836	4929.791388296595
6454.088352139851	4957.909978089
6455.43295387988	5022.178726738312
6456.777835745272	5122.313939870668
6458.122997794385	5235.182103958715
6459.468440085592	5348.94674879505
6460.814162677278	5462.44632863683
6462.160165627836	5570.48750793018
6463.506448995675	5657.815817606294
6464.853012839217	5717.869488668526
6466.199857216891	5764.49849187777
6467.546982187145	5809.444784690717
6468.894387808435	5854.270173503658
6470.242074139227	5894.012861104643
6471.590041238007	5906.2932450369835
6472.938289163264	5870.71921108563
6474.286817973508	5803.429732409533
6475.6356277272525	5729.644864611454
6476.984718483029	5655.719194640217
6478.334090299379	5581.197346533312
6479.683743234858	5501.75478361759
6481.033677348033	5410.688115822224
6482.38389269748	5309.381374634749
6483.734389341793	5204.9632746611705
6485.085167339573	5100.373470162808
6486.436226749436	4997.175980114822
6487.787567630007	4913.767003897114
6489.139190039932	4894.560609428891
6490.491094037857	4950.193162969856
6491.843279682447	5038.081822851641
6493.195747032382	5129.219309639026
6494.548496146348	5220.31926642983
6495.901527083045	5309.740996098156
6497.254839901187	5391.309706728306
6498.6084346595	5460.779518519841
6499.962311416722	5523.239178827628
6501.316470231601	5584.561030811314
6502.670911162898	5645.898948457322
6504.025634269391	5708.238128926132
6505.3806396098635	5777.280181755941
6506.735927243117	5860.06922387569
6508.091497227958	5953.542486813306
6509.447349623215	6049.779303055109
6510.80348448772	6146.131136351084
6512.159901880322	6241.122902872041
6513.51660185988	6320.476759032947
6514.873584485267	6355.418881164019
6516.23084981537	6344.454017941965
6517.58839790908	6316.482065878657
6518.946228825313	6287.262075966093
6520.304342622985	6258.711741967153
6521.662739361031	6243.733086741609
6523.021419098398	6282.076601212805
6524.380381894044	6393.093736120051
6525.739627806938	6541.44338195219
6527.099156896065	6694.917991763358
6528.458969220418	6848.322900475366
6529.819064839006	6995.675640274813
6531.179443810848	7108.135586245362
6532.540106194976	7157.223256825417
6533.9010520504335	7162.757237625555
6535.262281436278	7158.964097069493
6536.6237944115765	7154.971434622525
6537.985591035413	7149.521043411734
6539.347671366879	7131.315073161699
6540.71003546508	7082.0232887063885
6542.072683389135	7004.478283306158
6543.435615198176	6917.959817997355
6544.798830951341	6830.930016735413
6546.162330707791	6744.264994935981
6547.526114526688	6663.413830786047
6548.890182467215	6602.277716531138
6550.254534588562	6564.891110588434
6551.619170949934	6538.093648141408
6552.984091610549	6512.4097091014055
6554.349296629635	6486.692958119142
6555.7147860664345	6460.097378946788
6557.080559980198	6429.27441743326
6558.446618430195	6391.692923722057
6559.8129614757	6350.005203716611
6561.1795891760075	6307.576763185462
6562.54650159042	6265.13642690158
6563.913698778251	6223.324940048061
6565.281180798831	6186.127288388433
6566.648947711497	6158.861064723121
6568.016999575604	6139.637582579329
6569.385336450516	6122.5950082771715
6570.753958395609	6105.633285763766
6572.122865470276	6089.309288383722
6573.492057733915	6080.568178377614
6574.861535245943	6093.9728316610735
6576.231298065786	6130.909503140298
6577.601346252884	6176.906001012187
6578.971679866686	6223.638466859777
6580.342298966659	6270.423769344921
6581.7132036122775	6318.166747673127
6583.08439386303	6369.822274377069
6584.455869778419	6427.007729527015
6585.827631417956	6487.15198285262
6587.199678841168	6547.736873048682
6588.572012107595	6608.296696730121
6589.944631276783	6666.515783489727
6591.3175364083	6710.476871554934
6592.690727561718	6727.523847681352
6594.064204796627	6725.364373053187
6595.437968172626	6718.852065100116
6596.812017749329	6712.22820450711
6598.18635358636	6704.750716022922
6599.5609757433585	6689.340652615182
6600.935884279972	6653.7862315531265
6602.311079255864	6599.213178933746
6603.686560730708	6538.291712915422
6605.062328764195	6476.971768386883
6606.43838341602	6415.860447722386
6607.814724745898	6358.51417760549
6609.191352813554	6314.617503545982
6610.568267678725	6287.5623223796965
6611.9454694011565	6268.3301816221465
6613.322958040616	6249.979013261415
6614.700733656875	6231.597082443304
6616.07879630972	6212.265838961193
6617.457146058951	6188.177890422218
6618.835782964381	6156.233611218744
6620.214707085831	6119.348981444064
6621.593918483141	6081.524752727434
6622.973417216159	6043.677119397033
6624.353203344746	6005.57849159258
6625.733276928776	5965.5755973628375
6627.113638028136	5921.317481163786
6628.494286702727	5873.501341289544
6629.8752230124555	5824.678200715624
6631.25644701725	5775.804481000284
6632.637958777046	5727.838996276019
6634.019758351792	5691.415264044771
6635.401845801448	5690.163458871606
6636.784221185991	5727.8008755745195
6638.166884565405	5781.19742065949
6639.54983599969	5836.01481540257
6640.933075548856	5890.507702255721
6642.316603272929	5936.5493770793555
6643.700419231944	5945.852616949279
6645.084523485952	5901.293956549111
6646.468916095012	5827.004986061472
6647.853597119198	5748.192251356241
6649.238566618597	5669.277388562946
6650.623824653309	5586.524567900986
6652.009371283446	5479.6652739571655
6653.39520656913	5325.812049733563
6654.781330570499	5137.192899773259
6656.167743347702	4940.196729244914
6657.554444960899	4742.919046228044
6658.941435470266	4549.170990899617
6660.328714935989	4391.242196990498
6661.716283418268	4328.294848883493
6663.104140977314	4358.104269385157
6664.492287673351	4420.04376643605
6665.880723566617	4484.072058159728
6667.269448717359	4547.900538067893
6668.658463185843	4607.927295927024
6670.04776703234	4653.902016724707
6671.437360317139	4681.690893847671
6672.827243100539	4700.666655691582
6674.21741544285	4718.556145492262
6675.607877404403	4736.293228680113
6676.998629045529	4748.033788129528
6678.389670426579	4727.981110459912
6679.781001607919	4653.414107946099
6681.17262264992	4543.366708494313
6682.564533612973	4426.271407994825
6683.956734557476	4309.047762777117
6685.349225543842	4194.435256970627
6686.742006632498	4101.146121760119
6688.135077883879	4057.187994036999
6689.528439358438	4055.929132345298
6690.9220911166385	4067.3631832896
6692.316033218955	4079.4082222765255
6693.710265725876	4091.3054870680326
6695.104788697902	4101.163269359332
6696.4996021955485	4104.534392538554
6697.894706279339	4100.481439229959
6699.290101009814	4093.3017344442733
6700.685786447524	4085.8220190234997
6702.081762653035	4078.403649991364
6703.478029686921	4072.7059375777235
6704.874587609773	4074.78848616653
6706.27143648219	4088.6620185202496
6707.668576364793	4109.295741107243
6709.066007318201	4131.033281479476
6710.46372940306	4152.755952964836
6711.861742680019	4172.293101965165
6713.260047209744	4177.309472768134
6714.658643052912	4152.950437162238
6716.0575302702155	4106.099031334199
6717.4567089223565	4053.5760207458384
6718.856179070049	4000.8561772307894
6720.255940774021	3949.0994624869054
6721.6559940950165	3907.85246108793
6723.056339093787	3895.607481819844
6724.456975831098	3912.6367022426125
6725.85790436773	3940.2221131735782
6727.259124764472	3968.5541870063353
6728.660637082132	3996.861124531718
6730.062441381524	4024.5777946121566
6731.464537723479	4050.012328143792
6732.866926168839	4072.391362684467
6734.269606778457	4093.2347169266727
6735.672579613203	4113.879149368483
6737.075844733956	4134.489181569251
6738.4794022016085	4153.242789260302
6739.883252077068	4161.458440536941
6741.2873944212515	4150.799826978277
6742.691829295089	4127.366433797331
6744.096556759525	4101.259578722478
6745.5015768755175	4075.1002955661793
6746.906889704033	4049.9592572340875
6748.312495306054	4033.498293106431
6749.718393742578	4037.802684087748
6751.124585074607	4060.6822066667264
6752.531069363165	4089.345808587101
6753.937846669282	4118.322754290364
6755.344917054005	4147.495329338553
6756.752280578391	4179.536506997338
6758.159937303512	4221.111942522074
6759.567887290451	4273.9584113276915
6760.976130600304	4331.710529649055
6762.384667294178	4389.962178195841
6763.793497433198	4448.216596813245
6765.202621078498	4506.20570120997
6766.612038291223	4562.897399532536
6768.021749132533	4617.540557587683
6769.431753663604	4670.963236423779
6770.842051945616	4724.181396997078
6772.252644039771	4777.38673187412
6773.66353000728	4828.335999597454
6775.074709909365	4863.117647057356
6776.486183807264	4863.702468884439
6777.897951762223	4837.1294353024405
6779.310013835508	4803.411858974704
6780.722370088391	4769.435545556928
6782.135020582158	4735.464593415172
6783.547965378113	4701.627623106692
6784.961204537568	4668.186973527943
6786.374738121846	4635.161489502061
6787.788566192289	4602.2891407788375
6789.2026888102455	4569.422590027429
6790.617106037082	4536.769788631448
6792.031817934173	4508.864792350886
6793.446824562909	4500.176862071095
6794.862125984693	4518.184717901343
6796.27772226094	4550.1335341791755
6797.693613453079	4584.0271084318965
6799.109799622548	4617.924938704125
6800.5262808308025	4651.267812932271
6801.9430571393095	4681.314194385481
6803.360128609546	4705.252392179649
6804.777495303007	4724.899145555873
6806.195157281196	4743.592028835229
6807.6131146056305	4762.264985157455
6809.031367337839	4780.840449871456
6810.449915539369	4798.488665411612
6811.868759271772	4813.804078773671
6813.287898596622	4826.94650530169
6814.707333575495	4839.380856760437
6816.12706426999	4851.776690898927
6817.547090741715	4864.646915897258
6818.967413052284	4885.093592320243
6820.388031263337	4931.793505545722
6821.808945436517	5010.744521334364
6823.230155633484	5104.438579498971
6824.651661915907	5199.788791874126
6826.073464345473	5295.03702937086
6827.49556298388	5386.2111240408485
6828.917957892834	5457.187061641573
6830.340649134063	5495.282956804952
6831.763636769299	5513.061420958564
6833.186920860294	5527.11260568481
6834.610501468806	5541.119397056019
6836.034378656611	5555.570304980421
6837.458552485498	5573.31538954384
6838.883023017267	5598.243341680264
6840.307790313729	5629.054815922105
6841.732854436711	5661.490392601215
6843.158215448053	5693.997563246479
6844.583873409604	5725.862821068577
6846.009828383232	5749.855351011864
6847.436080430813	5750.360294085634
6848.862629614236	5725.3744371003095
6850.289475995406	5690.292271503471
6851.716619636238	5654.339853904109
6853.144060598662	5618.669407437251
6854.57179894462	5589.962385722968
6855.999834736067	5590.799284772697
6857.428168034971	5634.144894823118
6858.856798903312	5700.518907595377
6860.285727403084	5770.308667627192
6861.7149535962935	5840.116856934825
6863.144477544959	5909.001560755742
6864.5742993111135	5972.132617595387
6866.004418956804	6024.223172733371
6867.434836544087	6068.284192595276
6868.865552135034	6110.468743870386
6870.296565791729	6152.610135498209
6871.72787757627	6195.765418379323
6873.159487550764	6248.90325032779
6874.591395777338	6328.116814730104
6876.023602318125	6432.392352622695
6877.456107235274	6545.156773649526
6878.888910590949	6658.462465276581
6880.322012447323	6771.464064148622
6881.755412866582	6878.950207942367
6883.18911191093	6966.604562783704
6884.623109642579	7029.145578042266
6886.057406123754	7079.799950819219
6887.492001416697	7129.04917782419
6888.926895583659	7178.190739471303
6890.362088686906	7222.766395937052
6891.797580788715	7243.292329867413
6893.233371951381	7223.092110572521
6894.669462237203	7176.845603304578
6896.105851708503	7125.605394196654
6897.542540427609	7074.296414974532
6898.979528456865	7025.093887045264
6900.416815858628	6992.515539303667
6901.854402695265	6997.720521449868
6903.29228902916	7035.176416333181
6904.730474922708	7082.07297121679
6906.168960438317	7129.420234469789
6907.607745638409	7176.027380968401
6909.0468305854165	7212.50452700123
6910.48621534179	7217.136500201974
6911.925899969986	7185.831163483691
6913.365884532479	7139.7032078595175
6914.806169091757	7092.223284297124
6916.246753710318	7045.0909677306
6917.687638450675	7007.090492112068
6919.128823375352	7009.3630478506975
6920.570308546889	7071.686175736413
6922.012094027836	7167.95122619709
6923.454179880759	7269.663977719522
6924.896566168235	7371.467277720462
6926.339252952854	7474.847188826331
6927.782240297219	7588.4142989855645
6929.225528263946	7722.277433087091
6930.669116915669	7871.434118637029
6932.113006315028	8024.359826831206
6933.557196524675	8177.430426315845
6935.001687607285	8331.253711593588
6936.446479625538	8492.537198150043
6937.8915726421255	8673.8753722321
6939.33696671976	8875.130618378818
6940.782661921161	9083.482529123701
6942.228658309061	9292.366891545264
6943.67495594621	9500.832028129205
6945.121554895365	9700.720102814093
6946.568455219301	9868.162782089532
6948.015656980806	9992.90044173908
6949.463160242676	10096.594786179983
6950.910965067728	10197.642537060183
6952.359071518784	10298.640310041374
6953.807479658683	10396.894125812345
6955.256189550279	10480.059793487588
6956.705201256435	10536.7837619656
6958.154514840031	10575.936113595428
6959.604130363956	10611.493392044287
6961.054047891116	10647.00026403236
6962.504267484427	10684.77324525046
6963.954789206819	10741.345111297052
6965.405613121237	10842.259953121751
6966.856739290638	10982.313181717056
6968.30816777799	11134.329033615239
6969.759898646277	11286.979476235887
6971.211931958496	11439.81103531385
6972.6642677776545	11594.820648281559
6974.116906166776	11756.842518814472
6975.569847188894	11927.015731937088
6977.023090907059	12100.699210635847
6978.47663738433	12274.759809691803
6979.930486683786	12448.507876464473
6981.3846388685115	12612.502916153915
6982.83909400161	12731.359902877091
6984.293852146194	12780.401820704175
6985.748913365391	12788.473738810548
6987.204277722341	12789.597169558452
6988.659945280201	12790.597777030041
6990.115916102135	12786.8242844974
6991.572190251322	12749.982369098512
6993.028767790958	12644.721467223553
6994.485648784248	12486.222531662492
6995.942833294413	12314.087157930278
6997.400321384683	12141.466544421588
6998.858113118305	11973.267703822998
7000.316208558537	11853.866464286699
7001.774607768653	11871.50145133231
7003.23331081194	12030.38987044369
7004.692317751692	12241.87640042865
7006.151628651223	12457.408687866764
7007.6112435738605	12672.833903413466
7009.071162582939	12885.074960217078
7010.5313857418105	13084.522027764624
7011.9919131138395	13266.49727008845
7013.452744762405	13439.578122115128
7014.913880750897	13611.510555213374
7016.375321142722	13783.412152385825
7017.837066001293	13952.39027501526
7019.299115390043	14104.59846270349
7020.761469372417	14226.446832460597
7022.224128011869	14327.422571664445
7023.687091371872	14423.89968620268
7025.150359515908	14520.290519649183
7026.613932507475	14615.019477804819
7028.07781041008	14694.564569969738
7029.541993287248	14736.583956067832
7031.0064812025175	14744.29773348802
7032.471274219435	14741.135730075144
7033.936372401564	14737.393176906708
7035.401775812481	14735.046226824461
7036.867484515776	14754.009269983897
7038.33349857505	14845.251823509323
7039.79981805392	15023.927459856357
7041.266443016016	15241.94770336936
7042.733373524977	15464.2784988353
7044.200609644461	15683.294642111285
7045.668151438137	15794.97868130278
7047.135998969687	15386.241337169717
7048.604152302806	14145.652826219584
7050.072611501203	12401.852484318217
7051.541376628598	10569.018056641244
7053.010447748729	8735.269836043339
7054.479824925345	6949.110256872463
7055.949508222204	5507.675858553232
7057.419497703085	4803.577917718748
7058.889793431773	4693.863752382413
7060.360395472071	4744.937261296542
7061.831303887795	4802.3282184219315
7063.302518742772	4859.670076128409
7064.774040100844	4916.292989918211
7066.245868025865	4970.77596175824
7067.718002581704	5022.967230388777
