#wavelength (Angstrom)	surface_flux (erg / (Angstrom cm2 s))
6300.0	215.54558183104905
6301.3125	319.9784592408436
6302.6252734375	374.32434718593083
6303.938320369467	377.7275440637129
6305.251640852877	378.979361060939
6306.565234944722	380.7657125981682
6307.8791027020025	382.69286302770524
6309.193244181732	384.62558069873523
6310.5076594409375	386.5914474264526
6311.822348536654	388.93046261066746
6313.137311525933	392.33788990088425
6314.452548465834	396.8642586480847
6315.768059413431	401.8147429810281
6317.083844425809	406.7991391279796
6318.399903560065	411.77120931154826
6319.716236873307	416.45861731714626
6321.032844422655	419.9962881692295
6322.349726265244	421.9394949565422
6323.666882458216	423.0505500675361
6324.984313058728	424.04543251539474
6326.302018123949	425.04611070455087
6327.619997711058	426.3606087409351
6328.938251877249	429.513864285053
6330.256780679723	436.06898191877514
6331.575584175699	445.01359848849785
6332.894662422402	454.4908132931554
6334.214015477073	463.9821303596837
6335.533643396964	473.2692333097106
6336.853546239339	480.67697360382084
6338.173724061472	483.4008136142321
6339.494176920652	481.79917692901876
6340.814904874177	478.80263391794995
6342.135907979359	475.7270567802989
6343.457186293522	472.74601394924196
6344.778739874001	471.23728170646393
6346.100568778142	474.77247066338174
6347.422673063304	484.45925066499086
6348.745052786858	496.9386584467034
6350.067708006189	509.72757016137274
6351.39063877869	522.4898410691817
6352.713845161769	534.2271822767701
6354.037327212845	540.8379635735866
6355.3610849893485	539.0817865017501
6356.685118548721	532.1606054512149
6358.009427948419	524.2980929495847
6359.334013245908	516.4274644219659
6360.658874498668	509.1613489681628
6361.984011764189	506.3694534548629
6363.309425099973	513.3387853745348
6364.635114563535	528.3341920850701
6365.961080212403	545.5634430452361
6367.2873221041145	562.8888810813094
6368.61384029622	580.1386326083021
6369.940634846282	596.3943615279072
6371.267705811875	609.6570828917424
6372.595053250586	619.675273349147
6373.922677220014	628.4226628913781
6375.250577777768	637.0680727448403
6376.578754981471	645.7051307693159
6377.907208888761	654.1151148214672
6379.235939557279	661.5737199958737
6380.564947044686	667.6729217094576
6381.894231408654	673.0384266596005
6383.223792706865	678.2958384961261
6384.553630997012	683.5532194436196
6385.883746336804	688.7846423677236
6387.2141387839565	693.8484305290621
6388.544808396204	698.5890694345467
6389.875755231287	703.0958050069397
6391.20697934696	707.5493315330832
6392.53848080099	712.0025434052351
6393.870259651158	716.5056018622174
6395.202315955253	721.4767700423469
6396.534649771077	727.6536579162929
6397.867261156446	734.9840219248922
6399.2001501691875	742.7064970236512
6400.533316867139	750.4553068499363
6401.866761308153	758.1756583458696
6403.200483550093	765.378217897819
6404.534483650832	770.7075272102669
6405.868761668259	773.6619030117124
6407.2033176602745	775.4961618796056
6408.5381516847865	777.2004274247008
6409.873263799722	778.8814598999289
6411.2086540630135	779.7025384958924
6412.544322532611	776.0808383990541
6413.880269266471	764.9785086398603
6415.216494322568	749.0869868062908
6416.552997758886	732.2632302193141
6417.8897796334195	715.4244836936748
6419.226840004177	699.171552522046
6420.5641789291785	687.5619667325374
6421.9017964664545	686.5098542490981
6423.239692674053	694.4448805090841
6424.577867610025	704.9863642562783
6425.9163213324455	715.6459439683772
6427.25505389939	726.4160501011894
6428.594065368952	738.6117733702257
6429.933355799238	755.238802010274
6431.272925248362	776.8461407287913
6432.612773774456	800.5099175417366
6433.9529014356585	824.3677056066855
6435.293308290125	848.1828927622453
6436.63399439602	870.7983601487193
6437.974959811519	888.1211212914578
6439.316204594813	897.5662181598735
6440.657728804104	902.5772427101926
6441.999532497605	906.8883290387811
6443.341615733541	911.1934043781914
6444.683978570154	915.3849271285435
6446.026621065689	918.833381954902
6447.369543278411	920.804581809417
6448.7127452665945	921.6664241370144
6450.056227088525	922.2572844021701
6451.399988802502	922.8401228742649
6452.744030466836	923.4741930167838
6454.088352139851	924.6297987425886
6455.43295387988	927.1871511525021
6456.777835745272	931.1352499162793
6458.122997794385	935.5770862214006
6459.468440085592	940.0536974446355
6460.814162677278	944.4805867846987
6462.160165627836	947.9467532971272
6463.506448995675	947.7763003783706
6464.853012839217	942.8181803495596
6466.199857216891	935.5019153387765
6467.546982187145	927.8872457269354
6468.894387808435	920.2700910668841
6470.242074139227	912.6458452846779
6471.590041238007	904.9903169299445
6472.938289163264	897.2814629164953
6474.286817973508	889.53672825188
6475.6356277272525	881.7833740959228
6476.984718483029	874.0297999771201
6478.334090299379	866.6666724022156
6479.683743234858	862.613329809668
6481.033677348033	866.3949899874654
6482.38389269748	877.0773399898453
6483.734389341793	889.8480355503591
6485.085167339573	902.7226180947683
6486.436226749436	915.6209895195263
6487.787567630007	928.8177289950363
6489.139190039932	942.9757539709512
6490.491094037857	958.2538216665556
6491.843279682447	974.0163484573454
6493.195747032382	989.8303772516726
6494.548496146348	1005.6137577276418
6495.901527083045	1020.402661464904
6497.254839901187	1030.5670089965045
6498.6084346595	1033.6107025644915
6499.962311416722	1032.525347242921
6501.316470231601	1030.7632136303218
6502.670911162898	1029.0001613636987
6504.025634269391	1027.6192398791786
6505.3806396098635	1028.8267099082586
6506.735927243117	1035.348321074984
6508.091497227958	1045.998921104786
6509.447349623215	1057.7135732166764
6510.80348448772	1069.46754127349
6512.159901880322	1081.0260380217194
6513.51660185988	1090.341538196909
6514.873584485267	1093.2877093268846
6516.23084981537	1089.6501236524364
6517.58839790908	1083.5731930397278
6518.946228825313	1077.316856264598
6520.304342622985	1071.0791406042083
6521.662739361031	1065.2404662425452
6523.021419098398	1060.9728893383062
6524.380381894044	1058.8469935927874
6525.739627806938	1057.820734450417
6527.099156896065	1056.9444614851463
6528.458969220418	1056.0631905061086
6529.819064839006	1054.9132562136285
6531.179443810848	1052.2219824829015
6532.540106194976	1046.7326296816425
6533.9010520504335	1039.3197497522262
6535.262281436278	1031.4936884543956
6536.6237944115765	1023.6597591823639
6537.985591035413	1016.4228225246926
6539.347671366879	1014.4250540297361
6540.71003546508	1025.198167280275
6542.072683389135	1047.5782770541534
6543.435615198176	1073.6435180704725
6544.798830951341	1099.9168861129317
6546.162330707791	1126.0915539637465
6547.526114526688	1150.6850578648848
6548.890182467215	1169.9154710493244
6550.254534588562	1182.6851880094437
6551.619170949934	1192.574587905635
6552.984091610549	1202.161586592023
6554.349296629635	1211.7168832500527
6555.7147860664345	1220.2150287017832
6557.080559980198	1223.5956771195092
6558.446618430195	1218.7896404763258
6559.8129614757	1209.013020207605
6561.1795891760075	1198.3467206588773
6562.54650159042	1187.6664245516272
6563.913698778251	1176.9218284627364
6565.281180798831	1165.7250203505107
6566.648947711497	1153.5583678954122
6568.016999575604	1140.6057213034821
6569.385336450516	1127.437689773906
6570.753958395609	1114.2586989092094
6572.122865470276	1101.4265563652991
6573.492057733915	1092.7275438338297
6574.861535245943	1096.1008785498818
6576.231298065786	1112.3023024875702
6577.601346252884	1133.4420361685582
6578.971679866686	1154.98217619419
6580.342298966659	1176.525701395946
6581.7132036122775	1198.0489586486901
6583.08439386303	1219.4747792698658
6584.455869778419	1240.7609246289553
6585.827631417956	1261.9745435447733
6587.199678841168	1283.1814014948195
6588.572012107595	1304.3846391280745
6589.944631276783	1325.122854117966
6591.3175364083	1343.0188268443287
6592.690727561718	1355.5479537868534
6594.064204796627	1364.2477367242618
6595.437968172626	1372.0811315835042
6596.812017749329	1379.8936022710577
6598.18635358636	1387.351644690671
6599.5609757433585	1391.497785824312
6600.935884279972	1387.2301340893569
6602.311079255864	1375.0190007214449
6603.686560730708	1360.1578053815574
6605.062328764195	1345.132338371873
6606.43838341602	1330.1742045824244
6607.814724745898	1316.4152906655397
6609.191352813554	1306.9378495620238
6610.568267678725	1302.821403817737
6611.9454694011565	1301.1956950388821
6613.322958040616	1299.851305521211
6614.700733656875	1298.494159472112
6616.07879630972	1296.7028648847777
6617.457146058951	1292.7302757101509
6618.835782964381	1285.154027805682
6620.214707085831	1275.3122141849321
6621.593918483141	1265.0407107137185
6622.973417216159	1254.7605786758609
6624.353203344746	1244.4755114722475
6625.733276928776	1234.1665116092656
6627.113638028136	1223.8065647988772
6628.494286702727	1213.40368183411
6629.8752230124555	1202.9871750379639
6631.25644701725	1192.5680338285451
6632.637958777046	1182.5494830355797
6634.019758351792	1177.5947282187888
6635.401845801448	1188.0665073130526
6636.784221185991	1215.5949970855697
6638.166884565405	1250.0367652778136
6639.54983599969	1285.1039274612663
6640.933075548856	1320.0977554424642
6642.316603272929	1353.0672627590948
6643.700419231944	1377.2215262778348
6645.084523485952	1388.4497102916644
6646.468916095012	1392.545095542299
6647.853597119198	1395.5590277845674
6649.238566618597	1398.5532202075576
6650.623824653309	1400.6439367905666
6652.009371283446	1397.0360261846286
6653.39520656913	1382.3147443590117
6654.781330570499	1359.37300980671
6656.167743347702	1334.4539456951302
6657.554444960899	1309.471961968396
6658.941435470266	1284.7952687707525
6660.328714935989	1263.2316336906338
6661.716283418268	1249.9255459541184
6663.104140977314	1244.6835568432737
6664.492287673351	1242.2338291509413
6665.880723566617	1239.9641016342837
6667.269448717359	1237.6711399145615
6668.658463185843	1234.9703134426013
6670.04776703234	1230.7670414500612
6671.437360317139	1224.6198948074484
6672.827243100539	1217.5297403628063
6674.21741544285	1210.32168903971
6675.607877404403	1203.0743408565504
6676.998629045529	1194.3571369084432
6678.389670426579	1177.8572240210897
6679.781001607919	1148.0144019386448
6681.17262264992	1109.4865651724426
6682.564533612973	1069.2315824252935
6683.956734557476	1028.9373566127856
6685.349225543842	988.288516048163
6686.742006632498	944.8269285633532
6688.135077883879	894.8733722572441
6689.528439358438	839.2990225431315
6690.9220911166385	782.0456576071201
6692.316033218955	724.7004148523619
6693.710265725876	667.1975590167732
6695.104788697902	607.7035010388622
6696.4996021955485	541.9076996394554
6697.894706279339	468.90153634759935
6699.290101009814	392.8502990113409
6700.685786447524	316.49387459822725
6702.081762653035	240.3252680860404
6703.478029686921	169.71838391313517
6704.874587609773	124.29809045179915
6706.27143648219	117.05366829913541
6707.668576364793	131.6921914386603
6709.066007318201	149.89470960673864
6710.46372940306	168.1522588556348
6711.861742680019	187.86437593960991
6713.260047209744	217.20236572922468
6714.658643052912	266.00645327691166
6716.0575302702155	329.71707685682304
6717.4567089223565	397.1915763838107
6718.856179070049	464.8032942328367
6720.255940774021	532.5726132085906
6721.6559940950165	601.9060292093965
6723.056339093787	675.5280063715846
6724.456975831098	753.4786477170423
6725.85790436773	833.0002433594035
6727.259124764472	912.647564705843
6728.660637082132	992.133794718238
6730.062441381524	1068.2237859069478
6731.464537723479	1131.2322781806913
6732.866926168839	1176.7320852728808
6734.269606778457	1213.42354207769
6735.672579613203	1248.9590389795785
6737.075844733956	1284.4725350287902
6738.4794022016085	1318.7619223449651
6739.883252077068	1346.081372009619
6741.2873944212515	1360.9135396047031
6742.691829295089	1367.2953408407088
6744.096556759525	1371.912284905827
6745.5015768755175	1376.4997355101364
6746.906889704033	1381.9018934721773
6748.312495306054	1394.2092733780548
6749.718393742578	1423.0286637830368
6751.124585074607	1466.619021298193
6752.531069363165	1514.8125303848617
6753.937846669282	1563.2604141799743
6755.344917054005	1611.7504777605375
6756.752280578391	1660.7350948011135
6758.159937303512	1711.3423571624028
6759.567887290451	1763.8661971679855
6760.976130600304	1817.2293444322133
6762.384667294178	1870.686112869018
6763.793497433198	1924.004530285784
6765.202621078498	1972.9056084914607
6766.612038291223	2000.915872417887
6768.021749132533	1996.0462718073647
6769.431753663604	1971.5136266637383
6770.842051945616	1943.5338672144637
6772.252644039771	1915.5078966467343
6773.66353000728	1887.5997590947309
6775.074709909365	1860.568320344623
6776.486183807264	1835.397061642926
6777.897951762223	1811.7020102956976
6779.310013835508	1788.3914510167453
6780.722370088391	1765.0898196040341
6782.135020582158	1742.1651668470433
6783.547965378113	1723.5655176167131
6784.961204537568	1717.3433527435113
6786.374738121846	1724.077154332756
6787.788566192289	1735.7240038436798
6789.2026888102455	1747.7614576127733
6790.617106037082	1759.787873899977
6792.031817934173	1771.5248486257021
6793.446824562909	1782.0839265541692
6794.862125984693	1791.0058924532448
6796.27772226094	1799.0739310059507
6797.693613453079	1807.0246451727508
6799.109799622548	1814.959980106626
6800.5262808308025	1822.0285048252936
6801.9430571393095	1823.9938336044202
6803.360128609546	1816.5111743909465
6804.777495303007	1802.3878575816152
6806.195157281196	1786.7812973825964
6807.6131146056305	1771.135810099985
6809.031367337839	1755.7287797837164
6810.449915539369	1742.538531532361
6811.868759271772	1734.9162129372771
6813.287898596622	1732.4807904515894
6814.707333575495	1731.7395947034445
6816.12706426999	1731.0962545660684
6817.547090741715	1730.7656571613559
6818.967413052284	1735.4574887877577
6820.388031263337	1757.557141524764
6821.808945436517	1801.0420618454475
6823.230155633484	1854.3018896447634
6824.651661915907	1908.6581371671264
6826.073464345473	1962.8908033390803
6827.49556298388	2012.6408811314614
6828.917957892834	2040.209360136368
6830.340649134063	2031.675586018848
6831.763636769299	2000.8292841192203
6833.186920860294	1965.8811301230103
6834.610501468806	1930.873963896215
6836.034378656611	1896.3712068060681
6837.458552485498	1865.6783583086146
6838.883023017267	1843.305522659047
6840.307790313729	1827.7457158471448
6841.732854436711	1814.0588577278809
6843.158215448053	1800.444652979779
6844.583873409604	1787.3892790508314
6846.009828383232	1781.1535720341205
6847.436080430813	1795.2577321764036
6848.862629614236	1831.4362517369818
6850.289475995406	1876.3597380120636
6851.716619636238	1922.0397668199705
6853.144060598662	1967.531753568118
6854.57179894462	2008.2755735508072
6855.999834736067	2028.8599258564825
6857.428168034971	2020.4362770135242
6858.856798903312	1996.3000360863205
6860.285727403084	1969.8369397527968
6861.7149535962935	1943.3693067098236
6863.144477544959	1917.7499723130913
6864.5742993111135	1897.3754483236883
6866.004418956804	1887.0579378636653
6867.434836544087	1884.0568003360181
6868.865552135034	1882.771392279232
6870.296565791729	1881.5339929875058
6871.72787757627	1881.125270763283
6873.159487550764	1888.941847111815
6874.591395777338	1918.2560755914162
6876.023602318125	1968.2318882968948
6877.456107235274	2025.2011401155369
6878.888910590949	2082.609281922781
6880.322012447323	2139.537970535881
6881.755412866582	2188.172287587413
6883.18911191093	2207.0435787883025
6884.623109642579	2188.231671986954
6886.057406123754	2151.571201903032
6887.492001416697	2112.7801246995
6888.926895583659	2073.956914258004
6890.362088686906	2034.363049413775
6891.797580788715	1990.7517543258255
6893.233371951381	1940.3440746896338
6894.669462237203	1885.586254036646
6896.105851708503	1829.986482990428
6897.542540427609	1774.370500093859
6898.979528456865	1719.842527315018
6900.416815858628	1673.9427558047842
6901.854402695265	1647.660786138913
6903.29228902916	1638.1231999974664
6904.730474922708	1633.4828473160685
6906.168960438317	1629.0706246904747
6907.607745638409	1624.9161238602749
6909.0468305854165	1624.2575737046855
6910.48621534179	1634.583745550395
6911.925899969986	1657.3058687206997
6913.365884532479	1685.1422570375896
6914.806169091757	1713.4473748907662
6916.246753710318	1741.7641152092854
6917.687638450675	1770.2331642886197
6919.128823375352	1799.3532691534215
6920.570308546889	1829.441180822604
6922.012094027836	1860.0787541070074
6923.454179880759	1890.8096373825472
6924.896566168235	1921.5337762732545
6926.339252952854	1951.2418130883427
6927.782240297219	1974.273253277435
6929.225528263946	1983.9826790414395
6930.669116915669	1983.6586609292578
6932.113006315028	1980.877292245252
6933.557196524675	1978.0213858002217
6935.001687607285	1975.120187642747
6936.446479625538	1971.7577634649203
6937.8915726421255	1967.1531265339254
6939.33696671976	1961.3148107046331
6940.782661921161	1955.0378127135111
6942.228658309061	1948.7291812178482
6943.67495594621	1942.6210765083167
6945.121554895365	1940.2718170775267
6946.568455219301	1952.092383647757
6948.015656980806	1982.5578603301133
6949.463160242676	2022.2197693184598
6950.910965067728	2063.053764938148
6952.359071518784	2103.8804627388186
6953.807479658683	2143.9021813667205
6955.256189550279	2179.4871612271954
6956.705201256435	2207.295096904527
6958.154514840031	2229.935638331196
6959.604130363956	2251.520797362718
6961.054047891116	2273.087036663189
6962.504267484427	2294.1022975981764
6963.954789206819	2310.5007762689356
6965.405613121237	2316.000570656114
6966.856739290638	2311.881615080003
6968.30816777799	2304.8270815170104
6969.759898646277	2297.62280561604
6971.211931958496	2290.496752978556
6972.6642677776545	2284.515154987824
6974.116906166776	2282.2591594110118
6975.569847188894	2284.3369600063947
6977.023090907059	2288.270518430387
6978.47663738433	2292.3869342446314
6979.930486683786	2296.469480573266
6981.3846388685115	2299.5752086357975
6982.83909400161	2298.1701468733377
6984.293852146194	2289.789753398426
6985.748913365391	2277.3148404889716
6987.204277722341	2264.143201816272
6988.659945280201	2250.97999054663
6990.115916102135	2239.5908380937353
6991.572190251322	2240.505726588998
6993.028767790958	2266.8806806123744
6994.485648784248	2313.065973661095
6995.942833294413	2364.323520894705
6997.400321384683	2415.760047205358
6998.858113118305	2466.7465607615927
7000.316208558537	2512.6966048688223
7001.774607768653	2544.490288915857
7003.23331081194	2561.6917456157016
7004.692317751692	2573.4639360279007
7006.151628651223	2584.8249840097833
7007.6112435738605	2596.069932201427
7009.071162582939	2604.800132138421
7010.5313857418105	2603.5245503542856
7011.9919131138395	2588.5967271852246
7013.452744762405	2566.702912549897
7014.913880750897	2543.8812163505186
7016.375321142722	2521.0282635340163
7017.837066001293	2497.0530895719294
7019.299115390043	2466.727111928873
7020.761469372417	2424.9186345664925
7022.224128011869	2375.2101220280874
7023.687091371872	2323.7845787622746
7025.150359515908	2272.3118055388054
7026.613932507475	2221.758205465874
7028.07781041008	2179.599627252115
7029.541993287248	2158.1881142668817
7031.0064812025175	2155.7433842931428
7032.471274219435	2159.3118826963637
7033.936372401564	2163.201726544975
7035.401775812481	2167.3471396672317
7036.867484515776	2175.3813437303966
7038.33349857505	2196.6033203452007
7039.79981805392	2233.7777180047806
7041.266443016016	2278.1311785065927
7042.733373524977	2323.27201841956
7044.200609644461	2368.3213521158123
7045.668151438137	2410.127810627219
7047.135998969687	2436.1797332883243
7048.604152302806	2437.0445257463684
7050.072611501203	2422.6760292064364
7051.541376628598	2405.6188751673753
7053.010447748729	2388.539746137065
7054.479824925345	2372.6718263731977
7055.949508222204	2365.539543419875
7057.419497703085	2377.0850436995697
7058.889793431773	2403.6883195935384
