#wavelength (Angstrom)	surface_flux (erg / (Angstrom cm2 s))
6300.0	0.5613345513304089
6301.3125	0.8363104629118742
6302.6252734375	0.9849330425322368
6303.938320369467	1.0014597973037593
6305.251640852877	1.010769501434784
6306.565234944722	1.0201496048519794
6307.8791027020025	1.0295496561944024
6309.193244181732	1.038952332190013
6310.5076594409375	1.048366127074061
6311.822348536654	1.0578861476561985
6313.137311525933	1.0677068771331442
6314.452548465834	1.0778424502257176
6315.768059413431	1.0880985069639075
6317.083844425809	1.0983658978770023
6318.399903560065	1.1086365273744556
6319.716236873307	1.1189328021787919
6321.032844422655	1.1293258961733081
6322.349726265244	1.1398523994062655
6323.666882458216	1.150449593643153
6324.984313058728	1.1610585726943636
6326.302018123949	1.1716698526277505
6327.619997711058	1.1822855673821688
6328.938251877249	1.1929165322963544
6330.256780679723	1.2035738333904604
6331.575584175699	1.2142502914309825
6332.894662422402	1.2249327377121977
6334.214015477073	1.2356175203676498
6335.533643396964	1.2463136950756117
6336.853546239339	1.257095729523195
6338.173724061472	1.2680882973645127
6339.494176920652	1.2792754656868677
6340.814904874177	1.2905269591294595
6342.135907979359	1.3017842822733072
6343.457186293522	1.3130481542464432
6344.778739874001	1.324379427166921
6346.100568778142	1.3359358472442635
6347.422673063304	1.3477663369276092
6348.745052786858	1.3597225428964281
6350.067708006189	1.3716947946355107
6351.39063877869	1.3836703105319048
6352.713845161769	1.3956744805116519
6354.037327212845	1.4078117197645297
6355.3610849893485	1.420164519218005
6356.685118548721	1.432651367676565
6358.009427948419	1.445164744200143
6359.334013245908	1.457681076191596
6360.658874498668	1.4702047095365205
6361.984011764189	1.4827656101125426
6363.309425099973	1.4954047187587693
6364.635114563535	1.5081085997522712
6365.961080212403	1.5208324011188568
6367.2873221041145	1.5335595703134364
6368.61384029622	1.5462926027749744
6369.940634846282	1.559068695014819
6371.267705811875	1.5719688137255512
6372.595053250586	1.5850031470949104
6373.922677220014	1.5980917525143077
6375.250577777768	1.6111872890848755
6376.578754981471	1.6242881342460402
6377.907208888761	1.6374498937501363
6379.235939557279	1.6508567036334036
6380.564947044686	1.6646122940224395
6381.894231408654	1.6785575961960066
6383.223792706865	1.692533567631547
6384.553630997012	1.7065129676807493
6385.883746336804	1.720517107902013
6387.2141387839565	1.7346603000893994
6388.544808396204	1.749068020942601
6389.875755231287	1.7636682637303747
6391.20697934696	1.7783152371741626
6392.53848080099	1.7929663641744567
6393.870259651158	1.8076234209563549
6395.202315955253	1.8223110108716813
6396.534649771077	1.8370725216372021
6397.867261156446	1.8519048808523613
6399.2001501691875	1.866763304750648
6400.533316867139	1.881626278559302
6401.866761308153	1.8964953924074537
6403.200483550093	1.9114201713262262
6404.534483650832	1.9265377988683914
6405.868761668259	1.941899049944011
6407.2033176602745	1.957376928079448
6408.5381516847865	1.9728712257788568
6409.873263799722	1.988369334719373
6411.2086540630135	2.0038915847644034
6412.544322532611	2.019525068135764
6413.880269266471	2.035343629794486
6415.216494322568	2.051281846768075
6416.552997758886	2.067245964551538
6417.8897796334195	2.083213852199829
6419.226840004177	2.0991957107735546
6420.5641789291785	2.115264827548274
6421.9017964664545	2.1315280234254694
6423.239692674053	2.1479569359368393
6424.577867610025	2.1644363187695483
6425.9163213324455	2.180921228174615
6427.25505389939	2.1974088541880525
6428.594065368952	2.2138904823487033
6429.933355799238	2.230346194511349
6431.272925248362	2.2467723531099884
6432.612773774456	2.263188335526267
6433.9529014356585	2.279606484879258
6435.293308290125	2.2960289921582473
6436.63399439602	2.3124786363097707
6437.974959811519	2.329035993147187
6439.316204594813	2.3457519512339373
6440.657728804104	2.3625587202909504
6441.999532497605	2.3793827903897586
6443.341615733541	2.396210840692269
6444.683978570154	2.413069280118305
6446.026621065689	2.4301059776270253
6447.369543278411	2.4474933887371733
6448.7127452665945	2.465145098016736
6450.056227088525	2.482864178461388
6451.399988802502	2.5005888799276246
6452.744030466836	2.5183139757508135
6454.088352139851	2.5360091166556207
6455.43295387988	2.553617500893234
6456.777835745272	2.571139839119041
6458.122997794385	2.5886340186267796
6459.468440085592	2.606129658348655
6460.814162677278	2.6236260793575368
6462.160165627836	2.6410717810279807
6463.506448995675	2.6583154883582814
6464.853012839217	2.6752921302250874
6466.199857216891	2.692139054904931
6467.546982187145	2.7089727059012874
6468.894387808435	2.7258118228819606
6470.242074139227	2.7427354091093448
6471.590041238007	2.7600992907541335
6472.938289163264	2.778227693838666
6474.286817973508	2.7968640168597427
6475.6356277272525	2.815607273265407
6476.984718483029	2.834356765815101
6478.334090299379	2.8532058456621305
6479.683743234858	2.872866966732305
6481.033677348033	2.894444491469998
6482.38389269748	2.9177104053815484
6483.734389341793	2.9414902757310166
6485.085167339573	2.965299804129159
6486.436226749436	2.9891259053823918
6487.787567630007	3.013119649042887
6489.139190039932	3.0376457618282164
6490.491094037857	3.0627915900057876
6491.843279682447	3.088207446919788
6493.195747032382	3.1136551276128412
6494.548496146348	3.1391070048814296
6495.901527083045	3.1645314177546284
6497.254839901187	3.1898091545191387
6498.6084346595	3.214858243730157
6499.962311416722	3.2397769315921696
6501.316470231601	3.2646785926906143
6502.670911162898	3.2895842931011243
6504.025634269391	3.3144174235074066
6505.3806396098635	3.3387294704483272
6506.735927243117	3.3619663126749866
6508.091497227958	3.3843688828912026
6509.447349623215	3.406560258416229
6510.80348448772	3.4287487255332354
6512.159901880322	3.4508892069452224
6513.51660185988	3.4724374593534435
6514.873584485267	3.4922966804084687
6516.23084981537	3.510409874792186
6517.58839790908	3.5278786521177277
6518.946228825313	3.5453037180900435
6520.304342622985	3.56278268970142
6521.662739361031	3.5812754803417195
6523.021419098398	3.6037395336679547
6524.380381894044	3.631614601524111
6525.739627806938	3.6622713006290497
6527.099156896065	3.693313385254427
6528.458969220418	3.7243585646118205
6529.819064839006	3.7551630369301447
6531.179443810848	3.7845551193669147
6532.540106194976	3.8113778009485526
6533.9010520504335	3.836436235839044
6535.262281436278	3.861120919248916
6536.6237944115765	3.885802907997711
6537.985591035413	3.9104927423882425
6539.347671366879	3.9352113888892517
6540.71003546508	3.9599928639517357
6542.072683389135	3.9848319122080023
6543.435615198176	4.009692757318052
6544.798830951341	4.0345596972075315
6546.162330707791	4.059442550286265
6547.526114526688	4.084494049576914
6548.890182467215	4.1101038318231495
6550.254534588562	4.136384979763281
6551.619170949934	4.162968623630703
6552.984091610549	4.189589173108278
6554.349296629635	4.216218358902123
6555.7147860664345	4.242950193985552
6557.080559980198	4.27015692981161
6558.446618430195	4.298119949035686
6559.8129614757	4.326544402449634
6561.1795891760075	4.3550561561963725
6562.54650159042	4.383572778946088
6563.913698778251	4.411878396432025
6565.281180798831	4.438617294038581
6566.648947711497	4.461980396521638
6568.016999575604	4.482610246563328
6569.385336450516	4.502501074529192
6570.753958395609	4.522367332257942
6572.122865470276	4.542344449260796
6573.492057733915	4.563588263982299
6574.861535245943	4.5885223806149575
6576.231298065786	4.617377505387856
6577.601346252884	4.647745128034474
6578.971679866686	4.67823996478678
6580.342298966659	4.708755354288154
6581.7132036122775	4.73958954541102
6583.08439386303	4.771716486251985
6584.455869778419	4.805669277680474
6585.827631417956	4.8406004571471275
6587.199678841168	4.87568002105817
6588.572012107595	4.910763384905876
6589.944631276783	4.945602884256475
6591.3175364083	4.978926590481621
6592.690727561718	5.009383717300077
6594.064204796627	5.037796904971997
6595.437968172626	5.0657514819825
6596.812017749329	5.093700500264199
6598.18635358636	5.121686978095922
6599.5609757433585	5.149973698769135
6600.935884279972	5.1790139848320305
6602.311079255864	5.2087660486938105
6603.686560730708	5.2387595523393
6605.062328764195	5.26877362566147
6606.43838341602	5.2988181988530005
6607.814724745898	5.329282762649138
6609.191352813554	5.3612279409105685
6610.568267678725	5.395025205561295
6611.9454694011565	5.429686884437576
6613.322958040616	5.464452704743642
6614.700733656875	5.49922135233132
6616.07879630972	5.53384377853001
6617.457146058951	5.567701993040385
6618.835782964381	5.600292885807506
6620.214707085831	5.632089761975976
6621.593918483141	5.6637419999815295
6622.973417216159	5.695398575858916
6624.353203344746	5.727067400888489
6625.733276928776	5.758786926779384
6627.113638028136	5.790611831363892
6628.494286702727	5.822525901134165
6629.8752230124555	5.854469807942366
6631.25644701725	5.886421309497521
6632.637958777046	5.918420964394888
6634.019758351792	5.950949227682393
6635.401845801448	5.985073781562993
6636.784221185991	6.020962585826615
6638.166884565405	6.057570556364757
6639.54983599969	6.094249849098213
6640.933075548856	6.1309334617933375
6642.316603272929	6.167541012287541
6643.700419231944	6.203792708573105
6645.084523485952	6.239519181210045
6646.468916095012	6.274959121292687
6647.853597119198	6.310361852484115
6649.238566618597	6.345770965029712
6650.623824653309	6.381140285632373
6652.009371283446	6.416219642357396
6653.39520656913	6.450726537766806
6654.781330570499	6.4848119032364915
6656.167743347702	6.518801457601796
6657.554444960899	6.552794967097381
6658.941435470266	6.586738850623221
6660.328714935989	6.620120306722619
6661.716283418268	6.651999761712262
6663.104140977314	6.68241254779685
6664.492287673351	6.712321499694381
6665.880723566617	6.7422037146897065
6667.269448717359	6.772086929978836
6668.658463185843	6.801882849902785
6670.04776703234	6.831340200440254
6671.437360317139	6.86035764707569
6672.827243100539	6.889164953217383
6674.21741544285	6.917951535200535
6675.607877404403	6.94673080579655
6676.998629045529	6.974997496269661
6678.389670426579	7.000522097256763
6679.781001607919	7.021340913872173
6681.17262264992	7.039098976350802
6682.564533612973	7.05625359694724
6683.956734557476	7.073395289537931
6685.349225543842	7.089393112641054
6686.742006632498	7.096100345702109
6688.135077883879	7.081323339804492
6689.528439358438	7.04794934589182
6690.9220911166385	7.009042188467387
6692.316033218955	6.9698619444956575
6693.710265725876	6.927127366098424
6695.104788697902	6.836200676082986
6696.4996021955485	6.592143897293864
6697.894706279339	6.1728372128146365
6699.290101009814	5.679682593072373
6700.685786447524	5.179381316077841
6702.081762653035	4.680720403896388
6703.478029686921	4.229719056927341
6704.874587609773	3.994433976924105
6706.27143648219	4.08609830227833
6707.668576364793	4.365188286012076
6709.066007318201	4.6748304118804915
6710.46372940306	4.984803622756673
6711.861742680019	5.294366143620407
6713.260047209744	5.600841083241448
6714.658643052912	5.901004815108734
6716.0575302702155	6.196351057295402
6717.4567089223565	6.490530139114921
6718.856179070049	6.784730110357015
6720.255940774021	7.077019161720709
6721.6559940950165	7.348069048670454
6723.056339093787	7.5604397908649945
6724.456975831098	7.713580338960971
6725.85790436773	7.845387648240972
6727.259124764472	7.975722340526865
6728.660637082132	8.105825585023322
6730.062441381524	8.23098897070875
6731.464537723479	8.337116636563739
6732.866926168839	8.41776528643837
6734.269606778457	8.485597329174594
6735.672579613203	8.551750002304308
6737.075844733956	8.617901075688355
6738.4794022016085	8.683617590091073
6739.883252077068	8.746807731246113
6741.2873944212515	8.805462866581976
6742.691829295089	8.861052670981262
6744.096556759525	8.916011061700898
6745.5015768755175	8.97096786717336
6746.906889704033	9.025820585221618
6748.312495306054	9.079704484759338
6749.718393742578	9.131255592843461
6751.124585074607	9.180721105867779
6752.531069363165	9.229544656428057
6753.937846669282	9.278343687850159
6755.344917054005	9.327144696381211
6756.752280578391	9.37583222637432
6758.159937303512	9.42411836015449
6759.567887290451	9.471928080698115
6760.976130600304	9.519536339935547
6762.384667294178	9.567133460292878
6763.793497433198	9.614738431145044
6765.202621078498	9.662292128789044
6766.612038291223	9.709566929888625
6768.021749132533	9.756397175499478
6769.431753663604	9.80296549357724
6770.842051945616	9.849495952856303
6772.252644039771	9.896035345943254
6773.66353000728	9.942564647061129
6775.074709909365	9.988962438315962
6776.486183807264	10.035071362987287
6777.897951762223	10.08095285913612
6779.310013835508	10.126781604743742
6780.722370088391	10.172617703055101
6782.135020582158	10.2184777647971
6783.547965378113	10.264510830367582
6784.961204537568	10.311020883825803
6786.374738121846	10.358029764962902
6787.788566192289	10.405233854750094
6789.2026888102455	10.452462432476251
6790.617106037082	10.4997019311491
6792.031817934173	10.546974584837745
6793.446824562909	10.59435134329003
6794.862125984693	10.641868879263255
6796.27772226094	10.689464653586864
6797.693613453079	10.73707984686995
6799.109799622548	10.784704562891699
6800.5262808308025	10.832316329493626
6801.9430571393095	10.879803582287481
6803.360128609546	10.927051901978414
6804.777495303007	10.974135222482037
6806.195157281196	11.02118936785397
6807.6131146056305	11.068252403466317
6809.031367337839	11.115341029758895
6810.449915539369	11.162584448158215
6811.868759271772	11.2102015156145
6813.287898596622	11.258167349886476
6814.707333575495	11.30625385578036
6816.12706426999	11.354356780479842
6817.547090741715	11.402473099000607
6818.967413052284	11.450653577332977
6820.388031263337	11.499031714939385
6821.808945436517	11.547650385295595
6823.230155633484	11.596384446872541
6824.651661915907	11.645140359669242
6826.073464345473	11.69390425934806
6827.49556298388	11.74260632296463
6828.917957892834	11.790963002079467
6830.340649134063	11.83875128016568
6831.763636769299	11.886192080339054
6833.186920860294	11.933577152429574
6834.610501468806	11.980971265165662
6836.034378656611	12.028383129345073
6837.458552485498	12.075863635298207
6838.883023017267	12.12348221826348
6840.307790313729	12.17121568026689
6841.732854436711	12.218987970736917
6843.158215448053	12.26677137286135
6844.583873409604	12.314559244413111
6846.009828383232	12.362290441751282
6847.436080430813	12.409832923534333
6848.862629614236	12.457169752121223
6850.289475995406	12.504431109492542
6851.716619636238	12.551695015704334
6853.144060598662	12.598963846869108
6854.57179894462	12.646124000478947
6855.999834736067	12.692791543156499
6857.428168034971	12.738746037041752
6858.856798903312	12.784318707177329
6860.285727403084	12.82984302889339
6861.7149535962935	12.875380199928413
6863.144477544959	12.921144647028967
6864.5742993111135	12.968257827486873
6866.004418956804	13.01794723246627
6867.434836544087	13.069513786120861
6868.865552135034	13.121528887755128
6870.296565791729	13.173566948359792
6871.72787757627	13.22549023243608
6873.159487550764	13.276177849266338
6874.591395777338	13.323618492592086
6876.023602318125	13.36793886340618
6877.456107235274	13.411210251204432
6878.888910590949	13.454425942540583
6880.322012447323	13.497656571944066
6881.755412866582	13.540996522101864
6883.18911191093	13.584705071891296
6884.623109642579	13.6288778751538
6886.057406123754	13.67327539088162
6887.492001416697	13.717707795198082
6888.926895583659	13.762145601251676
6890.362088686906	13.80643637430119
6891.797580788715	13.849914677434061
6893.233371951381	13.892010955565208
6894.669462237203	13.933226577980182
6896.105851708503	13.974280564102994
6897.542540427609	14.01533943753185
6898.979528456865	14.056230633150843
6900.416815858628	14.095745690268371
6901.854402695265	14.132123313322946
6903.29228902916	14.165824024815738
6904.730474922708	14.198746562053088
6906.168960438317	14.231639122172304
6907.607745638409	14.263570306839158
6909.0468305854165	14.282417738671072
6910.48621534179	14.260147045002858
6911.925899969986	14.191475259815624
6913.365884532479	14.103661529575616
6914.806169091757	14.014096515510932
6916.246753710318	13.924748067297918
6917.687638450675	13.841395990155908
6919.128823375352	13.784530411325063
6920.570308546889	13.767164458869114
6922.012094027836	13.772119287344827
6923.454179880759	13.780646404224935
6924.896566168235	13.789246442889745
6926.339252952854	13.80074570591428
6927.782240297219	13.83118415315783
6929.225528263946	13.899392688844763
6930.669116915669	13.996052603804964
6932.113006315028	14.09969577780028
6933.557196524675	14.203569740786971
6935.001687607285	14.3071269000902
6936.446479625538	14.407217802323924
6937.8915726421255	14.497928813440419
6939.33696671976	14.57932455732488
6940.782661921161	14.657424762813942
6942.228658309061	14.735311611925347
6943.67495594621	14.813119426907127
6945.121554895365	14.889168833895184
6946.568455219301	14.95854628973179
6948.015656980806	15.019139745591607
6949.463160242676	15.075408490115276
6950.910965067728	15.13113968128661
6952.359071518784	15.186920071067044
6953.807479658683	15.244396503882605
6955.256189550279	15.31108899933594
6956.705201256435	15.393914084616945
6958.154514840031	15.487468158491561
6959.604130363956	15.583236791037638
6961.054047891116	15.679065765209376
6962.504267484427	15.77452307247117
6963.954789206819	15.866742148973458
6965.405613121237	15.9512939859802
6966.856739290638	16.029080995971917
6968.30816777799	16.104815107340215
6969.759898646277	16.18046045803092
6971.211931958496	16.255753450461057
6972.6642677776545	16.325770877723997
6974.116906166776	16.378594569430074
6975.569847188894	16.411416258151018
6977.023090907059	16.43567802128228
6978.47663738433	16.459104298526274
6979.930486683786	16.482558635895337
6981.3846388685115	16.506685117449383
6982.83909400161	16.533895675979863
6984.293852146194	16.565872359710642
6985.748913365391	16.600649018613662
6987.204277722341	16.635906663437463
6988.659945280201	16.671180892654533
6990.115916102135	16.706869658417354
6991.572190251322	16.745386107891285
6993.028767790958	16.789745195772582
6994.485648784248	16.83865218153501
6995.942833294413	16.888729554636306
6997.400321384683	16.938855395811476
6998.858113118305	16.988282688116506
7000.316208558537	17.0299535674026
7001.774607768653	17.049833900661426
7003.23331081194	17.047252952829417
7004.692317751692	17.036311133295655
7006.151628651223	17.02473057413724
7007.6112435738605	17.0131586210774
7009.071162582939	17.001818374576246
7010.5313857418105	16.991406583396433
7011.9919131138395	16.98226240828431
7013.452744762405	16.973763953362432
7014.913880750897	16.965349606965308
7016.375321142722	16.95698711034623
7017.837066001293	16.9511159954641
7019.299115390043	16.9594015568712
7020.761469372417	16.993292929232865
7022.224128011869	17.04479740582316
7023.687091371872	17.100120311511105
7025.150359515908	17.15554264464087
7026.613932507475	17.21165645006552
7028.07781041008	17.27392795665595
7029.541993287248	17.351388791245302
7031.0064812025175	17.44273724309161
7032.471274219435	17.53850187772273
7033.936372401564	17.63452088254247
7035.401775812481	17.72989627232999
7036.867484515776	17.81516390721602
7038.33349857505	17.86610096330616
7039.79981805392	17.87550583871948
7041.266443016016	17.866232175166157
7042.733373524977	17.854929612463582
7044.200609644461	17.843772574412736
7045.668151438137	17.837417870956177
7047.135998969687	17.854349344714908
7048.604152302806	17.908502044088582
7050.072611501203	17.98517087235304
7051.541376628598	18.065823282931824
7053.010447748729	18.146515352707834
7054.479824925345	18.22498023426355
7055.949508222204	18.28731830734939
7057.419497703085	18.315163780802795
7058.889793431773	18.315203775298446
