#wavelength (Angstrom)	surface_flux (erg / (Angstrom cm2 s))
6300.0	5.215857739632715
6301.3125	7.752034125803011
6302.6252734375	9.172096521565466
6303.938320369467	9.45229759165423
6305.251640852877	9.63639241944259
6306.565234944722	9.76861994174865
6307.8791027020025	9.897575909330774
6309.193244181732	9.977002147274993
6310.5076594409375	9.813068064422227
6311.822348536654	9.662419585971968
6313.137311525933	10.069284317718624
6314.452548465834	10.619126675402876
6315.768059413431	10.873884952958363
6317.083844425809	11.042659792832724
6318.399903560065	11.204982318881536
6319.716236873307	11.373170716538835
6321.032844422655	11.549372999884971
6322.349726265244	11.724586017877355
6323.666882458216	11.898760759079453
6324.984313058728	12.074625547007267
6326.302018123949	12.252524840891294
6327.619997711058	12.431794644329122
6328.938251877249	12.611688076405095
6330.256780679723	12.789342840392624
6331.575584175699	12.94008372224749
6332.894662422402	13.024737175726186
6334.214015477073	13.167277589799173
6335.533643396964	13.453690974466065
6336.853546239339	13.713157486570054
6338.173724061472	13.88271192012564
6339.494176920652	14.069081567982185
6340.814904874177	14.306207462658847
6342.135907979359	14.537052033739005
6343.457186293522	14.744955076554778
6344.778739874001	14.952948947858966
6346.100568778142	15.163351172116641
6347.422673063304	15.375395571733272
6348.745052786858	15.589152674354596
6350.067708006189	15.80532126641997
6351.39063877869	16.023975309240548
6352.713845161769	16.24421180408018
6354.037327212845	16.4666743541372
6355.3610849893485	16.69187869175216
6356.685118548721	16.918638736898814
6358.009427948419	17.147170264238067
6359.334013245908	17.377828560189297
6360.658874498668	17.610415829129373
6361.984011764189	17.845898979915972
6363.309425099973	18.0815084274741
6364.635114563535	18.318980202108413
6365.961080212403	18.56507807643976
6367.2873221041145	18.809103218880825
6368.61384029622	19.04073661765188
6369.940634846282	19.28897761758895
6371.267705811875	19.560342959363933
6372.595053250586	19.820510123496238
6373.922677220014	20.06415149815971
6375.250577777768	20.322635251240822
6376.578754981471	20.6082131868662
6377.907208888761	20.89201535849583
6379.235939557279	21.16415871585752
6380.564947044686	21.436918872316898
6381.894231408654	21.715457396718506
6383.223792706865	21.99746004533028
6384.553630997012	22.282095646723786
6385.883746336804	22.57225151757741
6387.2141387839565	22.8607421026493
6388.544808396204	23.142488675100953
6389.875755231287	23.434028862594488
6391.20697934696	23.743372528092305
6392.53848080099	24.05551670231443
6393.870259651158	24.369331097520266
6395.202315955253	24.683602664758226
6396.534649771077	24.97984250150568
6397.867261156446	25.27203696618141
6399.2001501691875	25.603926752336648
6400.533316867139	25.954008519685157
6401.866761308153	26.28507459318511
6403.200483550093	26.612930271673903
6404.534483650832	26.947211677734355
6405.868761668259	27.282268564916524
6407.2033176602745	27.614735199645995
6408.5381516847865	27.945216825761168
6409.873263799722	28.275769332994386
6411.2086540630135	28.618659636465434
6412.544322532611	28.972380094331612
6413.880269266471	29.318917207960876
6415.216494322568	29.662867538355517
6416.552997758886	30.014699330999306
6417.8897796334195	30.370355834251864
6419.226840004177	30.72590607868552
6420.5641789291785	31.076279241278606
6421.9017964664545	31.363838590969777
6423.239692674053	31.568204558109674
6424.577867610025	31.92664074658673
6425.9163213324455	32.447137499454676
6427.25505389939	32.87956172421396
6428.594065368952	33.2599528382558
6429.933355799238	33.65596489989813
6431.272925248362	34.04032699162799
6432.612773774456	34.402815334494086
6433.9529014356585	34.58949832070208
6435.293308290125	34.286964355120574
6436.63399439602	34.28233824005298
6437.974959811519	35.26778069620933
6439.316204594813	36.22970669924014
6440.657728804104	36.70632827383319
6441.999532497605	37.10092665626435
6443.341615733541	37.545273730343624
6444.683978570154	37.999103611245495
6446.026621065689	38.4246022635299
6447.369543278411	38.853354696867115
6448.7127452665945	39.28230513409163
6450.056227088525	39.698627313767346
6451.399988802502	40.120739939732225
6452.744030466836	40.55976165171801
6454.088352139851	40.99375005276398
6455.43295387988	41.420151938384336
6456.777835745272	41.831462127853236
6458.122997794385	41.99164282967503
6459.468440085592	41.877821952101385
6460.814162677278	42.36099947191567
6462.160165627836	43.39367332884561
6463.506448995675	44.11466608213975
6464.853012839217	44.6051535652137
6466.199857216891	45.06823326717527
6467.546982187145	45.42701535927701
6468.894387808435	45.71920092817142
6470.242074139227	46.241887166134504
6471.590041238007	46.938702034662406
6472.938289163264	47.51706248331924
6474.286817973508	48.00872149066444
6475.6356277272525	48.50652641352361
6476.984718483029	49.00636616930717
6478.334090299379	49.510496485265726
6479.683743234858	50.00623959896654
6481.033677348033	50.48454014256195
6482.38389269748	51.00788164669187
6483.734389341793	51.553384151124874
6485.085167339573	52.0763547882672
6486.436226749436	52.60096649774155
6487.787567630007	53.13679933601263
6489.139190039932	53.67597290093853
6490.491094037857	54.208119199521555
6491.843279682447	54.730283653797834
6493.195747032382	55.27129049962895
6494.548496146348	55.84489488658408
6495.901527083045	56.423044341222685
6497.254839901187	56.98105761349455
6498.6084346595	57.51936482780439
6499.962311416722	58.065043759036776
6501.316470231601	58.63539495884945
6502.670911162898	59.21534286490739
6504.025634269391	59.79742046861845
6505.3806396098635	60.3801995911637
6506.735927243117	60.974933525817924
6508.091497227958	61.51223875982228
6509.447349623215	61.64734698501857
6510.80348448772	61.634774763883684
6512.159901880322	62.494828547795514
6513.51660185988	63.75106344131352
6514.873584485267	64.5345525914637
6516.23084981537	65.12127878205223
6517.58839790908	65.62895235353191
6518.946228825313	66.11758931512882
6520.304342622985	66.78427779957119
6521.662739361031	67.5561906723175
6523.021419098398	68.26294852374438
6524.380381894044	68.91696804165095
6525.739627806938	69.55552774066095
6527.099156896065	70.18631684877114
6528.458969220418	70.76554329829939
6529.819064839006	71.33163262918619
6531.179443810848	72.00135383068181
6532.540106194976	72.64957679920629
6533.9010520504335	73.18497539703094
6535.262281436278	73.84571521157358
6536.6237944115765	74.63240423399472
6537.985591035413	75.38532238701626
6539.347671366879	76.08102248852671
6540.71003546508	76.76618660467653
6542.072683389135	77.5041731563053
6543.435615198176	78.23550154857175
6544.798830951341	78.88501816646162
6546.162330707791	79.4785849270352
6547.526114526688	80.19227765933755
6548.890182467215	81.01760300785544
6550.254534588562	81.7871753640561
6551.619170949934	82.4376922800056
6552.984091610549	82.96252606143452
6554.349296629635	83.65803499326992
6555.7147860664345	84.5887971947406
6557.080559980198	85.44889773789035
6558.446618430195	86.211290497421
6559.8129614757	86.96491073827326
6561.1795891760075	87.71815992358556
6562.54650159042	88.43017199453271
6563.913698778251	89.13775474676318
6565.281180798831	89.89735763746796
6566.648947711497	90.71321732991217
6568.016999575604	91.55796182549749
6569.385336450516	92.39909178368721
6570.753958395609	93.2206713797852
6572.122865470276	94.00019247224066
6573.492057733915	94.76735630190306
6574.861535245943	95.52671565521152
6576.231298065786	96.24116060270293
6577.601346252884	96.90550411639951
6578.971679866686	96.92762698181609
6580.342298966659	95.44934566155911
6581.7132036122775	95.29697980986593
6583.08439386303	98.2858229072762
6584.455869778419	100.65741331573976
6585.827631417956	101.59146880222237
6587.199678841168	102.72243835363395
6588.572012107595	103.72656685053997
6589.944631276783	104.5325195814413
6591.3175364083	105.39052036884799
6592.690727561718	106.31960769097188
6594.064204796627	107.24497031567684
6595.437968172626	108.11216290361708
6596.812017749329	108.93843091250892
6598.18635358636	109.80003222139783
6599.5609757433585	110.70505799139832
6600.935884279972	111.53373501864074
6602.311079255864	112.3530135071696
6603.686560730708	113.26540060225082
6605.062328764195	113.8744552537686
6606.43838341602	113.89386624243488
6607.814724745898	114.40087610262741
6609.191352813554	115.95939796574054
6610.568267678725	117.56425897907418
6611.9454694011565	118.69206267784767
6613.322958040616	119.60722002607395
6614.700733656875	120.52723913256254
6616.07879630972	121.4984999098359
6617.457146058951	122.52402768722109
6618.835782964381	123.50195471594066
6620.214707085831	124.4287969811791
6621.593918483141	125.35444085419402
6622.973417216159	126.23568129166665
6624.353203344746	127.04591681629417
6625.733276928776	127.96760652901287
6627.113638028136	128.97866871122054
6628.494286702727	129.56650861426553
6629.8752230124555	129.38270469176538
6631.25644701725	129.8127300314964
6632.637958777046	131.81753584754975
6634.019758351792	133.73364658885373
6635.401845801448	134.87792814885674
6636.784221185991	135.86197982001653
6638.166884565405	136.82352007922827
6639.54983599969	137.79940729818108
6640.933075548856	138.7531200542521
6642.316603272929	139.66755062920512
6643.700419231944	140.61563934121932
6645.084523485952	141.71108202736738
6646.468916095012	142.8750692289612
6647.853597119198	143.94048829965064
6649.238566618597	144.93554580155592
6650.623824653309	145.87745663158552
6652.009371283446	146.5851411254561
6653.39520656913	147.2272679659911
6654.781330570499	148.31075830419152
6656.167743347702	149.55149779424565
6657.554444960899	150.4914022034847
6658.941435470266	151.46305286266872
6660.328714935989	152.57669204830384
6661.716283418268	153.62831439216333
6663.104140977314	154.69365458948812
6664.492287673351	155.79465128694986
6665.880723566617	156.76847144039792
6667.269448717359	157.63886648617114
6668.658463185843	158.7204138651869
6670.04776703234	159.9464361594036
6671.437360317139	161.03010164180012
6672.827243100539	161.89470672199514
6674.21741544285	162.7629813148469
6675.607877404403	163.96007047649312
6676.998629045529	165.21082363314142
6678.389670426579	166.3061646086604
6679.781001607919	167.32525001434544
6681.17262264992	168.17042331151455
6682.564533612973	168.94854243591195
6683.956734557476	169.91975051977556
6685.349225543842	171.1304907633224
6686.742006632498	172.32221834458508
6688.135077883879	173.2738556217013
6689.528439358438	174.28524744648297
6690.9220911166385	175.51152084225666
6692.316033218955	176.67116714129145
6693.710265725876	177.71059322622617
6695.104788697902	178.73424483814452
6696.4996021955485	179.7783761564645
6697.894706279339	180.87245713065644
6699.290101009814	181.96523910130108
6700.685786447524	182.9584088556309
6702.081762653035	183.79863591135728
6703.478029686921	184.2394413046829
6704.874587609773	183.20930571758163
6706.27143648219	179.83290626453922
6707.668576364793	165.66447656371273
6709.066007318201	133.7547444086217
6710.46372940306	125.83220511378563
6711.861742680019	158.92924552095323
6713.260047209744	185.07998698600326
6714.658643052912	191.67345737714254
6716.0575302702155	193.85916575704266
6717.4567089223565	195.36121799629774
6718.856179070049	196.73080636716696
6720.255940774021	197.85500902306683
6721.6559940950165	199.08684628669275
6723.056339093787	200.50215857898544
6724.456975831098	201.73940892252003
6725.85790436773	202.39059049949066
6727.259124764472	202.37023949573668
6728.660637082132	203.15650598122244
6730.062441381524	204.59436150112748
6731.464537723479	205.70403035572073
6732.866926168839	207.3305623612743
6734.269606778457	209.45468655947624
6735.672579613203	211.22486415507797
6737.075844733956	212.53432709468467
6738.4794022016085	213.6661506041685
6739.883252077068	214.62142173737647
6741.2873944212515	215.75004697208334
6742.691829295089	217.11258682576275
6744.096556759525	218.36226372857448
6745.5015768755175	219.51704978705308
6746.906889704033	220.63539672447268
6748.312495306054	221.56986366742834
6749.718393742578	222.33562437245192
6751.124585074607	223.27272878143768
6752.531069363165	224.45127903315486
6753.937846669282	225.51677422684574
6755.344917054005	226.63074144915205
6756.752280578391	227.92517147324534
6758.159937303512	229.0859931459741
6759.567887290451	230.1687357744518
6760.976130600304	231.2251278099745
6762.384667294178	232.14572853741785
6763.793497433198	233.12203357904548
6765.202621078498	234.2473787384427
6766.612038291223	235.23493530974878
6768.021749132533	235.74292927940726
6769.431753663604	236.07563013719204
6770.842051945616	237.30980452863466
6772.252644039771	239.03426490926395
6773.66353000728	240.21665546686214
6775.074709909365	240.83486739622046
6776.486183807264	241.24730012395156
6777.897951762223	241.12768322404398
6779.310013835508	238.36827927933695
6780.722370088391	236.91105305902596
6782.135020582158	241.05808423225048
6783.547965378113	245.19302753289102
6784.961204537568	246.68570465382163
6786.374738121846	247.7802381098148
6787.788566192289	248.6392116511157
6789.2026888102455	249.23818869462767
6790.617106037082	250.01906298938547
6792.031817934173	250.93701926872095
6793.446824562909	251.76176353614207
6794.862125984693	252.67555324830226
6796.27772226094	253.59952487442015
6797.693613453079	254.34816981273536
6799.109799622548	254.97406746874435
6800.5262808308025	255.61888679436336
6801.9430571393095	256.1579684474342
6803.360128609546	256.180456517645
6804.777495303007	256.08990608906424
6806.195157281196	257.04003682372417
6807.6131146056305	258.15998323184834
6809.031367337839	258.1664188500981
6810.449915539369	258.20393296844117
6811.868759271772	259.14589464149975
6813.287898596622	260.14811808666065
6814.707333575495	260.9613360415953
6816.12706426999	261.4952151626705
6817.547090741715	261.1295621133783
6818.967413052284	259.8739974954152
6820.388031263337	259.40836138987925
6821.808945436517	261.10553423250695
6823.230155633484	263.0049214600174
6824.651661915907	263.7574405502215
6826.073464345473	263.8795443149018
6827.49556298388	263.7467754711756
6828.917957892834	263.01144848121055
6830.340649134063	262.474239120216
6831.763636769299	263.7257785304849
6833.186920860294	265.0239060864041
6834.610501468806	264.5999537040324
6836.034378656611	260.9563739753638
6837.458552485498	257.1025904777389
6838.883023017267	259.8626343551907
6840.307790313729	264.5983752877767
6841.732854436711	265.7018290639459
6843.158215448053	265.50946309271575
6844.583873409604	265.50714147009677
6846.009828383232	265.381308691437
6847.436080430813	264.0404327752561
6848.862629614236	262.0851115156779
6850.289475995406	262.1049884765579
6851.716619636238	263.3924403980367
6853.144060598662	263.8174610375845
6854.57179894462	263.7137400655493
6855.999834736067	263.4358599944358
6857.428168034971	263.147705995657
6858.856798903312	262.70203833912166
6860.285727403084	261.98434604950575
6861.7149535962935	260.4906701177399
6863.144477544959	258.7957891424718
6864.5742993111135	257.4513423814789
6866.004418956804	254.93296639135602
6867.434836544087	254.53198623169308
6868.865552135034	257.3146737744498
6870.296565791729	258.6081256942982
6871.72787757627	258.009257317085
6873.159487550764	257.3473386696435
6874.591395777338	256.82988204541005
6876.023602318125	256.1418133293752
6877.456107235274	255.44170263199467
6878.888910590949	254.57062845905082
6880.322012447323	253.81343034845
6881.755412866582	252.9270567534062
6883.18911191093	251.75627339938333
6884.623109642579	250.78657906682415
6886.057406123754	249.42451594888888
6887.492001416697	247.61403657134997
6888.926895583659	246.29926724064404
6890.362088686906	244.70879209836582
6891.797580788715	237.77545928330466
6893.233371951381	215.26415912358033
6894.669462237203	195.47183433894565
6896.105851708503	209.3388876065411
6897.542540427609	232.0431537761011
6898.979528456865	238.3822710747912
6900.416815858628	238.50381996654917
6901.854402695265	237.74081238621113
6903.29228902916	236.9896870201625
6904.730474922708	236.35425600761405
6906.168960438317	236.00551777860017
6907.607745638409	235.44201141984126
6909.0468305854165	234.64168350207726
6910.48621534179	233.81612219736976
6911.925899969986	232.70158324513864
6913.365884532479	231.55296588113967
6914.806169091757	230.8636926758501
6916.246753710318	229.86825707263057
6917.687638450675	227.4789133678137
6919.128823375352	225.27219762511046
6920.570308546889	225.08621766550706
6922.012094027836	225.364601056534
6923.454179880759	223.25733818806316
6924.896566168235	216.62902079140878
6926.339252952854	213.3828831299649
6927.782240297219	218.92174420689034
6929.225528263946	223.2643236572747
6930.669116915669	223.18052508483157
6932.113006315028	222.57896053588337
6933.557196524675	221.9560130568363
6935.001687607285	221.44041771641568
6936.446479625538	221.10501727313272
6937.8915726421255	220.44869960876213
6939.33696671976	218.37239062773028
6940.782661921161	214.87126321366128
6942.228658309061	214.2144557161231
6943.67495594621	216.87892861016257
6945.121554895365	218.37156140529015
6946.568455219301	218.50698338956755
6948.015656980806	218.3664645306248
6949.463160242676	217.7775658152013
6950.910965067728	217.24972475305836
6952.359071518784	217.05501125586153
6953.807479658683	216.7247538781293
6955.256189550279	216.43366089537764
6956.705201256435	216.3186865745594
6958.154514840031	215.68521897269267
6959.604130363956	214.70800122537983
6961.054047891116	214.7013558206356
6962.504267484427	215.3386948028245
6963.954789206819	215.6718667369772
6965.405613121237	215.819659375895
6966.856739290638	215.84045872363637
6968.30816777799	215.84906768760038
6969.759898646277	215.97691809187373
6971.211931958496	216.09127909062096
6972.6642677776545	216.16684462935413
6974.116906166776	216.4242252527602
6975.569847188894	216.73841868155978
6977.023090907059	216.92970447215612
6978.47663738433	217.16777204310617
6979.930486683786	217.5401541028309
6981.3846388685115	218.00142976553119
6982.83909400161	218.27617188682524
6984.293852146194	218.01324222189086
6985.748913365391	214.21603497077794
6987.204277722341	205.91235544751288
6988.659945280201	205.63025565633637
6990.115916102135	214.98372494711427
6991.572190251322	220.42860952909328
6993.028767790958	220.8387095590323
6994.485648784248	221.36014768261526
6995.942833294413	222.93377465657247
6997.400321384683	224.27381372836305
6998.858113118305	225.06084569058405
7000.316208558537	224.76974314711242
7001.774607768653	224.211841330126
7003.23331081194	225.97796603167453
7004.692317751692	228.63798609814623
7006.151628651223	230.01631119160342
7007.6112435738605	231.032110086821
7009.071162582939	232.10637595225938
7010.5313857418105	233.04597589319394
7011.9919131138395	233.87682748812307
7013.452744762405	234.79763710860468
7014.913880750897	235.92589548137155
7016.375321142722	236.97921189783776
7017.837066001293	237.8679618329856
7019.299115390043	238.86366060110447
7020.761469372417	239.94862185468816
7022.224128011869	241.01550064992438
7023.687091371872	242.1280818029494
7025.150359515908	243.10912089167675
7026.613932507475	243.58946712605933
7028.07781041008	243.6053643188184
7029.541993287248	244.48950873340456
7031.0064812025175	246.30500056243358
7032.471274219435	247.62581059691811
7033.936372401564	248.5373953010694
7035.401775812481	249.47685354205063
7036.867484515776	250.2629650367248
7038.33349857505	250.93364430424785
7039.79981805392	251.77378204537368
7041.266443016016	252.58227575977335
7042.733373524977	253.31156275771446
7044.200609644461	254.06343150675585
7045.668151438137	254.69064281179135
7047.135998969687	255.34294879643184
7048.604152302806	255.93849681372438
7050.072611501203	256.18387271188465
7051.541376628598	255.7642092841438
7053.010447748729	255.25713130185977
7054.479824925345	255.8398521747663
7055.949508222204	256.50662868110703
7057.419497703085	256.7923392357064
