#wavelength (Angstrom)	surface_flux (erg / (Angstrom cm2 s))
6300.0	1.2299699797844994
6301.3125	1.828823206915136
6302.6252734375	2.1646353289694322
6303.938320369467	2.2309712484650923
6305.251640852877	2.275061628334609
6306.565234944722	2.3078980925163033
6307.8791027020025	2.3396398245473824
6309.193244181732	2.3567852915138316
6310.5076594409375	2.3110446177612687
6311.822348536654	2.2690399508560213
6313.137311525933	2.3701204577993673
6314.452548465834	2.5088163969490256
6315.768059413431	2.5722356881102453
6317.083844425809	2.6132198903844803
6318.399903560065	2.6524696449751346
6319.716236873307	2.6931544996003343
6321.032844422655	2.7357552696421443
6322.349726265244	2.7781232907164255
6323.666882458216	2.82031410146891
6324.984313058728	2.8629608942571725
6326.302018123949	2.9061977762497415
6327.619997711058	2.9499130629068167
6328.938251877249	2.993898884109434
6330.256780679723	3.03790368846801
6331.575584175699	3.0754994270680394
6332.894662422402	3.0947541679178965
6334.214015477073	3.1276021092398123
6335.533643396964	3.198193330660628
6336.853546239339	3.2631171923859106
6338.173724061472	3.3056677171757864
6339.494176920652	3.3515505477824554
6340.814904874177	3.408880953160318
6342.135907979359	3.4650954578778146
6343.457186293522	3.516334964364716
6344.778739874001	3.5675284193095385
6346.100568778142	3.6193500016674673
6347.422673063304	3.6716157334048822
6348.745052786858	3.7243415759636003
6350.067708006189	3.7778738003496906
6351.39063877869	3.8320913761190862
6352.713845161769	3.886748734647583
6354.037327212845	3.942121823845075
6355.3610849893485	3.9983039700073917
6356.685118548721	4.055110372778619
6358.009427948419	4.11256101614578
6359.334013245908	4.170524686116455
6360.658874498668	4.229009378838626
6361.984011764189	4.288542606594034
6363.309425099973	4.3490138990348
6364.635114563535	4.41014318167703
6365.961080212403	4.47194593007257
6367.2873221041145	4.532792293819017
6368.61384029622	4.591467825606118
6369.940634846282	4.654353780194602
6371.267705811875	4.72304152217289
6372.595053250586	4.789396560753936
6373.922677220014	4.851846374803456
6375.250577777768	4.917677902614965
6376.578754981471	4.989682959577536
6377.907208888761	5.0613837467049265
6379.235939557279	5.130792600132
6380.564947044686	5.20047400776102
6381.894231408654	5.2711998270003955
6383.223792706865	5.342747536378916
6384.553630997012	5.4148111250395745
6385.883746336804	5.487617307648995
6387.2141387839565	5.5600288553576425
6388.544808396204	5.63081895588041
6389.875755231287	5.704081599832481
6391.20697934696	5.782826947818792
6392.53848080099	5.862437153736069
6393.870259651158	5.940859632986037
6395.202315955253	6.018897851741265
6396.534649771077	6.093806840509042
6397.867261156446	6.168676450440592
6399.2001501691875	6.252677153159288
6400.533316867139	6.340689566043876
6401.866761308153	6.4248413396079735
6403.200483550093	6.508467550614291
6404.534483650832	6.593296261140917
6405.868761668259	6.6784983430524605
6407.2033176602745	6.763801144008234
6408.5381516847865	6.848953298328306
6409.873263799722	6.934318030643981
6411.2086540630135	7.022812788530373
6412.544322532611	7.113893135219826
6413.880269266471	7.204080004159369
6415.216494322568	7.2941181715116405
6416.552997758886	7.385661899333758
6417.8897796334195	7.4782631760367915
6419.226840004177	7.571106658678192
6420.5641789291785	7.662952822942763
6421.9017964664545	7.739532570792659
6423.239692674053	7.795045829041567
6424.577867610025	7.889109107319996
6425.9163213324455	8.025438150461781
6427.25505389939	8.140757304628044
6428.594065368952	8.241987378992091
6429.933355799238	8.346755040351997
6431.272925248362	8.449302974982842
6432.612773774456	8.54675753182313
6433.9529014356585	8.596112526766856
6435.293308290125	8.514314452058981
6436.63399439602	8.515417521816405
6437.974959811519	8.784094040521074
6439.316204594813	9.044512180293056
6440.657728804104	9.173995871141663
6441.999532497605	9.28279567970715
6443.341615733541	9.40331811288758
6444.683978570154	9.526887603567898
6446.026621065689	9.643690755564462
6447.369543278411	9.760556157747239
6448.7127452665945	9.87931438418254
6450.056227088525	9.996659997691939
6451.399988802502	10.114605292618583
6452.744030466836	10.236088644609335
6454.088352139851	10.355841750997884
6455.43295387988	10.473133327295503
6456.777835745272	10.588377756007247
6458.122997794385	10.643461742773338
6459.468440085592	10.63033957082765
6460.814162677278	10.763944970088717
6462.160165627836	11.036818535173108
6463.506448995675	11.235707778600224
6464.853012839217	11.374310653696089
6466.199857216891	11.502285725887226
6467.546982187145	11.607503320249112
6468.894387808435	11.701035693039422
6470.242074139227	11.848482060765575
6471.590041238007	12.037042422783518
6472.938289163264	12.201045796761676
6474.286817973508	12.344480388689707
6475.6356277272525	12.486139202166507
6476.984718483029	12.628715950795636
6478.334090299379	12.776883654451677
6479.683743234858	12.929536327227888
6481.033677348033	13.077640169003102
6482.38389269748	13.22787310836617
6483.734389341793	13.380902546914376
6485.085167339573	13.53036418475514
6486.436226749436	13.682290642533946
6487.787567630007	13.838324800620265
6489.139190039932	13.994706369237235
6490.491094037857	14.152365561827677
6491.843279682447	14.306623026427486
6493.195747032382	14.461154484627249
6494.548496146348	14.625668835814285
6495.901527083045	14.794153100636077
6497.254839901187	14.960268029794687
6498.6084346595	15.127301229618663
6499.962311416722	15.295819950503917
6501.316470231601	15.463324820643715
6502.670911162898	15.630995788323158
6504.025634269391	15.800040042965632
6505.3806396098635	15.970627257843649
6506.735927243117	16.14672241835526
6508.091497227958	16.307724536921363
6509.447349623215	16.35560661779342
6510.80348448772	16.357470653154873
6512.159901880322	16.608414204573954
6513.51660185988	16.98114218480742
6514.873584485267	17.221444842942944
6516.23084981537	17.40388235739092
6517.58839790908	17.568199125935486
6518.946228825313	17.730697923548433
6520.304342622985	17.935131911434027
6521.662739361031	18.164043339145312
6523.021419098398	18.377567311908695
6524.380381894044	18.578951858122377
6525.739627806938	18.780773049248534
6527.099156896065	18.985215027352364
6528.458969220418	19.179903941764007
6529.819064839006	19.371581297740303
6531.179443810848	19.580504198092523
6532.540106194976	19.774418622863685
6533.9010520504335	19.948658345252746
6535.262281436278	20.173348712895336
6536.6237944115765	20.428568959278408
6537.985591035413	20.66545973537087
6539.347671366879	20.895265368713645
6540.71003546508	21.12361206302741
6542.072683389135	21.35096849308382
6543.435615198176	21.574286860172194
6544.798830951341	21.78511797277578
6546.162330707791	21.984553369660233
6547.526114526688	22.216750293360896
6548.890182467215	22.479950143997577
6550.254534588562	22.7292311789967
6551.619170949934	22.954162875194605
6552.984091610549	23.146094253295896
6554.349296629635	23.367919065773183
6555.7147860664345	23.653117571706947
6557.080559980198	23.93093017032777
6558.446618430195	24.181859821978247
6559.8129614757	24.42988719183796
6561.1795891760075	24.680919632997064
6562.54650159042	24.928862121177882
6563.913698778251	25.17689084118506
6565.281180798831	25.427882928109632
6566.648947711497	25.693280954712566
6568.016999575604	25.96644141485479
6569.385336450516	26.234593352895523
6570.753958395609	26.502819838474785
6572.122865470276	26.7671481209998
6573.492057733915	27.0262430088499
6574.861535245943	27.285746395422066
6576.231298065786	27.541664006746515
6577.601346252884	27.768305171090013
6578.971679866686	27.778990130088424
6580.342298966659	27.335164303810394
6581.7132036122775	27.309390676109544
6583.08439386303	28.255985645502395
6584.455869778419	29.02253864663003
6585.827631417956	29.347163406527034
6587.199678841168	29.736241142158548
6588.572012107595	30.09665050535705
6589.944631276783	30.38732581629475
6591.3175364083	30.682770621707142
6592.690727561718	30.992837931311644
6594.064204796627	31.303764210027442
6595.437968172626	31.615705364097334
6596.812017749329	31.925149084050414
6598.18635358636	32.23160862889076
6599.5609757433585	32.53862431051585
6600.935884279972	32.839788427088685
6602.311079255864	33.145345139519904
6603.686560730708	33.44812743201777
6605.062328764195	33.65201094164767
6606.43838341602	33.699155263971484
6607.814724745898	33.909581410166346
6609.191352813554	34.438689643097
6610.568267678725	34.983604042290146
6611.9454694011565	35.39850714153047
6613.322958040616	35.740096010488195
6614.700733656875	36.08016617662476
6616.07879630972	36.43376527180425
6617.457146058951	36.77941594497047
6618.835782964381	37.115910031575865
6620.214707085831	37.45644467625608
6621.593918483141	37.79870781330966
6622.973417216159	38.127107546452926
6624.353203344746	38.44158012886614
6625.733276928776	38.78937998522098
6627.113638028136	39.15888504161244
6628.494286702727	39.42131001023983
6629.8752230124555	39.44950613094789
6631.25644701725	39.63557617804076
6632.637958777046	40.29757775657932
6634.019758351792	40.9428251264766
6635.401845801448	41.36814182656518
6636.784221185991	41.76175178127973
6638.166884565405	42.137511075101635
6639.54983599969	42.50135423067712
6640.933075548856	42.86097419078754
6642.316603272929	43.22477060864982
6643.700419231944	43.62239952541396
6645.084523485952	44.04021016192362
6646.468916095012	44.44309531362838
6647.853597119198	44.828573315490615
6649.238566618597	45.21250231378867
6650.623824653309	45.59903535864533
6652.009371283446	45.949584274133976
6653.39520656913	46.294381020623646
6654.781330570499	46.720744282416796
6656.167743347702	47.167272961880805
6657.554444960899	47.570215027628684
6658.941435470266	47.981712634480395
6660.328714935989	48.4056446468618
6661.716283418268	48.813584279012765
6663.104140977314	49.20772364931997
6664.492287673351	49.60793738726265
6665.880723566617	49.99238052513339
6667.269448717359	50.35671126612554
6668.658463185843	50.788113124964525
6670.04776703234	51.26645624833774
6671.437360317139	51.6974606392629
6672.827243100539	52.07879537217557
6674.21741544285	52.49054799847023
6675.607877404403	52.96451478866992
6676.998629045529	53.42166996777994
6678.389670426579	53.849811974405895
6679.781001607919	54.27299104516939
6681.17262264992	54.67438576918306
6682.564533612973	55.0928629492781
6683.956734557476	55.55604173279857
6685.349225543842	56.028727559572694
6686.742006632498	56.488283866722135
6688.135077883879	56.93019054072652
6689.528439358438	57.3669172739866
6690.9220911166385	57.81118109219458
6692.316033218955	58.26231280777995
6693.710265725876	58.71750437794657
6695.104788697902	59.17851821582581
6696.4996021955485	59.63226827103493
6697.894706279339	60.07775180950576
6699.290101009814	60.525213609752996
6700.685786447524	60.96377308004086
6702.081762653035	61.36602607898656
6703.478029686921	61.63179427329121
6704.874587609773	61.460660611219275
6706.27143648219	60.723198209143135
6707.668576364793	57.249853277308006
6709.066007318201	49.041311304034444
6710.46372940306	47.158441139278594
6711.861742680019	56.139606593993136
6713.260047209744	63.20749626373937
6714.658643052912	65.13570611602358
6716.0575302702155	65.98080029065838
6717.4567089223565	66.63170322889033
6718.856179070049	67.21526880549207
6720.255940774021	67.75669366074355
6721.6559940950165	68.28238701731651
6723.056339093787	68.8018697367243
6724.456975831098	69.28877066613836
6725.85790436773	69.5638753118968
6727.259124764472	69.57170293456156
6728.660637082132	69.92987009708126
6730.062441381524	70.59242286266401
6731.464537723479	71.11747241360766
6732.866926168839	71.8072388260276
6734.269606778457	72.67306057987675
6735.672579613203	73.40189020518594
6737.075844733956	73.95721643287162
6738.4794022016085	74.46967357269607
6739.883252077068	74.97133197396
6741.2873944212515	75.47824455358034
6742.691829295089	75.98878639998043
6744.096556759525	76.4904896332805
6745.5015768755175	76.99357160247648
6746.906889704033	77.49750975689241
6748.312495306054	77.97468849061022
6749.718393742578	78.41535368138965
6751.124585074607	78.85641011974367
6752.531069363165	79.36238824885531
6753.937846669282	79.8953492036121
6755.344917054005	80.39731067484013
6756.752280578391	80.88861959347989
6758.159937303512	81.3709740472437
6759.567887290451	81.8449949598937
6760.976130600304	82.31092712960361
6762.384667294178	82.7643528506793
6763.793497433198	83.2156311382947
6765.202621078498	83.668124273907
6766.612038291223	84.08461749978338
6768.021749132533	84.33254927567528
6769.431753663604	84.50643489650378
6770.842051945616	85.0429730453401
6772.252644039771	85.77231010730897
6773.66353000728	86.2985825780429
6775.074709909365	86.66933806623433
6776.486183807264	86.91018461068946
6777.897951762223	86.76032432933161
6779.310013835508	85.51833239441916
6780.722370088391	84.942777762819
6782.135020582158	86.81331934587668
6783.547965378113	88.74911789273108
6784.961204537568	89.49133308230026
6786.374738121846	89.95352225318767
6787.788566192289	90.36360623441519
6789.2026888102455	90.73683814109619
6790.617106037082	91.087740141505
6792.031817934173	91.41529042554268
6793.446824562909	91.77161603134464
6794.862125984693	92.18048458393876
6796.27772226094	92.56225966027384
6797.693613453079	92.89802563382645
6799.109799622548	93.21493001414187
6800.5262808308025	93.5170369368069
6801.9430571393095	93.76672550522613
6803.360128609546	93.82054956573167
6804.777495303007	93.79138698387492
6806.195157281196	94.15285554387681
6807.6131146056305	94.64918676224846
6809.031367337839	94.73607940466209
6810.449915539369	94.77412720889801
6811.868759271772	95.19537761285707
6813.287898596622	95.69900319138105
6814.707333575495	96.01058233284179
6816.12706426999	96.18739004555049
6817.547090741715	96.10106522204167
6818.967413052284	95.58159690590107
6820.388031263337	95.33060751365952
6821.808945436517	96.06864556945033
6823.230155633484	96.89427151244641
6824.651661915907	97.1936613580654
6826.073464345473	97.30035640752062
6827.49556298388	97.23902069056399
6828.917957892834	96.82471099577205
6830.340649134063	96.54766829746374
6831.763636769299	97.04769100769069
6833.186920860294	97.58509005981212
6834.610501468806	97.3840167194391
6836.034378656611	95.79401272894316
6837.458552485498	94.19593385106445
6838.883023017267	95.37262174659682
6840.307790313729	97.27027354862908
6841.732854436711	97.70571191512505
6843.158215448053	97.69327314528583
6844.583873409604	97.6365179740148
6846.009828383232	97.4891658505736
6847.436080430813	96.95099758392014
6848.862629614236	96.13246207364972
6850.289475995406	96.11566213066442
6851.716619636238	96.6948902936104
6853.144060598662	96.82967702406701
6854.57179894462	96.65097203715274
6855.999834736067	96.43545259391696
6857.428168034971	96.24607357083191
6858.856798903312	96.02939121906232
6860.285727403084	95.6689032272774
6861.7149535962935	94.95149366645035
6863.144477544959	94.24730177454931
6864.5742993111135	93.65308815504214
6866.004418956804	92.44977780959167
6867.434836544087	92.21114269194966
6868.865552135034	93.29791200264856
6870.296565791729	93.71068140604693
6871.72787757627	93.46013753124053
6873.159487550764	93.14548713251006
6874.591395777338	92.81375362368811
6876.023602318125	92.45179232117702
6877.456107235274	92.09150482609697
6878.888910590949	91.71365249413229
6880.322012447323	91.31261724500811
6881.755412866582	90.8534503685826
6883.18911191093	90.35772144634052
6884.623109642579	89.87410101340572
6886.057406123754	89.27508342496202
6887.492001416697	88.56502286770927
6888.926895583659	87.93659329718169
6890.362088686906	87.17415421666436
6891.797580788715	84.96881826516316
6893.233371951381	78.91008415920186
6894.669462237203	73.67856115929706
6896.105851708503	76.89312085905831
6897.542540427609	82.54109501739977
6898.979528456865	84.14911053026778
6900.416815858628	83.9875475519318
6901.854402695265	83.64185375107874
6903.29228902916	83.37383434102208
6904.730474922708	83.04304997086153
6906.168960438317	82.67887575672759
6907.607745638409	82.29390372000357
6909.0468305854165	81.88895959705646
6910.48621534179	81.46295258566211
6911.925899969986	80.9726885906328
6913.365884532479	80.490827366388
6914.806169091757	80.1027781479673
6916.246753710318	79.62152851942669
6917.687638450675	78.8052019858352
6919.128823375352	78.19130152634617
6920.570308546889	78.05671230131028
6922.012094027836	77.7089342025535
6923.454179880759	76.53784436785944
6924.896566168235	73.8416116785832
6926.339252952854	72.53243064590193
6927.782240297219	74.66074847454692
6929.225528263946	76.34376104615262
6930.669116915669	76.26900284102156
6932.113006315028	75.98916244360363
6933.557196524675	75.79009258488213
6935.001687607285	75.58559699485131
6936.446479625538	75.38907240665843
6937.8915726421255	75.13847697156334
6939.33696671976	74.36114811849356
6940.782661921161	72.98805619011773
6942.228658309061	72.61180721337428
6943.67495594621	73.48871709268997
6945.121554895365	73.9746956011241
6946.568455219301	73.94477055078018
6948.015656980806	73.82322556120829
6949.463160242676	73.61061000640365
6950.910965067728	73.44588176190135
6952.359071518784	73.34550094138608
6953.807479658683	73.23777087913133
6955.256189550279	73.14831792740185
6956.705201256435	73.03111522199984
6958.154514840031	72.74752669025774
6959.604130363956	72.37708039256376
6961.054047891116	72.34740512146391
6962.504267484427	72.58110376743069
6963.954789206819	72.71106398179846
6965.405613121237	72.76333007817539
6966.856739290638	72.79643167530203
6968.30816777799	72.83352510516255
6969.759898646277	72.87454005552375
6971.211931958496	72.89525380671758
6972.6642677776545	72.93202876237622
6974.116906166776	73.01977788031346
6975.569847188894	73.11879060138367
6977.023090907059	73.21245064164737
6978.47663738433	73.31047444041747
6979.930486683786	73.41913784274
6981.3846388685115	73.54946362100641
6982.83909400161	73.65998613303915
6984.293852146194	73.57580470570642
6985.748913365391	72.07974029480583
6987.204277722341	68.8888859596906
6988.659945280201	68.77452995394529
6990.115916102135	72.33403308844078
6991.572190251322	74.44580354964523
6993.028767790958	74.66418479725148
6994.485648784248	74.8581053306563
6995.942833294413	75.41472029327628
6997.400321384683	75.92917626720207
6998.858113118305	76.22048655899317
7000.316208558537	76.11844517014359
7001.774607768653	75.95671320334668
7003.23331081194	76.62909832120043
7004.692317751692	77.60828133127654
7006.151628651223	78.12608172174467
7007.6112435738605	78.50897711591162
7009.071162582939	78.95478957576957
7010.5313857418105	79.3861916180857
7011.9919131138395	79.71930284530032
7013.452744762405	80.06655464909215
7014.913880750897	80.52892095211281
7016.375321142722	80.91428683068659
7017.837066001293	81.21708406283008
7019.299115390043	81.61641630492714
7020.761469372417	82.05486798656453
7022.224128011869	82.47449464251518
7023.687091371872	82.8723551398144
7025.150359515908	83.20905652127783
7026.613932507475	83.42795984588774
7028.07781041008	83.4607652183921
7029.541993287248	83.75833389129423
7031.0064812025175	84.42856390092057
7032.471274219435	84.9601140446941
7033.936372401564	85.37343339989935
7035.401775812481	85.76088633226506
7036.867484515776	86.04288095753893
7038.33349857505	86.2831336811639
7039.79981805392	86.54541181120612
7041.266443016016	86.80606484615247
7042.733373524977	87.10159092854285
7044.200609644461	87.38834519556485
7045.668151438137	87.59449545605423
7047.135998969687	87.82861481439195
7048.604152302806	88.04176776439367
7050.072611501203	88.1203386461334
7051.541376628598	87.96252460539968
7053.010447748729	87.76495788426756
7054.479824925345	88.07464514080417
7055.949508222204	88.61703731499145
7057.419497703085	88.89449396274354
7058.889793431773	89.00456560669137
7060.360395472071	89.07930336779671
7061.831303887795	89.1513744565265
7063.302518742772	89.27336101065954
7064.774040100844	89.40057488845771
7066.245868025865	89.41749236135284
