#wavelength	surface flux
0.01	7.426162559071949e-94
0.0101	7.939576266859637e-94
0.010201	8.458124111725206e-94
0.010303010000000001	8.981857435039436e-94
0.0104060401	9.510828091586793e-94
0.010510100501000002	1.0045088454699642e-93
0.01061520150601	1.0584691421443605e-93
0.010721353521070101	1.1129690417855017e-93
0.010828567056280802	1.1680139404230534e-93
0.010936852726843608	1.2236092880469801e-93
0.011046221254112046	1.2560299636948851e-93
0.011156683466653166	1.2560299636948851e-93
0.011268250301319697	1.2560299636948851e-93
0.011380932804332895	1.2560299636948851e-93
0.011494742132376225	1.2560299636948851e-93
0.011609689553699986	1.2560299636948851e-93
0.011725786449236988	1.2560299636948851e-93
0.011843044313729357	1.2560299636948851e-93
0.01196147475686665	1.2560299636948851e-93
0.012081089504435316	1.2560299636948851e-93
0.012201900399479671	1.2560299636948851e-93
0.012323919403474468	1.2560299636948851e-93
0.012447158597509212	1.2560299636948851e-93
0.012571630183484304	1.2560299636948851e-93
0.012697346485319148	1.2560299636948851e-93
0.012824319950172339	1.2560299636948851e-93
0.012952563149674063	1.2560299636948851e-93
0.013082088781170804	1.2560299636948851e-93
0.013212909668982512	1.2560299636948851e-93
0.013345038765672336	1.2560299636948851e-93
0.013478489153329061	1.2560299636948851e-93
0.013613274044862352	1.2560299636948851e-93
0.013749406785310975	1.2560299636948851e-93
0.013886900853164083	1.2560299636948851e-93
0.014025769861695726	1.2560299636948851e-93
0.014166027560312683	1.2560299636948851e-93
0.01430768783591581	1.2560299636948851e-93
0.014450764714274969	1.2560299636948851e-93
0.014595272361417718	1.2560299636948851e-93
0.014741225085031895	1.2560299636948851e-93
0.014888637335882214	1.2560299636948851e-93
0.015037523709241036	1.2560299636948851e-93
0.015187898946333447	1.2560299636948851e-93
0.015339777935796781	1.2560299636948851e-93
0.015493175715154751	1.2560299636948851e-93
0.015648107472306296	1.2560299636948851e-93
0.01580458854702936	1.2560299636948851e-93
0.015962634432499654	1.2560299636948851e-93
0.016122260776824653	1.2560299636948851e-93
0.016283483384592897	1.2560299636948851e-93
0.016446318218438827	1.2560299636948851e-93
0.016610781400623217	1.2560299636948851e-93
0.016776889214629446	1.2560299636948851e-93
0.016944658106775742	1.2560299636948851e-93
0.0171141046878435	1.2560299636948851e-93
0.017285245734721934	1.2560299636948851e-93
0.017458098192069154	1.2560299636948851e-93
0.017632679173989845	1.2560299636948851e-93
0.017809005965729745	1.2560299636948851e-93
0.01798709602538704	1.2560299636948851e-93
0.018166966985640912	1.2560299636948851e-93
0.01834863665549732	1.2560299636948851e-93
0.018532123022052295	1.2560299636948851e-93
0.01871744425227282	1.2560299636948851e-93
0.01890461869479555	1.2560299636948851e-93
0.0190936648817435	1.2560299636948851e-93
0.019284601530560937	1.2560299636948851e-93
0.01947744754586655	1.2560299636948851e-93
0.019672222021325212	1.2560299636948851e-93
0.019868944241538466	1.2560299636948851e-93
0.020067633683953853	1.2560299636948851e-93
0.02026831002079339	1.2560299636948851e-93
0.020470993121001323	1.2560299636948851e-93
0.020675703052211336	1.2560299636948851e-93
0.02088246008273345	1.2560299636948851e-93
0.021091284683560786	1.2560299636948851e-93
0.021302197530396395	1.2560299636948851e-93
0.02151521950570036	1.2560299636948851e-93
0.02173037170075736	1.2560299636948851e-93
0.02194767541776493	1.2560299636948851e-93
0.022167152171942584	1.2560299636948851e-93
0.022388823693662012	1.2560299636948851e-93
0.02261271193059863	1.2560299636948851e-93
0.022838839049904615	1.2560299636948851e-93
0.023067227440403664	1.2560299636948851e-93
0.0232978997148077	1.2560299636948851e-93
0.023530878711955777	1.2560299636948851e-93
0.023766187499075334	1.2560299636948851e-93
0.024003849374066088	1.2560299636948851e-93
0.02424388786780675	1.2560299636948851e-93
0.024486326746484814	1.2560299636948851e-93
0.024731190013949664	1.2560299636948851e-93
0.024978501914089166	1.2560299636948851e-93
0.025228286933230055	1.2560299636948851e-93
0.02548056980256236	1.2560299636948851e-93
0.025735375500587982	1.2560299636948851e-93
0.025992729255593858	1.2560299636948851e-93
0.0262526565481498	1.2560299636948851e-93
0.026515183113631293	1.2560299636948851e-93
0.02678033494476761	1.2560299636948851e-93
0.027048138294215287	1.2560299636948851e-93
0.02731861967715744	1.2560299636948851e-93
0.027591805873929013	1.2560299636948851e-93
0.027867723932668304	1.2560299636948851e-93
0.02814640117199499	1.2560299636948851e-93
0.028427865183714936	1.2560299636948851e-93
0.02871214383555209	1.2560299636948851e-93
0.028999265273907608	1.2560299636948851e-93
0.029289257926646682	1.2560299636948851e-93
0.029582150505913153	1.2560299636948851e-93
0.02987797201097228	1.2560299636948851e-93
0.030176751731082006	1.2560299636948851e-93
0.030478519248392826	1.2560299636948851e-93
0.030783304440876753	1.2560299636948851e-93
0.031091137485285525	1.2560299636948851e-93
0.03140204886013838	1.2560299636948851e-93
0.03171606934873976	1.2560299636948851e-93
0.03203323004222716	1.2560299636948851e-93
0.03235356234264943	1.2560299636948851e-93
0.03267709796607593	1.2560299636948851e-93
0.03300386894573669	1.2560299636948851e-93
0.03333390763519405	1.2560299636948851e-93
0.033667246711545994	1.2560299636948851e-93
0.034003919178661454	1.2560299636948851e-93
0.03434395837044807	1.2560299636948851e-93
0.03468739795415255	1.2560299636948851e-93
0.03503427193369407	1.2560299636948851e-93
0.03538461465303102	1.2560299636948851e-93
0.03573846079956133	1.2560299636948851e-93
0.03609584540755694	1.2560299636948851e-93
0.03645680386163251	1.2560299636948851e-93
0.03682137190024883	1.2560299636948851e-93
0.03718958561925133	1.2560299636948851e-93
0.03756148147544384	1.2560299636948851e-93
0.03793709629019828	1.2560299636948851e-93
0.03831646725310026	1.2560299636948851e-93
0.038699631925631264	1.2560299636948851e-93
0.039086628244887574	1.2560379212699338e-93
0.039477494527336454	1.2560738258156242e-93
0.03987226947260982	1.2561100894067712e-93
0.04027099216733592	1.2605688634608659e-93
0.04067370208900927	1.2671774215513736e-93
0.04108043910989937	1.709491409181383e-93
0.04149124350099836	3.941052985111546e-93
0.04190615593600835	6.19493017680108e-93
0.042325217495368425	5.012070843458853e-91
0.04274846967032212	1.1447739571454587e-90
0.043175954367025336	6.1513287413238485e-89
0.04360771391069559	2.0870799449900688e-88
0.04404379104980254	2.914157568512384e-87
0.04448422896030057	2.8779705516568734e-86
0.04492907124990358	5.490390894410581e-86
0.04537836196240262	3.209054262210795e-84
0.04583214558202665	6.986948724785416e-84
0.04629046703784691	2.774345472284507e-82
0.046753371708225376	7.062080664127428e-82
0.04722090542530763	2.0633532514930028e-80
0.047693114479560705	6.2742004091398324e-80
0.04817004562435631	1.259884207639351e-78
0.04865174608059988	4.573593253100027e-78
0.04913826354140587	7.13546767995507e-77
0.04962964617681994	3.001775226478503e-76
0.05012594263858814	4.920767134341423e-70
0.05062720206497402	2.450570333731129e-69
0.05113347408562376	3.456639048519307e-68
0.051644808826479996	1.5202092605346313e-67
0.0521612569147448	1.2842768540288837e-66
0.052682869483892246	4.682838471677065e-66
0.05320969817873117	4.177720275006915e-65
0.05374179516051848	1.306589863499179e-64
0.054279213112123664	1.261663252409494e-63
0.0548220052432449	3.3764966698634656e-63
0.05537022529567735	3.219375743042133e-62
0.05592392754863413	7.425513708530374e-62
0.056483166824120475	1.0019116204609753e-59
0.057047998492361675	4.1863844231701875e-59
0.057618478477285295	2.939895109875077e-58
0.05819466326205815	1.622507943367716e-57
0.05877660989467873	5.090044684314407e-57
0.05936437599362551	6.720896014041861e-56
0.05995801975356178	1.662449121207006e-55
0.06055759995109739	1.2826807122788375e-54
0.06116317595060837	5.352854365057606e-54
0.061774807710114454	1.7309729369849488e-53
0.062392555787215594	9.487142493478394e-53
0.06301648134508775	2.356327720523004e-52
0.06364664615853863	1.2891567815297092e-51
0.06428311262012401	5.899166800333067e-51
0.06492594374632525	1.5025247486676245e-50
0.06557520318378851	8.229057511833932e-50
0.0662309552156264	3.3281204272088515e-49
0.06689326476778266	9.110010511842701e-49
0.06756219741546049	4.530207648428766e-48
0.0682378193896151	1.734468442579718e-47
0.06892019758351124	4.623475186829501e-47
0.06960939955934635	2.1439792617006172e-46
0.07030549355493981	8.162447309654392e-46
0.07100854849048922	2.0245098371051828e-45
0.07171863397539412	8.682037335692691e-45
0.07243582031514804	3.343099659465496e-44
0.07316017851829953	1.0392195702019973e-43
0.07389178030348253	2.951495587084809e-43
0.07463069810651736	1.1325946268274588e-42
0.07537700508758254	3.849530603364152e-42
0.07613077513845835	1.1065060164854706e-41
0.07689208288984294	3.149143226560638e-41
0.07766100371874136	1.7644274544405047e-40
0.07843761375592878	1.2289898303139286e-39
0.07922198989348807	4.323305489176918e-39
0.08001420979242296	1.1220810128731998e-38
0.08081435189034718	3.742375887454832e-38
0.08162249540925066	1.2301058627144078e-37
0.08243872036334317	3.7917738669972606e-37
0.08326310756697661	9.705210955682938e-37
0.08409573864264637	1.7152869203430422e-36
0.08493669602907282	2.544139287553605e-37
0.08578606298936356	4.843363830011473e-38
0.0866439236192572	6.545006919362442e-38
0.08751036285544977	1.6508705352531693e-36
0.08838546648400426	1.5817438050214698e-35
0.08926932114884432	3.114758264617428e-35
0.09016201436033276	6.9255861162004e-35
0.09106363450393609	4.613293431614384e-34
0.09197427084897544	2.274102527292627e-33
0.0928940135574652	9.438717353557669e-34
0.09382295369303986	3.1246827645218494e-33
0.09476118322997025	4.505136177561762e-33
0.09570879506226997	2.540392977259951e-32
0.09666588301289265	5.603465091986545e-32
0.09763254184302157	1.5232630638592921e-31
0.09860886726145181	8.965521594429871e-30
0.09959495593406631	1.0246386095511064e-28
0.10059090549340699	7.579240108801516e-29
0.10159681454834106	8.720893833409736e-30
0.10261278269382446	6.925381178670169e-30
0.10363891052076271	1.784385010618791e-29
0.10467529962597034	4.71632561473663e-29
0.10572205262223004	1.2291365266096455e-28
0.10677927314845236	3.177758102886978e-28
0.10784706587993687	8.112424181635326e-28
0.10892553653873624	2.025577448852849e-27
0.1100147919041236	6.245448381221452e-27
0.11111493982316484	1.325365240962858e-24
0.1122260892213965	3.3468160131288214e-23
0.11334835011361045	9.482367890174876e-23
0.11448183361474655	1.8624693872346386e-22
0.11562665195089401	7.077780506785749e-22
0.11678291847040295	1.8995453705889893e-21
0.117950747655107	3.0076992717829e-20
0.11913025513165806	1.2631211700643516e-19
0.12032155768297464	4.08017616368752e-20
0.1215247732598044	7.302788297103993e-20
0.12274002099240244	4.916035296587837e-19
0.12396742120232647	1.1161282125910821e-18
0.12520709541434974	1.3884279097398563e-18
0.12645916636849325	8.630816766696488e-19
0.12772375803217817	1.390467972694895e-18
0.12900099561249995	3.859978879742223e-18
0.13029100556862497	4.598877140240859e-18
0.1315939156243112	1.1161569196265748e-17
0.1329098547805543	1.8264305372280916e-17
0.13423895332835986	3.856724607196671e-17
0.13558134286164344	7.45374231881391e-17
0.1369371562902599	7.797632840646749e-17
0.1383065278531625	2.943335897834339e-16
0.13968959313169413	1.6981728901933589e-15
0.14108648906301105	3.221245880952757e-15
0.1424973539536412	8.767866231771353e-15
0.14392232749317757	1.6555152390469932e-14
0.14536155076810936	8.555042382492961e-14
0.14681516627579044	1.5510963902764096e-13
0.14828331793854838	2.3609931412387856e-13
0.14976615111793384	4.102486501570024e-13
0.15126381262911318	5.370121861510163e-13
0.15277645075540433	3.113545353817399e-13
0.15430421526295837	2.9211788528751755e-13
0.15584725741558797	6.098505529510058e-13
0.15740572998974384	1.1061826151318956e-12
0.15897978728964127	1.4679065434583423e-12
0.1605695851625377	1.7170440492991612e-12
0.16217528101416306	7.396301174684828e-13
0.16379703382430472	1.6802729758287556e-12
0.16543500416254772	3.0663803645009026e-12
0.16708935420417323	2.6795172748809972e-11
0.16876024774621495	2.1371445404221004e-12
0.17044785022367712	2.715444111947073e-10
0.17215232872591388	7.991848847374319e-11
0.173873852013173	1.0201648172334553e-10
0.17561259053330475	4.932503330064974e-10
0.1773687164386378	2.008191937564843e-09
0.1791424036030242	1.036882613065066e-08
0.1809338276390544	4.93971747731445e-10
0.18274316591544498	2.7787628846253536e-08
0.18457059757459943	7.75504314567068e-09
0.1864163035503454	8.844536496027074e-10
0.18828046658584888	3.2121495208595013e-09
0.19016327125170737	8.414587864331298e-09
0.19206490396422443	1.651741452156244e-07
0.1939855530038667	7.491473224116832e-07
0.19592540853390536	2.538377345281166e-06
0.19788466261924442	1.0298056322200764e-05
0.19986350924543686	8.50104682469063e-06
0.2018621443378912	1.01565046784161e-05
0.20388076578127012	8.902293426840736e-06
0.20591957343908285	1.8115975500507526e-05
0.20797876917347366	5.895092886781118e-06
0.21005855686520844	1.3463021768639457e-05
0.2121591424338605	6.2455697001965605e-06
0.21428073385819912	2.4193765267101092e-05
0.21642354119678112	1.892760724108922e-05
0.2185877766087489	4.376440771351141e-05
0.2207736543748364	3.241862333985054e-05
0.22298139091858477	0.00018755067128923525
0.2252112048277706	4.1912713408269296e-05
0.22746331687604834	0.000250747186381116
0.22973795004480882	0.0004615810977803231
0.23203532954525688	0.0010609068269191878
0.23435568284070946	0.0030686443221292535
0.23669923966911657	0.0009589595726190924
0.2390662320658077	0.003442917865379658
0.2414568943864658	0.009082617156476404
0.2438714633303305	0.023257261771939895
0.24631017796363378	0.01762717779744351
0.24877327974327013	0.00660631753532366
0.2512610125407028	0.01718797532348507
0.25377362266610987	0.08195547772560664
0.25631135889277096	0.12021580473708186
0.25887447248169865	0.10815383536844186
0.26146321720651566	0.6372668024305346
0.2640778493785808	1.1468431365492162
0.2667186278723666	0.9655631768241892
0.2693858141510903	1.224058668600071
0.2720796722926012	0.8265499868870062
0.27480046901552724	1.3685666321508496
0.27754847370568253	3.4312397832944397
0.28032395844273933	1.6996712029220917
0.28312719802716674	2.5769262344643824
0.2859584700074384	1.1632405452614936
0.28881805470751276	8.346199764839145
0.2917062352545879	15.251597974303655
0.2946232976071338	11.808670443835494
0.2975695305832051	10.665504178762092
0.30054522588903715	15.446603373822567
0.3035506781479275	28.257606221539397
0.3065861849294068	65.25215058970684
0.3096520467787009	91.86166949045763
0.3127485672464879	299.8521109000373
0.3158760529189528	733.0717132913384
0.31903481344814233	324.49186965677796
0.3222251615826237	437.0250498404949
0.32544741319844994	1640.4433370919833
0.3287018873304345	2255.2640700484167
0.33198890620373883	2424.6832162643746
0.3353087952657762	4540.4732358260935
0.338661883218434	1078.8711786982647
0.3420485020506183	913.0939342507355
0.34546898707112456	694.2911188050998
0.3489236769418358	1026.356580593437
0.35241291371125416	1555.5106938040255
0.3559370428483667	4408.049832587715
0.3594964132768504	1374.8677259224155
0.3630913774096189	8039.3109846147545
0.3667222911837151	12674.46662616115
0.37038951409555215	5352.596276166488
0.37409340923650775	2223.561105193596
0.37783434332887283	18589.971086584505
0.38161268676216153	13185.481767350397
0.38542881362978315	8516.651382204549
0.389283101766081	7786.920378075829
0.39317593278374185	16854.416496501173
0.39710769211157926	60584.81053878162
0.401078769032695	122711.4165745268
0.405089556723022	102290.90800802925
0.4091404522902522	152164.60353229882
0.4132318568131547	116104.32885760829
0.4173641753812863	85386.56553402083
0.42153781713509914	45875.487419102705
0.4257531953064501	50840.56300461726
0.43001072725951467	119398.258121893
0.43431083453210984	229031.85378469317
0.43865394287743087	292122.73396737507
0.44304048230620524	439962.4020374322
0.44747088712926725	560267.976487911
0.45194559600055995	890603.6533228691
0.4564650519605655	1314419.2121287428
0.4610297024801712	733686.170677273
0.4656399995049729	972147.11611601
0.47029639950002267	1493897.6156974435
0.47499936349502286	2633575.243112709
0.4797493571299731	816902.9700983424
0.48454685070127285	1054326.336165304
0.48939231920828563	3220590.3642286477
0.4942862424003685	8241729.686202084
0.4992291048243721	1330286.0833032818
0.5042213958726158	1794922.0766213373
0.509263609831342	2588152.428935858
0.5143562459296555	5532181.5351764755
0.519499808388952	1419253.777131315
0.5246948064728415	3371717.0519369347
0.52994175453757	6795609.218106243
0.5352411720829456	10131849.616717732
0.5405935838037751	8543422.725098357
0.5459995196418129	4309343.700842096
0.551459514838231	4919693.551438668
0.5569741099866133	7755475.542316279
0.5625438510864794	5009792.307884017
0.5681692895973443	7279843.443484061
0.5738509824933177	9082839.208812024
0.5795894923182509	7458779.084015997
0.5853853872414334	3987066.3154561706
0.5912392411138477	2376246.039042369
0.5971516335249862	6655520.338002346
0.6031231498602361	11533790.160966748
0.6091543813588385	17036023.50260475
0.6152459251724268	15999610.46475631
0.6213983844241512	8081821.96572604
0.6276123682683926	10121621.113457331
0.6338884919510765	15605571.08502294
0.6402273768705874	16070594.17529073
0.6466296506392932	23773969.26295989
0.6530959471456862	31342093.051423945
0.6596269066171431	28957600.457843784
0.6662231756833145	21045514.93489265
0.6728854074401477	14849368.95141256
0.6796142615145492	18425495.95233614
0.6864104041296946	22769856.107386902
0.6932745081709915	24308922.163672034
0.7002072532527015	42167199.49667204
0.7072093257852285	33755605.93528323
0.7142814190430807	20779391.674836744
0.7214242332335116	28685632.516250093
0.7286384755658467	69487210.01805371
0.7359248603215052	96030488.27058649
0.7432841089247202	52647314.802017234
0.7507169500139675	57011866.315301485
0.7582241195141072	79909952.35832223
0.7658063607092482	27547550.37605211
0.7734644243163408	54851928.65438252
0.781199068559504	92662299.30739136
0.7890110592450992	92846377.02028051
0.7969011698375502	70628034.1087776
0.8048701815359257	158549220.4942365
0.8129188833512849	460635714.7483381
0.8210480721847978	379413223.0099908
0.8292585529066457	436450133.6706989
0.8375511384357123	437542796.2355897
0.8459266498200694	175486957.6167886
0.8543859163182701	200777662.21085015
0.8629297754814528	203586677.59250033
0.8715590732362674	180952538.9310728
0.8802746639686301	279754029.8524428
0.8890774106083162	260620413.3601986
0.8979681847143995	378759314.6897173
0.9069478665615435	365007093.7411953
0.9160173452271589	486830166.26309395
0.9251775186794305	442310158.50016266
0.9344292938662249	484131589.7426119
0.9437735868048871	608808135.8481456
0.953211322672936	679923129.2473234
0.9627434358996654	481590002.58399683
0.9723708702586621	493273220.6488669
0.9820945789612486	727450890.29571
0.9919155247508612	399829696.2002063
1.0018346799983697	440913897.2423278
1.0118530267983534	497030806.78560734
1.021971557066337	568003656.9478302
1.0321912726370004	688133212.6198505
1.0425131853633705	808407735.3312559
1.0529383172170041	689580019.6711086
1.0634677003891742	616707128.76572
1.074102377393066	943169254.2143668
1.0848434011669965	1168964425.7594185
1.0956918351786664	1248849888.141812
1.1066487535304532	809147969.5274181
1.1177152410657578	855813217.799283
1.1288923934764155	996331992.7972499
1.1401813174111797	754305642.765498
1.1515831305852913	1096355243.2893772
1.1630989618911443	1039101094.1541082
1.1747299515100555	882914416.8546013
1.1864772510251562	936289265.3025645
1.1983420235354079	830064400.3767524
1.210325443770762	888996720.6786085
1.2224286982084696	1029118569.5528351
1.2346529851905543	1027708802.7075597
1.2469995150424598	887185518.9555116
1.2594695101928843	1056207736.5555972
1.2720642052948132	1072440576.274216
