#wavelength	surface flux
0.01	7.426162559071949e-94
0.0101	7.939576266859637e-94
0.010201	8.458124111725206e-94
0.010303010000000001	8.981857435039436e-94
0.0104060401	9.510828091586793e-94
0.010510100501000002	1.0045088454699642e-93
0.01061520150601	1.0584691421443605e-93
0.010721353521070101	1.1129690417855017e-93
0.010828567056280802	1.1680139404230534e-93
0.010936852726843608	1.2236092880469801e-93
0.011046221254112046	1.2560299636948851e-93
0.011156683466653166	1.2560299636948851e-93
0.011268250301319697	1.2560299636948851e-93
0.011380932804332895	1.2560299636948851e-93
0.011494742132376225	1.2560299636948851e-93
0.011609689553699986	1.2560299636948851e-93
0.011725786449236988	1.2560299636948851e-93
0.011843044313729357	1.2560299636948851e-93
0.01196147475686665	1.2560299636948851e-93
0.012081089504435316	1.2560299636948851e-93
0.012201900399479671	1.2560299636948851e-93
0.012323919403474468	1.2560299636948851e-93
0.012447158597509212	1.2560299636948851e-93
0.012571630183484304	1.2560299636948851e-93
0.012697346485319148	1.2560299636948851e-93
0.012824319950172339	1.2560299636948851e-93
0.012952563149674063	1.2560299636948851e-93
0.013082088781170804	1.2560299636948851e-93
0.013212909668982512	1.2560299636948851e-93
0.013345038765672336	1.2560299636948851e-93
0.013478489153329061	1.2560299636948851e-93
0.013613274044862352	1.2560299636948851e-93
0.013749406785310975	1.2560299636948851e-93
0.013886900853164083	1.2560299636948851e-93
0.014025769861695726	1.2560299636948851e-93
0.014166027560312683	1.2560299636948851e-93
0.01430768783591581	1.2560299636948851e-93
0.014450764714274969	1.2560299636948851e-93
0.014595272361417718	1.2560299636948851e-93
0.014741225085031895	1.2560299636948851e-93
0.014888637335882214	1.2560299636948851e-93
0.015037523709241036	1.2560299636948851e-93
0.015187898946333447	1.2560299636948851e-93
0.015339777935796781	1.2560299636948851e-93
0.015493175715154751	1.2560299636948851e-93
0.015648107472306296	1.2560299636948851e-93
0.01580458854702936	1.2560299636948851e-93
0.015962634432499654	1.2560299636948851e-93
0.016122260776824653	1.2560299636948851e-93
0.016283483384592897	1.2560299636948851e-93
0.016446318218438827	1.2560299636948851e-93
0.016610781400623217	1.2560299636948851e-93
0.016776889214629446	1.2560299636948851e-93
0.016944658106775742	1.2560299636948851e-93
0.0171141046878435	1.2560299636948851e-93
0.017285245734721934	1.2560299636948851e-93
0.017458098192069154	1.2560299636948851e-93
0.017632679173989845	1.2560299636948851e-93
0.017809005965729745	1.2560299636948851e-93
0.01798709602538704	1.2560299636948851e-93
0.018166966985640912	1.2560299636948851e-93
0.01834863665549732	1.2560299636948851e-93
0.018532123022052295	1.2560299636948851e-93
0.01871744425227282	1.2560299636948851e-93
0.01890461869479555	1.2560299636948851e-93
0.0190936648817435	1.2560299636948851e-93
0.019284601530560937	1.2560299636948851e-93
0.01947744754586655	1.2560299636948851e-93
0.019672222021325212	1.2560299636948851e-93
0.019868944241538466	1.2560299636948851e-93
0.020067633683953853	1.2560299636948851e-93
0.02026831002079339	1.2560299636948851e-93
0.020470993121001323	1.2560299636948851e-93
0.020675703052211336	1.2560299636948851e-93
0.02088246008273345	1.2560299636948851e-93
0.021091284683560786	1.2560299636948851e-93
0.021302197530396395	1.2560299636948851e-93
0.02151521950570036	1.2560299636948851e-93
0.02173037170075736	1.2560299636948851e-93
0.02194767541776493	1.2560299636948851e-93
0.022167152171942584	1.2560299636948851e-93
0.022388823693662012	1.2560299636948851e-93
0.02261271193059863	1.2560299636948851e-93
0.022838839049904615	1.2560299636948851e-93
0.023067227440403664	1.2560299636948851e-93
0.0232978997148077	1.2560299636948851e-93
0.023530878711955777	1.2560299636948851e-93
0.023766187499075334	1.2560299636948851e-93
0.024003849374066088	1.2560299636948851e-93
0.02424388786780675	1.2560299636948851e-93
0.024486326746484814	1.2560299636948851e-93
0.024731190013949664	1.2560299636948851e-93
0.024978501914089166	1.2560299636948851e-93
0.025228286933230055	1.2560299636948851e-93
0.02548056980256236	1.2560299636948851e-93
0.025735375500587982	1.2560299636948851e-93
0.025992729255593858	1.2560299636948851e-93
0.0262526565481498	1.2560299636948851e-93
0.026515183113631293	1.2560299636948851e-93
0.02678033494476761	1.2560299636948851e-93
0.027048138294215287	1.2560299636948851e-93
0.02731861967715744	1.2560299636948851e-93
0.027591805873929013	1.2560299636948851e-93
0.027867723932668304	1.2560299636948851e-93
0.02814640117199499	1.2560299636948851e-93
0.028427865183714936	1.2560299636948851e-93
0.02871214383555209	1.2560299636948851e-93
0.028999265273907608	1.2560299636948851e-93
0.029289257926646682	1.2560299636948851e-93
0.029582150505913153	1.2560299636948851e-93
0.02987797201097228	1.2560299636948851e-93
0.030176751731082006	1.2560299636948851e-93
0.030478519248392826	1.2560299636948851e-93
0.030783304440876753	1.2560299636948851e-93
0.031091137485285525	1.2560299636948851e-93
0.03140204886013838	1.2560299636948851e-93
0.03171606934873976	1.2560299636948851e-93
0.03203323004222716	1.2560299636948851e-93
0.03235356234264943	1.2560299636948851e-93
0.03267709796607593	1.2560299636948851e-93
0.03300386894573669	1.2560299636948851e-93
0.03333390763519405	1.2560299636948851e-93
0.033667246711545994	1.2560299636948851e-93
0.034003919178661454	1.2560299636948851e-93
0.03434395837044807	1.2560299636948851e-93
0.03468739795415255	1.2560299636948851e-93
0.03503427193369407	1.2560299636948851e-93
0.03538461465303102	1.2560299636948851e-93
0.03573846079956133	1.2560299636948851e-93
0.03609584540755694	1.256917662299545e-93
0.03645680386163251	1.2602607783046881e-93
0.03682137190024883	1.2636373254698826e-93
0.03718958561925133	2.502680972649529e-93
0.03756148147544384	4.929974405571662e-93
0.03793709629019828	7.381540772823054e-93
0.03831646725310026	1.0390895277539296e-90
0.038699631925631264	2.2877392278891485e-90
0.039086628244887574	1.0795893651365991e-88
0.039477494527336454	5.803304476363571e-88
0.03987226947260982	1.0574256738702786e-87
0.04027099216733592	9.08408595406083e-86
0.04067370208900927	2.2403480187317e-85
0.04108043910989937	6.076619196143364e-84
0.04149124350099836	3.541474715483018e-83
0.04190615593600835	6.504625639310477e-83
0.042325217495368425	3.9390009058433186e-81
0.04274846967032212	8.972011491726097e-81
0.043175954367025336	2.9689404658434064e-79
0.04360771391069559	9.960621778465867e-79
0.04404379104980254	9.237104329427304e-78
0.04448422896030057	8.573402693487106e-77
0.04492907124990358	1.629959187663697e-76
0.04537836196240262	6.095995277606769e-75
0.04583214558202665	1.3196887946642142e-74
0.04629046703784691	3.444135980943398e-73
0.046753371708225376	8.680733201765904e-73
0.04722090542530763	1.6961098214879943e-71
0.047693114479560705	5.076527867575698e-71
0.04817004562435631	7.021706250494443e-70
0.04865174608059988	2.485219865569725e-69
0.04913826354140587	2.7322017414380522e-68
0.04962964617681994	1.1100955975210196e-67
0.05012594263858814	3.4836310313118494e-61
0.05062720206497402	1.7348689278902186e-60
0.05113347408562376	1.8102223833521756e-59
0.051644808826479996	7.685461172466483e-59
0.0521612569147448	4.0618548851368706e-58
0.052682869483892246	1.339449912879691e-57
0.05320969817873117	7.202441224210196e-57
0.05374179516051848	2.0639679641136096e-56
0.054279213112123664	1.2267256083911996e-55
0.0548220052432449	3.083491807202299e-55
0.05537022529567735	1.8528638726211108e-54
0.05592392754863413	4.071749278855304e-54
0.056483166824120475	5.906085676535679e-53
0.057047998492361675	2.155878395939042e-52
0.057618478477285295	1.380739559686945e-51
0.05819466326205815	4.895038508000509e-51
0.05877660989467873	1.3071562940532847e-50
0.05936437599362551	8.755718825018283e-50
0.05995801975356178	2.0379607063621727e-49
0.06055759995109739	1.0482876240868327e-48
0.06116317595060837	3.489453581039472e-48
0.061774807710114454	1.0152678329600073e-47
0.062392555787215594	4.2065132597584254e-47
0.06301648134508775	9.558686488451283e-47
0.06364664615853863	3.99033835415059e-46
0.06428311262012401	1.3989641540090695e-45
0.06492594374632525	3.2830446814137355e-45
0.06557520318378851	1.330364038528853e-44
0.0662309552156264	4.2120619925835767e-44
0.06689326476778266	1.0399664256818553e-43
0.06756219741546049	3.891776263909369e-43
0.0682378193896151	1.1831438164704422e-42
0.06892019758351124	2.8463443505634623e-42
0.06960939955934635	1.012377250387565e-41
0.07030549355493981	3.080058939246458e-41
0.07100854849048922	6.948235547639169e-41
0.07171863397539412	2.3529445125766347e-40
0.07243582031514804	7.297496007715845e-40
0.07316017851829953	1.9267560402913332e-39
0.07389178030348253	4.858922816930317e-39
0.07463069810651736	1.5238753824532112e-38
0.07537700508758254	4.3525001665715095e-38
0.07613077513845835	1.0966442786421566e-37
0.07689208288984294	2.7860866951238686e-37
0.07766100371874136	8.925860631145835e-37
0.07843761375592878	3.122431610841685e-36
0.07922198989348807	8.669146689467812e-36
0.08001420979242296	2.0075666408542676e-35
0.08081435189034718	5.651727367229248e-35
0.08162249540925066	1.5729989090069011e-34
0.08243872036334317	4.1843521360171e-34
0.08326310756697661	9.70246321977532e-34
0.08409573864264637	1.686144449966126e-33
0.08493669602907282	8.559329549563435e-34
0.08578606298936356	2.0760007962758763e-33
0.0866439236192572	6.338162388571432e-33
0.08751036285544977	2.627682192446011e-32
0.08838546648400426	1.324148223838258e-31
0.08926932114884432	3.0911281522369612e-31
0.09016201436033276	3.071439090967923e-29
0.09106363450393609	3.18263966184609e-28
0.09197427084897544	2.1896537141583525e-27
0.0928940135574652	5.259139791003629e-28
0.09382295369303986	6.463685564459074e-28
0.09476118322997025	4.806250775704923e-28
0.09570879506226997	2.2473319129020145e-27
0.09666588301289265	3.7265889692162726e-27
0.09763254184302157	1.8518351807773386e-26
0.09860886726145181	4.293596201294298e-24
0.09959495593406631	4.9786274366735557e-23
0.10059090549340699	3.6507433957993344e-23
0.10159681454834106	2.9415793201821056e-24
0.10261278269382446	1.2349198142500065e-25
0.10363891052076271	2.6838604351682055e-25
0.10467529962597034	6.433170877240877e-25
0.10572205262223004	1.5309857433352682e-24
0.10677927314845236	3.613717578435942e-24
0.10784706587993687	8.467812355195267e-24
0.10892553653873624	1.930728479764114e-23
0.1100147919041236	1.1012499640167867e-22
0.11111493982316484	3.083256037310504e-19
0.1122260892213965	7.734492050974146e-18
0.11334835011361045	1.8113083509987864e-17
0.11448183361474655	8.007332661662298e-18
0.11562665195089401	1.1989905803480899e-17
0.11678291847040295	2.269761489924536e-17
0.117950747655107	3.4581544474986665e-16
0.11913025513165806	1.264654147504361e-15
0.12032155768297464	6.89228594232037e-16
0.1215247732598044	5.5672756926447856e-15
0.12274002099240244	1.1076014164320118e-13
0.12396742120232647	6.331862987802175e-13
0.12520709541434974	5.775841692282436e-13
0.12645916636849325	2.347576050932675e-13
0.12772375803217817	2.418684020479586e-13
0.12900099561249995	7.382365818894394e-13
0.13029100556862497	6.683730889746864e-13
0.1315939156243112	1.330675237629032e-12
0.1329098547805543	1.7225672989005526e-12
0.13423895332835986	3.2130230193630336e-12
0.13558134286164344	3.5978131126737267e-12
0.1369371562902599	3.0527265169196285e-12
0.1383065278531625	1.9656649776766075e-11
0.13968959313169413	1.187118303352859e-10
0.14108648906301105	2.843263140985568e-10
0.1424973539536412	7.473594029725749e-10
0.14392232749317757	9.169432504926671e-10
0.14536155076810936	5.547272103504009e-09
0.14681516627579044	8.162746108440444e-09
0.14828331793854838	1.1566490881866717e-08
0.14976615111793384	1.7160141935713407e-08
0.15126381262911318	1.8952714820769965e-08
0.15277645075540433	7.617456004355431e-09
0.15430421526295837	4.899287825979617e-09
0.15584725741558797	8.43144807033285e-09
0.15740572998974384	1.2812064287888461e-08
0.15897978728964127	1.336158311718368e-08
0.1605695851625377	1.9493521341252576e-08
0.16217528101416306	3.5000151491574394e-09
0.16379703382430472	6.510138683301553e-09
0.16543500416254772	1.6002217556379835e-08
0.16708935420417323	1.7645796680164462e-07
0.16876024774621495	8.70726777653171e-09
0.17044785022367712	1.42741958534575e-06
0.17215232872591388	4.0762862757715073e-07
0.173873852013173	1.0029300859401636e-07
0.17561259053330475	1.1782387703320575e-06
0.1773687164386378	7.524832891123158e-06
0.1791424036030242	2.673446739700886e-05
0.1809338276390544	9.00299948563021e-07
0.18274316591544498	5.0742374646280616e-05
0.18457059757459943	1.2136629758784443e-05
0.1864163035503454	1.161587331662863e-06
0.18828046658584888	2.7413060152301285e-06
0.19016327125170737	8.046948847342186e-06
0.19206490396422443	0.00016755438213079602
0.1939855530038667	0.0007405449693683343
0.19592540853390536	0.00158138022063525
0.19788466261924442	0.002239723171284609
0.19986350924543686	0.002013699305168981
0.2018621443378912	0.0024952422406472347
0.20388076578127012	0.0030153112505508146
0.20591957343908285	0.004088556794979678
0.20797876917347366	0.008114089880001955
0.21005855686520844	0.04081319722173481
0.2121591424338605	0.009540750238158952
0.21428073385819912	0.08645058079090812
0.21642354119678112	0.04119173885662955
0.2185877766087489	0.16141442126946148
0.2207736543748364	0.03536044133175142
0.22298139091858477	2.2486835742712694
0.2252112048277706	0.03392123169712773
0.22746331687604834	0.1758757352148253
0.22973795004480882	2.6663712117129243
0.23203532954525688	4.4362491081593145
0.23435568284070946	11.248513977491474
0.23669923966911657	1.399086428346966
0.2390662320658077	10.940843476765904
0.2414568943864658	82.5028302370058
0.2438714633303305	188.11947432089582
0.24631017796363378	114.95031810444715
0.24877327974327013	16.034681624354704
0.2512610125407028	34.26214821041773
0.25377362266610987	448.74477053996054
0.25631135889277096	292.5188172971286
0.25887447248169865	588.8672536519327
0.26146321720651566	5939.770006124041
0.2640778493785808	9131.981331889065
0.2667186278723666	6089.812491958215
0.2693858141510903	5481.85773269815
0.2720796722926012	4114.426278081934
0.27480046901552724	4914.047121178264
0.27754847370568253	20249.30245555723
0.28032395844273933	5369.640996103788
0.28312719802716674	6634.6834634580155
0.2859584700074384	1904.621498043384
0.28881805470751276	39549.2042434459
0.2917062352545879	100468.99161137408
0.2946232976071338	49226.44838632089
0.2975695305832051	39084.584554103414
0.30054522588903715	33458.10340345233
0.3035506781479275	82364.95709102115
0.3065861849294068	151131.6533216204
0.3096520467787009	104561.18107408284
0.3127485672464879	1522069.6901527606
0.3158760529189528	3243591.7832003944
0.31903481344814233	1981351.3698792136
0.3222251615826237	2551223.0961364647
0.32544741319844994	6070013.443726731
0.3287018873304345	9951798.113182675
0.33198890620373883	12009034.841241542
0.3353087952657762	9863055.485552637
0.338661883218434	4615616.383813561
0.3420485020506183	3148372.9075888577
0.34546898707112456	1338645.438029848
0.3489236769418358	2472873.3822379676
0.35241291371125416	3526949.4631552203
0.3559370428483667	7911326.682097744
0.3594964132768504	1417987.3954138851
0.3630913774096189	9707884.984085009
0.3667222911837151	20647498.681550562
0.37038951409555215	9198982.754275551
0.37409340923650775	1147031.9056772136
0.37783434332887283	24298648.552901834
0.38161268676216153	11804526.273467746
0.38542881362978315	6837999.560781505
0.389283101766081	4054101.7980610034
0.39317593278374185	7361012.847209047
0.39710769211157926	19115037.406321097
0.401078769032695	71283928.72101842
0.405089556723022	56157872.23822307
0.4091404522902522	84251426.47801355
0.4132318568131547	65972879.489499986
0.4173641753812863	37268336.875900894
0.42153781713509914	5137157.2396819955
0.4257531953064501	11302821.178898416
0.43001072725951467	31443792.535256553
0.43431083453210984	66768053.22149009
0.43865394287743087	79910304.09118882
0.44304048230620524	88529144.08765453
0.44747088712926725	128044025.5092704
0.45194559600055995	111531291.32907937
0.4564650519605655	188089543.9147625
0.4610297024801712	119390617.34543459
0.4656399995049729	120597871.64917761
0.47029639950002267	140548824.77185658
0.47499936349502286	172396039.24323127
0.4797493571299731	84445707.57524176
0.48454685070127285	96162284.27527387
0.48939231920828563	214214236.01926282
0.4942862424003685	330875347.02263767
0.4992291048243721	125025731.21742848
0.5042213958726158	124756403.06275766
0.509263609831342	131527351.97793297
0.5143562459296555	229375164.0190695
0.519499808388952	78932083.86517051
0.5246948064728415	246306688.29340437
0.52994175453757	313988952.94988793
0.5352411720829456	415365154.2703403
0.5405935838037751	375774137.96387917
0.5459995196418129	196871495.47455233
0.551459514838231	264577046.2688032
0.5569741099866133	361893941.08403766
0.5625438510864794	181757198.87496778
0.5681692895973443	291565315.5098992
0.5738509824933177	445402178.6932037
0.5795894923182509	402087092.3495685
0.5853853872414334	232559132.65799204
0.5912392411138477	83527874.6537716
0.5971516335249862	221246615.6342736
0.6031231498602361	404965212.5432307
0.6091543813588385	577510012.0632595
0.6152459251724268	445696051.3287847
0.6213983844241512	152213623.4115157
0.6276123682683926	177893645.18911552
0.6338884919510765	395103388.7824389
0.6402273768705874	355527725.5660055
0.6466296506392932	489611338.3907143
0.6530959471456862	575974965.9060535
0.6596269066171431	606802348.8030719
0.6662231756833145	450325617.26411843
0.6728854074401477	241704245.48961797
0.6796142615145492	280557315.79904467
0.6864104041296946	344744621.1849696
0.6932745081709915	344680746.08736604
0.7002072532527015	682936906.3921796
0.7072093257852285	441089595.7376045
0.7142814190430807	244827401.6548818
0.7214242332335116	407137805.20240194
0.7286384755658467	1106533798.5558832
0.7359248603215052	1757138551.5416784
0.7432841089247202	1818854049.4382615
0.7507169500139675	1894351061.1427407
0.7582241195141072	1914488258.378805
0.7658063607092482	819364321.105818
0.7734644243163408	1092278315.1064477
0.781199068559504	1514228927.8928359
0.7890110592450992	1584937550.130502
0.7969011698375502	1759093316.5388231
0.8048701815359257	2277508161.7521515
0.8129188833512849	2871951687.9547834
0.8210480721847978	2419014160.693449
0.8292585529066457	2633700679.5499454
0.8375511384357123	2569100727.2131286
0.8459266498200694	1810517273.954679
0.8543859163182701	2162410619.251192
0.8629297754814528	2262423331.2872715
0.8715590732362674	2327583104.806964
0.8802746639686301	2566965282.814227
0.8890774106083162	2249061476.712864
0.8979681847143995	2412552701.553759
0.9069478665615435	2452917711.9391127
0.9160173452271589	2811867464.632878
0.9251775186794305	2747459662.0798116
0.9344292938662249	2800761739.3649883
0.9437735868048871	2956111964.8545485
0.953211322672936	3042819005.03935
0.9627434358996654	2942334237.296076
0.9723708702586621	2892805082.987624
0.9820945789612486	3157625998.050862
0.9919155247508612	2356451049.5817223
1.0018346799983697	2674918556.6868105
1.0118530267983534	2780540733.5120325
1.021971557066337	2874639841.355773
1.0321912726370004	2995476610.4132137
1.0425131853633705	3119266045.5025907
1.0529383172170041	3131164419.391895
1.0634677003891742	3113479934.605241
1.074102377393066	3261760731.9821844
1.0848434011669965	3309061030.8466086
1.0956918351786664	3367932596.1333075
1.1066487535304532	2981834657.138343
1.1177152410657578	2992027072.7907453
1.1288923934764155	3021691594.9790063
1.1401813174111797	2701509016.4568877
1.1515831305852913	3131456613.9340067
1.1630989618911443	3099917917.8225017
1.1747299515100555	2938850931.421916
1.1864772510251562	2837752899.6682563
1.1983420235354079	2834607171.601234
1.210325443770762	2860697023.946845
1.2224286982084696	2966563411.737119
1.2346529851905543	2926365267.6927567
1.2469995150424598	2757612659.401194
1.2594695101928843	2874010657.5689616
1.2720642052948132	2846058802.1760654
1.2847848473477614	2809828852.923615
