#wavelength	surface flux
0.01	7.426162559071949e-94
0.0101	7.939576266859637e-94
0.010201	8.458124111725206e-94
0.010303010000000001	8.981857435039436e-94
0.0104060401	9.510828091586793e-94
0.010510100501000002	1.0045088454699642e-93
0.01061520150601	1.0584691421443605e-93
0.010721353521070101	1.1129690417855017e-93
0.010828567056280802	1.1680139404230534e-93
0.010936852726843608	1.2236092880469801e-93
0.011046221254112046	1.2560299636948851e-93
0.011156683466653166	1.2560299636948851e-93
0.011268250301319697	1.2560299636948851e-93
0.011380932804332895	1.2560299636948851e-93
0.011494742132376225	1.2560299636948851e-93
0.011609689553699986	1.2560299636948851e-93
0.011725786449236988	1.2560299636948851e-93
0.011843044313729357	1.2560299636948851e-93
0.01196147475686665	1.2560299636948851e-93
0.012081089504435316	1.2560299636948851e-93
0.012201900399479671	1.2560299636948851e-93
0.012323919403474468	1.2560299636948851e-93
0.012447158597509212	1.2560299636948851e-93
0.012571630183484304	1.2560299636948851e-93
0.012697346485319148	1.2560299636948851e-93
0.012824319950172339	1.2560299636948851e-93
0.012952563149674063	1.2560299636948851e-93
0.013082088781170804	1.2560299636948851e-93
0.013212909668982512	1.2560299636948851e-93
0.013345038765672336	1.2560299636948851e-93
0.013478489153329061	1.2560299636948851e-93
0.013613274044862352	1.2560299636948851e-93
0.013749406785310975	1.2560299636948851e-93
0.013886900853164083	1.2560299636948851e-93
0.014025769861695726	1.2560299636948851e-93
0.014166027560312683	1.2560299636948851e-93
0.01430768783591581	1.2560299636948851e-93
0.014450764714274969	1.2560299636948851e-93
0.014595272361417718	1.2560299636948851e-93
0.014741225085031895	1.2560299636948851e-93
0.014888637335882214	1.2560299636948851e-93
0.015037523709241036	1.2560299636948851e-93
0.015187898946333447	1.2560299636948851e-93
0.015339777935796781	1.2560299636948851e-93
0.015493175715154751	1.2560299636948851e-93
0.015648107472306296	1.2560299636948851e-93
0.01580458854702936	1.2560299636948851e-93
0.015962634432499654	1.2560299636948851e-93
0.016122260776824653	1.2560299636948851e-93
0.016283483384592897	1.2560299636948851e-93
0.016446318218438827	1.2560299636948851e-93
0.016610781400623217	1.2560299636948851e-93
0.016776889214629446	1.2560299636948851e-93
0.016944658106775742	1.2560299636948851e-93
0.0171141046878435	1.2560299636948851e-93
0.017285245734721934	1.2560299636948851e-93
0.017458098192069154	1.2560299636948851e-93
0.017632679173989845	1.2560299636948851e-93
0.017809005965729745	1.2560299636948851e-93
0.01798709602538704	1.2560299636948851e-93
0.018166966985640912	1.2560299636948851e-93
0.01834863665549732	1.2560299636948851e-93
0.018532123022052295	1.2560299636948851e-93
0.01871744425227282	1.2560299636948851e-93
0.01890461869479555	1.2560299636948851e-93
0.0190936648817435	1.2560299636948851e-93
0.019284601530560937	1.2560299636948851e-93
0.01947744754586655	1.2560299636948851e-93
0.019672222021325212	1.2560299636948851e-93
0.019868944241538466	1.2560299636948851e-93
0.020067633683953853	1.2560299636948851e-93
0.02026831002079339	1.2560299636948851e-93
0.020470993121001323	1.2560299636948851e-93
0.020675703052211336	1.2560299636948851e-93
0.02088246008273345	1.2560299636948851e-93
0.021091284683560786	1.2560299636948851e-93
0.021302197530396395	1.2560299636948851e-93
0.02151521950570036	1.2560299636948851e-93
0.02173037170075736	1.2560299636948851e-93
0.02194767541776493	1.2560299636948851e-93
0.022167152171942584	1.2560299636948851e-93
0.022388823693662012	1.2560299636948851e-93
0.02261271193059863	1.2560299636948851e-93
0.022838839049904615	1.2560299636948851e-93
0.023067227440403664	1.2560299636948851e-93
0.0232978997148077	1.2560299636948851e-93
0.023530878711955777	1.2560299636948851e-93
0.023766187499075334	1.2560299636948851e-93
0.024003849374066088	1.2560299636948851e-93
0.02424388786780675	1.2560299636948851e-93
0.024486326746484814	1.2560299636948851e-93
0.024731190013949664	1.2560299636948851e-93
0.024978501914089166	1.2560299636948851e-93
0.025228286933230055	1.2560299636948851e-93
0.02548056980256236	1.2560299636948851e-93
0.025735375500587982	1.2560299636948851e-93
0.025992729255593858	1.2560299636948851e-93
0.0262526565481498	1.2560299636948851e-93
0.026515183113631293	1.2560299636948851e-93
0.02678033494476761	1.2560299636948851e-93
0.027048138294215287	1.2560299636948851e-93
0.02731861967715744	1.2560299636948851e-93
0.027591805873929013	1.2560299636948851e-93
0.027867723932668304	1.2560299636948851e-93
0.02814640117199499	1.2560299636948851e-93
0.028427865183714936	1.2560299636948851e-93
0.02871214383555209	1.2560299636948851e-93
0.028999265273907608	1.2560299636948851e-93
0.029289257926646682	1.2560299636948851e-93
0.029582150505913153	1.2560299636948851e-93
0.02987797201097228	1.2560299636948851e-93
0.030176751731082006	1.2560299636948851e-93
0.030478519248392826	1.2560299636948851e-93
0.030783304440876753	1.2560299636948851e-93
0.031091137485285525	1.2560299636948851e-93
0.03140204886013838	1.2560299636948851e-93
0.03171606934873976	1.2560299636948851e-93
0.03203323004222716	1.2560299636948851e-93
0.03235356234264943	1.2560299636948851e-93
0.03267709796607593	1.2560299636948851e-93
0.03300386894573669	1.2560299636948851e-93
0.03333390763519405	1.2560299636948851e-93
0.033667246711545994	1.2560299636948851e-93
0.034003919178661454	1.2560299636948851e-93
0.03434395837044807	1.2560299636948851e-93
0.03468739795415255	1.2560299636948851e-93
0.03503427193369407	1.2560299636948851e-93
0.03538461465303102	1.2560299636948851e-93
0.03573846079956133	1.2560299636948851e-93
0.03609584540755694	1.2560299636948851e-93
0.03645680386163251	1.2560299636948851e-93
0.03682137190024883	1.2560299636948851e-93
0.03718958561925133	1.2560299636948851e-93
0.03756148147544384	1.2560299636948851e-93
0.03793709629019828	1.2560299636948851e-93
0.03831646725310026	1.2560299636948851e-93
0.038699631925631264	1.2560299636948851e-93
0.039086628244887574	1.2560299636948851e-93
0.039477494527336454	1.2560299636948851e-93
0.03987226947260982	1.2560299636948851e-93
0.04027099216733592	1.2560299636948851e-93
0.04067370208900927	1.2560299636948851e-93
0.04108043910989937	1.2560299636948851e-93
0.04149124350099836	1.2560299636948851e-93
0.04190615593600835	1.2560299636948851e-93
0.042325217495368425	1.2560299636948851e-93
0.04274846967032212	1.2560299636948851e-93
0.043175954367025336	1.2560299636948851e-93
0.04360771391069559	1.2560299636948851e-93
0.04404379104980254	1.2560299636948851e-93
0.04448422896030057	1.2560299636948851e-93
0.04492907124990358	1.2560299636948851e-93
0.04537836196240262	1.2560299636948851e-93
0.04583214558202665	1.2560299636948851e-93
0.04629046703784691	1.2560299636948851e-93
0.046753371708225376	1.2560299636948851e-93
0.04722090542530763	1.2560299636948851e-93
0.047693114479560705	1.2560299636948851e-93
0.04817004562435631	1.2560299636948851e-93
0.04865174608059988	1.2560299636948851e-93
0.04913826354140587	1.2560299636948851e-93
0.04962964617681994	1.2560299636948851e-93
0.05012594263858814	1.2560299636948851e-93
0.05062720206497402	1.2560299636948851e-93
0.05113347408562376	1.2560299636948851e-93
0.051644808826479996	1.2560299636948851e-93
0.0521612569147448	1.2560299636948851e-93
0.052682869483892246	1.2560299636948851e-93
0.05320969817873117	1.2560299636948851e-93
0.05374179516051848	1.2560299636948851e-93
0.054279213112123664	1.2560299636948851e-93
0.0548220052432449	1.2560299636948851e-93
0.05537022529567735	1.2560299636948851e-93
0.05592392754863413	1.2560299636948851e-93
0.056483166824120475	1.2560299636948851e-93
0.057047998492361675	1.2560299636948851e-93
0.057618478477285295	1.2560299636948851e-93
0.05819466326205815	1.2560299636948851e-93
0.05877660989467873	1.2560299636948851e-93
0.05936437599362551	1.2560299636948851e-93
0.05995801975356178	1.2560299636948851e-93
0.06055759995109739	1.2560299636948851e-93
0.06116317595060837	1.2560299636948851e-93
0.061774807710114454	1.2560299636948851e-93
0.062392555787215594	1.2560299636948851e-93
0.06301648134508775	1.2560299636948851e-93
0.06364664615853863	1.2560299636948851e-93
0.06428311262012401	1.2560299636948851e-93
0.06492594374632525	1.2560299636948851e-93
0.06557520318378851	1.2560299636948851e-93
0.0662309552156264	1.2560299636948851e-93
0.06689326476778266	1.2560299636948851e-93
0.06756219741546049	1.2560299636948851e-93
0.0682378193896151	1.2560299636948851e-93
0.06892019758351124	1.2560299636948851e-93
0.06960939955934635	1.2560299636948851e-93
0.07030549355493981	1.2560299636948851e-93
0.07100854849048922	1.2560299636948851e-93
0.07171863397539412	1.2560299636948851e-93
0.07243582031514804	1.2560299636948851e-93
0.07316017851829953	1.2560299636948851e-93
0.07389178030348253	1.2560299636948851e-93
0.07463069810651736	1.2560299636948851e-93
0.07537700508758254	1.2560299636948851e-93
0.07613077513845835	1.2560299636948851e-93
0.07689208288984294	1.2560299636948851e-93
0.07766100371874136	1.2560299636948851e-93
0.07843761375592878	1.2560299636948851e-93
0.07922198989348807	1.2560299636948851e-93
0.08001420979242296	1.2560299636948851e-93
0.08081435189034718	1.2560299636948851e-93
0.08162249540925066	1.2560299636948851e-93
0.08243872036334317	1.2560299636948851e-93
0.08326310756697661	1.2560299636948851e-93
0.08409573864264637	1.2560299636948851e-93
0.08493669602907282	1.2560299636948851e-93
0.08578606298936356	1.2560299636948851e-93
0.0866439236192572	1.2560299636948851e-93
0.08751036285544977	1.2560299636948851e-93
0.08838546648400426	1.2560299636948851e-93
0.08926932114884432	1.2560299636948851e-93
0.09016201436033276	1.2560299636948851e-93
0.09106363450393609	1.2560299636948851e-93
0.09197427084897544	1.2560299636948851e-93
0.0928940135574652	1.2560299636948851e-93
0.09382295369303986	1.2560299636948851e-93
0.09476118322997025	1.2560299636948851e-93
0.09570879506226997	1.2560299636948851e-93
0.09666588301289265	1.2560299636948851e-93
0.09763254184302157	1.2560299636948851e-93
0.09860886726145181	1.2560299636948851e-93
0.09959495593406631	1.2560299636948851e-93
0.10059090549340699	1.2560299636948851e-93
0.10159681454834106	1.2560299636948851e-93
0.10261278269382446	1.2560299636948851e-93
0.10363891052076271	1.2560299636948851e-93
0.10467529962597034	1.2560299636948851e-93
0.10572205262223004	1.2560299636948851e-93
0.10677927314845236	1.2560299636948851e-93
0.10784706587993687	1.2560299636948851e-93
0.10892553653873624	1.2560299636948851e-93
0.1100147919041236	1.2560299636948851e-93
0.11111493982316484	1.2560299636948851e-93
0.1122260892213965	1.2560299636948851e-93
0.11334835011361045	1.2560299636948851e-93
0.11448183361474655	1.2560299636948851e-93
0.11562665195089401	1.2560299636948851e-93
0.11678291847040295	1.2560299636948851e-93
0.117950747655107	1.2560299636948851e-93
0.11913025513165806	1.2560299636948851e-93
0.12032155768297464	1.2560299636948851e-93
0.1215247732598044	1.2560299636948851e-93
0.12274002099240244	1.2560299636948851e-93
0.12396742120232647	1.2560299636948851e-93
0.12520709541434974	1.2560299636948851e-93
0.12645916636849325	1.2560299636948851e-93
0.12772375803217817	1.2560299636948851e-93
0.12900099561249995	1.2560299636948851e-93
0.13029100556862497	1.2560299636948851e-93
0.1315939156243112	1.2560299636948851e-93
0.1329098547805543	1.2560299636948851e-93
0.13423895332835986	1.2560299636948851e-93
0.13558134286164344	1.2560299636948851e-93
0.1369371562902599	1.2560299636948851e-93
0.1383065278531625	1.2560299636948851e-93
0.13968959313169413	1.2560299636948851e-93
0.14108648906301105	1.2560299636948851e-93
0.1424973539536412	1.2560299636948851e-93
0.14392232749317757	1.2560299636948851e-93
0.14536155076810936	1.2560299636948851e-93
0.14681516627579044	1.2560299636948851e-93
0.14828331793854838	1.2560299636948851e-93
0.14976615111793384	1.2560299636948851e-93
0.15126381262911318	1.2560299636948851e-93
0.15277645075540433	1.2560299636948851e-93
0.15430421526295837	1.2560299636948851e-93
0.15584725741558797	1.2560299636948851e-93
0.15740572998974384	1.3739735258459364e-93
0.15897978728964127	1.706052241936648e-92
0.1605695851625377	1.047182469270101e-89
0.16217528101416306	1.0319312503395198e-87
0.16379703382430472	3.0841979034175125e-86
0.16543500416254772	5.340548803494892e-85
0.16708935420417323	3.4069194203548667e-84
0.16876024774621495	3.1666770086779142e-83
0.17044785022367712	2.4739209912521239e-82
0.17215232872591388	1.7490248130941143e-81
0.173873852013173	1.1773215890353697e-80
0.17561259053330475	8.520110490446975e-80
0.1773687164386378	5.719345636384676e-79
0.1791424036030242	3.4932085924473396e-78
0.1809338276390544	2.077645945561198e-77
0.18274316591544498	1.3616020440296337e-76
0.18457059757459943	8.487037130849772e-76
0.1864163035503454	5.039434462701695e-75
0.18828046658584888	2.8595459947496853e-74
0.19016327125170737	1.549145682725731e-73
0.19206490396422443	8.102746107755633e-73
0.1939855530038667	4.210871461750575e-72
0.19592540853390536	2.2407399498841255e-71
0.19788466261924442	1.1763682699423124e-70
0.19986350924543686	5.888792262765406e-70
0.2018621443378912	2.91823779385959e-69
0.20388076578127012	1.5248278024909035e-68
0.20591957343908285	7.96011244531693e-68
0.20797876917347366	4.139212311113058e-67
0.21005855686520844	2.1751936905178696e-66
0.2121591424338605	1.129310571895449e-65
0.21428073385819912	5.899120235303641e-65
0.21642354119678112	3.069653225239253e-64
0.2185877766087489	1.589960955593034e-63
0.2207736543748364	8.226548400930816e-63
0.22298139091858477	4.234545921170081e-62
0.2252112048277706	2.170457520447121e-61
0.22746331687604834	1.1020246428393058e-60
0.22973795004480882	5.576907903008666e-60
0.23203532954525688	2.77802438192575e-59
0.23435568284070946	1.3766998369925021e-58
0.23669923966911657	6.471756548049812e-58
0.2390662320658077	3.221837884772679e-57
0.2414568943864658	1.5250475547173826e-56
0.2438714633303305	7.090406666056949e-56
0.24631017796363378	3.2485178321801175e-55
0.24877327974327013	1.456285120569301e-54
0.2512610125407028	6.439912396513098e-54
0.25377362266610987	2.7823716600126343e-53
0.25631135889277096	1.1840090914987076e-52
0.25887447248169865	4.9362438815184005e-52
0.26146321720651566	2.0151908829790544e-51
0.2640778493785808	8.016236567232957e-51
0.2667186278723666	3.1366132987774147e-50
0.2693858141510903	1.2026770781927847e-49
0.2720796722926012	4.5311445140099126e-49
0.27480046901552724	1.6643622917407586e-48
0.27754847370568253	5.976473420377905e-48
0.28032395844273933	2.0960846105112854e-47
0.28312719802716674	7.187198884565606e-47
0.2859584700074384	2.4046857377487396e-46
0.28881805470751276	7.857793986000242e-46
0.2917062352545879	2.516243855223825e-45
0.2946232976071338	7.820519961407748e-45
0.2975695305832051	2.3928906196261186e-44
0.30054522588903715	7.127745508485495e-44
0.3035506781479275	2.0806173983325356e-43
0.3065861849294068	6.011048730994734e-43
0.3096520467787009	1.7440521213661035e-42
0.3127485672464879	5.125878524851872e-42
0.3158760529189528	1.552393279551377e-41
0.31903481344814233	4.898780014911903e-41
0.3222251615826237	1.6357319160098625e-40
0.32544741319844994	5.863010935944129e-40
0.3287018873304345	2.262999616501456e-39
0.33198890620373883	9.253130147370265e-39
0.3353087952657762	3.922605678340584e-38
0.338661883218434	1.6863893774473066e-37
0.3420485020506183	7.195621773435211e-37
0.34546898707112456	2.9798041213118345e-36
0.3489236769418358	1.1725886121339283e-35
0.35241291371125416	4.275430130071883e-35
0.3559370428483667	1.4139887852529857e-34
0.3594964132768504	4.17259848017609e-34
0.3630913774096189	1.1463360994429434e-33
0.3667222911837151	2.9543501352701717e-33
0.37038951409555215	7.38806527158265e-33
0.37409340923650775	1.8419387087181647e-32
0.37783434332887283	4.5772564582292253e-32
0.38161268676216153	1.1371251171868759e-31
0.38542881362978315	2.8160216409621293e-31
0.389283101766081	6.9555867889792845e-31
0.39317593278374185	1.7112143638090485e-30
0.39710769211157926	4.184290234033736e-30
0.401078769032695	1.0138520984586198e-29
0.405089556723022	2.4046607416407694e-29
0.4091404522902522	5.780297826805061e-29
0.4132318568131547	1.3651013597927128e-28
0.4173641753812863	3.2129764220702447e-28
0.42153781713509914	7.5703649529835325e-28
0.4257531953064501	1.7908329867939384e-27
0.43001072725951467	4.268950484006598e-27
0.43431083453210984	1.031498958946802e-26
0.43865394287743087	2.5265642995308733e-26
0.44304048230620524	6.253816761795513e-26
0.44747088712926725	1.5568995743635466e-25
0.45194559600055995	3.872693362717141e-25
0.4564650519605655	9.59325015146305e-25
0.4610297024801712	2.350298545411612e-24
0.4656399995049729	5.667284711106398e-24
0.47029639950002267	1.338791745268418e-23
0.47499936349502286	3.104388071238474e-23
0.4797493571299731	7.10277200023714e-23
0.48454685070127285	1.6064670123259188e-22
0.48939231920828563	3.610254724669977e-22
0.4942862424003685	8.091001428890702e-22
0.4992291048243721	1.812522151622686e-21
0.5042213958726158	4.073623701496644e-21
0.509263609831342	9.177316559025884e-21
0.5143562459296555	2.0679268585134124e-20
0.519499808388952	4.646715674221508e-20
0.5246948064728415	1.0396131724966002e-19
0.52994175453757	2.308401162940815e-19
0.5352411720829456	5.072197625712028e-19
0.5405935838037751	1.100238319004512e-18
0.5459995196418129	2.3518376768979075e-18
0.551459514838231	4.940088884217525e-18
0.5569741099866133	1.0156925562337169e-17
0.5625438510864794	2.0378442210964354e-17
0.5681692895973443	3.970721669777557e-17
0.5738509824933177	7.534427087288967e-17
0.5795894923182509	1.4045052928452118e-16
0.5853853872414334	2.601858087455837e-16
0.5912392411138477	4.845412944542354e-16
0.5971516335249862	9.182691396106547e-16
0.6031231498602361	1.7934731148168898e-15
0.6091543813588385	3.587935332419722e-15
0.6152459251724268	7.205966254537421e-15
0.6213983844241512	1.4322320121022267e-14
0.6276123682683926	2.7511141756416136e-14
0.6338884919510765	5.0144076597897685e-14
0.6402273768705874	8.617445661136104e-14
0.6466296506392932	1.4319606888725063e-13
0.6530959471456862	2.3768225559131896e-13
0.6596269066171431	4.078122654949936e-13
0.6662231756833145	7.497206037057396e-13
0.6728854074401477	1.5090943267233406e-12
0.6796142615145492	3.234278382952741e-12
0.6864104041296946	7.092274023099696e-12
0.6932745081709915	1.526478360824729e-11
0.7002072532527015	3.100253731052481e-11
0.7072093257852285	5.7842090949059526e-11
0.7142814190430807	1.0010726250731308e-10
0.7214242332335116	1.636215302475863e-10
0.7286384755658467	2.571506835886205e-10
0.7359248603215052	3.960331507723031e-10
0.7432841089247202	6.08123232794257e-10
0.7507169500139675	9.485872516880658e-10
0.7582241195141072	1.5316803407863765e-09
0.7658063607092482	2.588435998390479e-09
0.7734644243163408	4.47638740672849e-09
0.781199068559504	6.8974497153605065e-09
0.7890110592450992	1.2541888971178746e-08
0.7969011698375502	1.8991371310856245e-08
0.8048701815359257	2.823330599167089e-08
0.8129188833512849	4.094489357084243e-08
0.8210480721847978	6.081504313846861e-08
0.8292585529066457	9.350682600815524e-08
0.8375511384357123	1.4747727622734914e-07
0.8459266498200694	2.3603341724283615e-07
0.8543859163182701	3.777286678587099e-07
0.8629297754814528	6.04174296274235e-07
0.8715590732362674	9.480082124672431e-07
0.8802746639686301	1.4592506204830065e-06
0.8890774106083162	2.212908538810938e-06
0.8979681847143995	3.302589134847358e-06
0.9069478665615435	4.874989138523255e-06
0.9160173452271589	7.068169633318862e-06
0.9251775186794305	1.0136064040612752e-05
0.9344292938662249	1.4251446205991426e-05
0.9437735868048871	2.057696049503642e-05
0.953211322672936	2.9575201279371653e-05
0.9627434358996654	4.346107308525665e-05
0.9723708702586621	6.459558171256099e-05
0.9820945789612486	9.688491593503003e-05
0.9919155247508612	0.00014638747198574342
1.0018346799983697	0.00021969958129932477
1.0118530267983534	0.0003241737782596513
1.021971557066337	0.00046942720781560843
1.0321912726370004	0.0006679214073663974
1.0425131853633705	0.0009352662317331406
1.0529383172170041	0.001291791464331012
1.0634677003891742	0.0017647682010636042
