#wavelength	surface flux
0.01	7.426162559071949e-94
0.0101	7.939576266859637e-94
0.010201	8.458124111725206e-94
0.010303010000000001	8.981857435039436e-94
0.0104060401	9.510828091586793e-94
0.010510100501000002	1.0045088454699642e-93
0.01061520150601	1.0584691421443605e-93
0.010721353521070101	1.1129690417855017e-93
0.010828567056280802	1.1680139404230534e-93
0.010936852726843608	1.2236092880469801e-93
0.011046221254112046	1.2560299636948851e-93
0.011156683466653166	1.2560299636948851e-93
0.011268250301319697	1.2560299636948851e-93
0.011380932804332895	1.2560299636948851e-93
0.011494742132376225	1.2560299636948851e-93
0.011609689553699986	1.2560299636948851e-93
0.011725786449236988	1.2560299636948851e-93
0.011843044313729357	1.2560299636948851e-93
0.01196147475686665	1.2560299636948851e-93
0.012081089504435316	1.2560299636948851e-93
0.012201900399479671	1.2560299636948851e-93
0.012323919403474468	1.2560299636948851e-93
0.012447158597509212	1.2560299636948851e-93
0.012571630183484304	1.2560299636948851e-93
0.012697346485319148	1.2560299636948851e-93
0.012824319950172339	1.2560299636948851e-93
0.012952563149674063	1.2560299636948851e-93
0.013082088781170804	1.2560299636948851e-93
0.013212909668982512	1.2560299636948851e-93
0.013345038765672336	1.2560299636948851e-93
0.013478489153329061	1.2560299636948851e-93
0.013613274044862352	1.2560299636948851e-93
0.013749406785310975	1.2560299636948851e-93
0.013886900853164083	1.2560299636948851e-93
0.014025769861695726	1.2560299636948851e-93
0.014166027560312683	1.2560299636948851e-93
0.01430768783591581	1.2560299636948851e-93
0.014450764714274969	1.2560299636948851e-93
0.014595272361417718	1.2560299636948851e-93
0.014741225085031895	1.2560299636948851e-93
0.014888637335882214	1.2560299636948851e-93
0.015037523709241036	1.2560299636948851e-93
0.015187898946333447	1.2560299636948851e-93
0.015339777935796781	1.2560299636948851e-93
0.015493175715154751	1.2560299636948851e-93
0.015648107472306296	1.2560299636948851e-93
0.01580458854702936	1.2560299636948851e-93
0.015962634432499654	1.2560299636948851e-93
0.016122260776824653	1.2560299636948851e-93
0.016283483384592897	1.2560299636948851e-93
0.016446318218438827	1.2560299636948851e-93
0.016610781400623217	1.2560299636948851e-93
0.016776889214629446	1.2560299636948851e-93
0.016944658106775742	1.2560299636948851e-93
0.0171141046878435	1.2560299636948851e-93
0.017285245734721934	1.2560299636948851e-93
0.017458098192069154	1.2560299636948851e-93
0.017632679173989845	1.2560299636948851e-93
0.017809005965729745	1.2560299636948851e-93
0.01798709602538704	1.2560299636948851e-93
0.018166966985640912	1.2560299636948851e-93
0.01834863665549732	1.2560299636948851e-93
0.018532123022052295	1.2560299636948851e-93
0.01871744425227282	1.2560299636948851e-93
0.01890461869479555	1.2560299636948851e-93
0.0190936648817435	1.2560299636948851e-93
0.019284601530560937	1.2560299636948851e-93
0.01947744754586655	1.2560299636948851e-93
0.019672222021325212	1.2560299636948851e-93
0.019868944241538466	1.2560299636948851e-93
0.020067633683953853	1.2560299636948851e-93
0.02026831002079339	1.2560299636948851e-93
0.020470993121001323	1.2560299636948851e-93
0.020675703052211336	1.2560299636948851e-93
0.02088246008273345	1.2560299636948851e-93
0.021091284683560786	1.2560299636948851e-93
0.021302197530396395	1.2560299636948851e-93
0.02151521950570036	1.2560299636948851e-93
0.02173037170075736	1.2560299636948851e-93
0.02194767541776493	1.2560299636948851e-93
0.022167152171942584	1.2560299636948851e-93
0.022388823693662012	1.2560299636948851e-93
0.02261271193059863	1.2560299636948851e-93
0.022838839049904615	1.2560299636948851e-93
0.023067227440403664	1.2560299636948851e-93
0.0232978997148077	1.2560299636948851e-93
0.023530878711955777	1.2560299636948851e-93
0.023766187499075334	1.2560299636948851e-93
0.024003849374066088	1.2560299636948851e-93
0.02424388786780675	1.2560299636948851e-93
0.024486326746484814	1.2560299636948851e-93
0.024731190013949664	1.2560299636948851e-93
0.024978501914089166	1.2560299636948851e-93
0.025228286933230055	1.2560299636948851e-93
0.02548056980256236	1.2560299636948851e-93
0.025735375500587982	1.2560299636948851e-93
0.025992729255593858	1.2560299636948851e-93
0.0262526565481498	1.2560299636948851e-93
0.026515183113631293	1.2560299636948851e-93
0.02678033494476761	1.2560299636948851e-93
0.027048138294215287	1.2560299636948851e-93
0.02731861967715744	1.2560299636948851e-93
0.027591805873929013	1.2560299636948851e-93
0.027867723932668304	1.2560299636948851e-93
0.02814640117199499	1.2560299636948851e-93
0.028427865183714936	1.2560299636948851e-93
0.02871214383555209	1.2560299636948851e-93
0.028999265273907608	1.2560299636948851e-93
0.029289257926646682	1.2560299636948851e-93
0.029582150505913153	1.2560299636948851e-93
0.02987797201097228	1.2560299636948851e-93
0.030176751731082006	1.2560299636948851e-93
0.030478519248392826	1.2560299636948851e-93
0.030783304440876753	1.2560299636948851e-93
0.031091137485285525	1.2560299636948851e-93
0.03140204886013838	1.2560299636948851e-93
0.03171606934873976	1.2560299636948851e-93
0.03203323004222716	1.2560299636948851e-93
0.03235356234264943	1.2560299636948851e-93
0.03267709796607593	1.2560299636948851e-93
0.03300386894573669	1.2560299636948851e-93
0.03333390763519405	1.2560299636948851e-93
0.033667246711545994	1.2560299636948851e-93
0.034003919178661454	1.2560299636948851e-93
0.03434395837044807	1.2560299636948851e-93
0.03468739795415255	1.2560299636948851e-93
0.03503427193369407	1.2560299636948851e-93
0.03538461465303102	1.2560299636948851e-93
0.03573846079956133	1.2560299636948851e-93
0.03609584540755694	1.2560299636948851e-93
0.03645680386163251	1.2560299636948851e-93
0.03682137190024883	1.2560299636948851e-93
0.03718958561925133	1.2560299636948851e-93
0.03756148147544384	1.2560299636948851e-93
0.03793709629019828	1.2560299636948851e-93
0.03831646725310026	1.2560299636948851e-93
0.038699631925631264	1.2560299636948851e-93
0.039086628244887574	1.2560299636948851e-93
0.039477494527336454	1.2560299636948851e-93
0.03987226947260982	1.2560299636948851e-93
0.04027099216733592	1.2560299636948851e-93
0.04067370208900927	1.2560299636948851e-93
0.04108043910989937	1.2560299636948851e-93
0.04149124350099836	1.2560299636948851e-93
0.04190615593600835	1.2560299636948851e-93
0.042325217495368425	1.2560299636948851e-93
0.04274846967032212	1.2560299636948851e-93
0.043175954367025336	1.2560299636948851e-93
0.04360771391069559	1.2560299636948851e-93
0.04404379104980254	1.2560299636948851e-93
0.04448422896030057	1.2560299636948851e-93
0.04492907124990358	1.2560299636948851e-93
0.04537836196240262	1.2560299636948851e-93
0.04583214558202665	1.2560299636948851e-93
0.04629046703784691	1.2560299636948851e-93
0.046753371708225376	1.2560299636948851e-93
0.04722090542530763	1.2560299636948851e-93
0.047693114479560705	1.2560299636948851e-93
0.04817004562435631	1.2560299636948851e-93
0.04865174608059988	1.2560299636948851e-93
0.04913826354140587	1.2560299636948851e-93
0.04962964617681994	1.2560299636948851e-93
0.05012594263858814	1.2560299636948851e-93
0.05062720206497402	1.2560299636948851e-93
0.05113347408562376	1.2560299636948851e-93
0.051644808826479996	1.2560299636948851e-93
0.0521612569147448	1.2560299636948851e-93
0.052682869483892246	1.2560299636948851e-93
0.05320969817873117	1.2560299636948851e-93
0.05374179516051848	1.2560299636948851e-93
0.054279213112123664	1.2560299636948851e-93
0.0548220052432449	1.2560299636948851e-93
0.05537022529567735	1.2560299636948851e-93
0.05592392754863413	1.2560299636948851e-93
0.056483166824120475	1.2560299636948851e-93
0.057047998492361675	1.2560299636948851e-93
0.057618478477285295	1.2560299636948851e-93
0.05819466326205815	1.2560299636948851e-93
0.05877660989467873	1.2560299636948851e-93
0.05936437599362551	1.2560299636948851e-93
0.05995801975356178	1.2560299636948851e-93
0.06055759995109739	1.2560299636948851e-93
0.06116317595060837	1.2560299636948851e-93
0.061774807710114454	1.2560299636948851e-93
0.062392555787215594	1.2560299636948851e-93
0.06301648134508775	1.2560299636948851e-93
0.06364664615853863	1.2560299636948851e-93
0.06428311262012401	1.2560299636948851e-93
0.06492594374632525	1.2560299636948851e-93
0.06557520318378851	1.2560299636948851e-93
0.0662309552156264	1.2560299636948851e-93
0.06689326476778266	1.2560299636948851e-93
0.06756219741546049	1.2560299636948851e-93
0.0682378193896151	1.2560299636948851e-93
0.06892019758351124	1.2560299636948851e-93
0.06960939955934635	1.2560299636948851e-93
0.07030549355493981	1.2560299636948851e-93
0.07100854849048922	1.2560299636948851e-93
0.07171863397539412	1.2560299636948851e-93
0.07243582031514804	1.2560299636948851e-93
0.07316017851829953	1.2560299636948851e-93
0.07389178030348253	1.2560299636948851e-93
0.07463069810651736	1.2560299636948851e-93
0.07537700508758254	1.2560299636948851e-93
0.07613077513845835	1.2560299636948851e-93
0.07689208288984294	1.2560299636948851e-93
0.07766100371874136	2.6213321070936508e-80
0.07843761375592878	3.143380701326198e-79
0.07922198989348807	8.61136857911726e-79
0.08001420979242296	1.5200025623122249e-78
0.08081435189034718	3.741964078759977e-79
0.08162249540925066	9.41101198078496e-65
0.08243872036334317	7.179537975101978e-60
0.08326310756697661	7.120663622461878e-59
0.08409573864264637	2.049050942058258e-58
0.08493669602907282	3.01119072667224e-59
0.08578606298936356	3.6271227988358805e-60
0.0866439236192572	1.2560299636948851e-93
0.08751036285544977	1.2560299636948851e-93
0.08838546648400426	1.2560299636948851e-93
0.08926932114884432	1.2560299636948851e-93
0.09016201436033276	1.2560299636948851e-93
0.09106363450393609	1.2560299636948851e-93
0.09197427084897544	1.2560299636948851e-93
0.0928940135574652	1.2560299636948851e-93
0.09382295369303986	1.2560299636948851e-93
0.09476118322997025	1.2560299636948851e-93
0.09570879506226997	1.2560299636948851e-93
0.09666588301289265	1.2560299636948851e-93
0.09763254184302157	1.2560299636948851e-93
0.09860886726145181	1.5535207853241235e-84
0.09959495593406631	1.8074796629274226e-83
0.10059090549340699	1.3249086675580422e-83
0.10159681454834106	1.044893736701854e-84
0.10261278269382446	1.2560299636948851e-93
0.10363891052076271	1.2560299636948851e-93
0.10467529962597034	1.2560299636948851e-93
0.10572205262223004	1.2560299636948851e-93
0.10677927314845236	1.2560299636948851e-93
0.10784706587993687	1.2560299636948851e-93
0.10892553653873624	1.2560299636948851e-93
0.1100147919041236	1.2560299636948851e-93
0.11111493982316484	1.2560299636948851e-93
0.1122260892213965	1.2560299636948851e-93
0.11334835011361045	1.2560299636948851e-93
0.11448183361474655	3.279447986959231e-87
0.11562665195089401	4.136767708819368e-86
0.11678291847040295	1.8875974500569217e-86
0.117950747655107	3.4133496798904025e-88
0.11913025513165806	1.3788423249366036e-93
0.12032155768297464	2.79926441269676e-93
0.1215247732598044	1.4943517966002228e-92
0.12274002099240244	1.0719251586663113e-91
0.12396742120232647	7.742100242846869e-91
0.12520709541434974	9.027302978968556e-90
0.12645916636849325	7.999855989550119e-89
0.12772375803217817	6.154536931735536e-88
0.12900099561249995	4.291404385506197e-87
0.13029100556862497	5.023146937677806e-86
0.1315939156243112	4.11540271243216e-85
0.1329098547805543	2.865851866510769e-84
0.13423895332835986	2.8782881181520732e-83
0.13558134286164344	2.2887170937928176e-82
0.1369371562902599	1.4965913859053671e-81
0.1383065278531625	1.455738669183813e-80
0.13968959313169413	1.0363084218885554e-79
0.14108648906301105	7.339856901595925e-79
0.1424973539536412	6.122802556819241e-78
0.14392232749317757	3.730689399120477e-77
0.14536155076810936	3.1718221985780503e-76
0.14681516627579044	1.9599742872733146e-75
0.14828331793854838	1.4887251999625623e-74
0.14976615111793384	9.2606832611365e-74
0.15126381262911318	6.4849274885258e-73
0.15277645075540433	3.8782249208115534e-72
0.15430421526295837	2.633247330576875e-71
0.15584725741558797	1.4817805904894074e-70
0.15740572998974384	9.825644284557908e-70
0.15897978728964127	4.996631067234905e-69
0.1605695851625377	3.3099869359137236e-68
0.16217528101416306	1.8284822068548554e-67
0.16379703382430472	9.949601742043696e-67
0.16543500416254772	5.747458668175859e-66
0.16708935420417323	2.8630708335790395e-65
0.16876024774621495	1.5346360679391018e-64
0.17044785022367712	8.206929953188714e-64
0.17215232872591388	3.9667953971521585e-63
0.173873852013173	1.9048534464938475e-62
0.17561259053330475	9.676897448205332e-62
0.1773687164386378	4.653944858283469e-61
0.1791424036030242	2.0906355445687407e-60
0.1809338276390544	9.217152220802425e-60
0.18274316591544498	4.314028841438823e-59
0.18457059757459943	1.9411539751858582e-58
0.1864163035503454	8.432250175050365e-58
0.18828046658584888	3.540553865747431e-57
0.19016327125170737	1.4391045281723104e-56
0.19206490396422443	5.705205857672968e-56
0.1939855530038667	2.24569515204672e-55
0.19592540853390536	8.96194614995593e-55
0.19788466261924442	3.5277645612686266e-54
0.19986350924543686	1.342185388380537e-53
0.2018621443378912	5.038723554050665e-53
0.20388076578127012	1.9566702866930763e-52
0.20591957343908285	7.572846045339413e-52
0.20797876917347366	2.913533825720613e-51
0.21005855686520844	1.1250472375433147e-50
0.2121591424338605	4.300922366167354e-50
0.21428073385819912	1.6339799130527236e-49
0.21642354119678112	6.264512110685338e-49
0.2185877766087489	2.3675623170618282e-48
0.2207736543748364	8.929059693111875e-48
0.22298139091858477	3.345971290513658e-47
0.2252112048277706	1.245557922267436e-46
0.22746331687604834	4.6035080611396785e-46
0.22973795004480882	1.6910521634740418e-45
0.23203532954525688	6.136448889533242e-45
0.23435568284070946	2.2136824441337365e-44
0.23669923966911657	7.398641860145308e-44
0.2390662320658077	2.773873790793825e-43
0.2414568943864658	9.64397252820932e-43
0.2438714633303305	3.3121367993475894e-42
0.24631017796363378	1.1217207931990964e-41
0.24877327974327013	3.7437580185421156e-41
0.2512610125407028	1.2350344521186312e-40
0.25377362266610987	4.004947008665095e-40
0.25631135889277096	1.284609247372729e-39
0.25887447248169865	4.0547869665795e-39
0.26146321720651566	1.259962068557599e-38
0.2640778493785808	3.856085451481299e-38
0.2667186278723666	1.1623663578997054e-37
0.2693858141510903	3.4476499211523806e-37
0.2720796722926012	1.0070529109679424e-36
0.27480046901552724	2.896182980109369e-36
0.27754847370568253	8.194780914640088e-36
0.28032395844273933	2.2801349365819174e-35
0.28312719802716674	6.238483130815491e-35
0.2859584700074384	1.678862588271309e-34
0.28881805470751276	4.438178483161635e-34
0.2917062352545879	1.1562552044164772e-33
0.2946232976071338	2.9574633118982136e-33
0.2975695305832051	7.444565355191172e-33
0.30054522588903715	1.8437629945573902e-32
0.3035506781479275	4.495905272767995e-32
0.3065861849294068	1.0870801281138442e-31
0.3096520467787009	2.6266423800243074e-31
0.3127485672464879	6.380162573218387e-31
0.3158760529189528	1.5736959725618534e-30
0.31903481344814233	3.967747085345905e-30
0.3222251615826237	1.031652350899027e-29
0.32544741319844994	2.791022138033745e-29
0.3287018873304345	7.868393103555032e-29
0.33198890620373883	2.2923874622787377e-28
0.3353087952657762	6.805841106453342e-28
0.338661883218434	2.033207618248751e-27
0.3420485020506183	6.033886109271041e-27
0.34546898707112456	1.755463954651678e-26
0.3489236769418358	4.942792727573865e-26
0.35241291371125416	1.3269155295435708e-25
0.3559370428483667	3.355579160561203e-25
0.3594964132768504	7.939026032495353e-25
0.3630913774096189	1.7808143396436493e-24
0.3667222911837151	3.852146366052648e-24
0.37038951409555215	8.162572694709186e-24
0.37409340923650775	1.7224222255844713e-23
0.37783434332887283	3.621369060305472e-23
0.38161268676216153	7.586769780078718e-23
0.38542881362978315	1.583702178755507e-22
0.389283101766081	3.2946933955502695e-22
0.39317593278374185	6.820863580237277e-22
0.39710769211157926	1.403790768958151e-21
0.401078769032695	2.868656551233084e-21
0.405089556723022	5.809229251934725e-21
0.4091404522902522	1.1688857093007923e-20
0.4132318568131547	2.3370761227201736e-20
0.4173641753812863	4.6574428163825286e-20
0.42153781713509914	9.258403448408292e-20
0.4257531953064501	1.8415659884040074e-19
0.43001072725951467	3.6734963997507233e-19
0.43431083453210984	7.374336025630522e-19
0.43865394287743087	1.4888088178218415e-18
0.44304048230620524	3.019752335649046e-18
0.44747088712926725	6.140254960727818e-18
0.45194559600055995	1.2454696362677802e-17
0.4564650519605655	2.515271335956832e-17
0.4610297024801712	5.033305579930255e-17
0.4656399995049729	9.969483962479043e-17
0.47029639950002267	1.9469554721546613e-16
0.47499936349502286	3.7533772193100845e-16
0.4797493571299731	7.160294773313998e-16
0.48454685070127285	1.355407587699941e-15
0.48939231920828563	2.5497298673708025e-15
0.4942862424003685	4.7821180204444806e-15
0.4992291048243721	8.951661597861693e-15
0.5042213958726158	1.6766688197632632e-14
0.509263609831342	3.1397602563894007e-14
0.5143562459296555	5.870986085624565e-14
0.519499808388952	1.0946243204132518e-13
0.5246948064728415	2.0319809446096478e-13
0.52994175453757	3.7492737821059345e-13
0.5352411720829456	6.864269295425333e-13
0.5405935838037751	1.2454975280612307e-12
0.5459995196418129	2.2359017686250943e-12
0.551459514838231	3.966722194303194e-12
0.5569741099866133	6.9365751426569694e-12
0.5625438510864794	1.1934698249940602e-11
0.5681692895973443	2.0146537332190264e-11
0.5738509824933177	3.3404870173268226e-11
0.5795894923182509	5.472460032510829e-11
0.5853853872414334	8.918723823621355e-11
0.5912392411138477	1.4563222845489894e-10
0.5971516335249862	2.4005990958058614e-10
0.6031231498602361	4.0225577775809495e-10
0.6091543813588385	6.834171158494829e-10
0.6152459251724268	1.1639872811563417e-09
0.6213983844241512	1.964220629937726e-09
0.6276123682683926	3.244774120789163e-09
0.6338884919510765	5.184407323186495e-09
0.6402273768705874	7.980239423445119e-09
0.6466296506392932	1.2017704027782668e-08
0.6530959471456862	1.8059478337039376e-08
0.6596269066171431	2.766142145421272e-08
0.6662231756833145	4.4150991500602695e-08
0.6728854074401477	7.444389110066042e-08
0.6796142615145492	1.3040092873500067e-07
0.6864104041296946	2.3157058956597484e-07
0.6932745081709915	4.064079014785096e-07
0.7002072532527015	6.87816356526314e-07
0.7072093257852285	1.1034048301420917e-06
0.7142814190430807	1.6875391006971076e-06
0.7214242332335116	2.487686320656198e-06
0.7286384755658467	3.5719573689551044e-06
0.7359248603215052	5.062926243991705e-06
0.7432841089247202	7.1524885224892625e-06
0.7507169500139675	1.0192573112685034e-05
0.7582241195141072	1.4826551528988532e-05
0.7658063607092482	2.217407150622981e-05
0.7734644243163408	3.363245573316014e-05
0.781199068559504	5.0248861958734956e-05
0.7890110592450992	7.413072478215803e-05
0.7969011698375502	0.00010403346262886725
0.8048701815359257	0.00014191737718583498
0.8129188833512849	0.00019155846166052704
0.8210480721847978	0.0002630402849910347
0.8292585529066457	0.0003687427744609134
0.8375511384357123	0.0005240230064606779
0.8459266498200694	0.0007517676948493866
0.8543859163182701	0.0010792814277102622
0.8629297754814528	0.0015415691822840414
0.8715590732362674	0.0021778556620360547
0.8802746639686301	0.0030369208350671402
0.8890774106083162	0.004191641251573552
0.8979681847143995	0.0057020931258089215
0.9069478665615435	0.007760376368291231
0.9160173452271589	0.010378543454088939
0.9251775186794305	0.013788635542077621
0.9344292938662249	0.017809462196109294
0.9437735868048871	0.024183732013413173
0.953211322672936	0.03155321797027156
0.9627434358996654	0.04300060698469104
0.9723708702586621	0.05825766335165098
0.9820945789612486	0.07951479549350557
0.9919155247508612	0.10866018168645487
1.0018346799983697	0.14800577796281306
1.0118530267983534	0.19914019078283404
1.021971557066337	0.2646228621409292
1.0321912726370004	0.3475032041468509
1.0425131853633705	0.45131977843955284
1.0529383172170041	0.5805848508346884
1.0634677003891742	0.7411885517775993
1.074102377393066	0.9405441665026935
