#wavelength	surface flux
0.01	7.426162559071949e-94
0.0101	7.939576266859637e-94
0.010201	8.458124111725206e-94
0.010303010000000001	8.981857435039436e-94
0.0104060401	9.510828091586793e-94
0.010510100501000002	1.0045088454699642e-93
0.01061520150601	1.0584691421443605e-93
0.010721353521070101	1.1129690417855017e-93
0.010828567056280802	1.1680139404230534e-93
0.010936852726843608	1.2236092880469801e-93
0.011046221254112046	1.2560299636948851e-93
0.011156683466653166	1.2560299636948851e-93
0.011268250301319697	1.2560299636948851e-93
0.011380932804332895	1.2560299636948851e-93
0.011494742132376225	1.2560299636948851e-93
0.011609689553699986	1.2560299636948851e-93
0.011725786449236988	1.2560299636948851e-93
0.011843044313729357	1.2560299636948851e-93
0.01196147475686665	1.2560299636948851e-93
0.012081089504435316	1.2560299636948851e-93
0.012201900399479671	1.2560299636948851e-93
0.012323919403474468	1.2560299636948851e-93
0.012447158597509212	1.2560299636948851e-93
0.012571630183484304	1.2560299636948851e-93
0.012697346485319148	1.2560299636948851e-93
0.012824319950172339	1.2560299636948851e-93
0.012952563149674063	1.2560299636948851e-93
0.013082088781170804	1.2560299636948851e-93
0.013212909668982512	1.2560299636948851e-93
0.013345038765672336	1.2560299636948851e-93
0.013478489153329061	1.2560299636948851e-93
0.013613274044862352	1.2560299636948851e-93
0.013749406785310975	1.2560299636948851e-93
0.013886900853164083	1.2560299636948851e-93
0.014025769861695726	1.2560299636948851e-93
0.014166027560312683	1.2560299636948851e-93
0.01430768783591581	1.2560299636948851e-93
0.014450764714274969	1.2560299636948851e-93
0.014595272361417718	1.2560299636948851e-93
0.014741225085031895	1.2560299636948851e-93
0.014888637335882214	1.2560299636948851e-93
0.015037523709241036	1.2560299636948851e-93
0.015187898946333447	1.2560299636948851e-93
0.015339777935796781	1.2560299636948851e-93
0.015493175715154751	1.2560299636948851e-93
0.015648107472306296	1.2560299636948851e-93
0.01580458854702936	1.2560299636948851e-93
0.015962634432499654	1.2560299636948851e-93
0.016122260776824653	1.2560299636948851e-93
0.016283483384592897	1.2560299636948851e-93
0.016446318218438827	1.2560299636948851e-93
0.016610781400623217	1.2560299636948851e-93
0.016776889214629446	1.2560299636948851e-93
0.016944658106775742	1.2560299636948851e-93
0.0171141046878435	1.2560299636948851e-93
0.017285245734721934	1.2560299636948851e-93
0.017458098192069154	1.2560299636948851e-93
0.017632679173989845	1.2560299636948851e-93
0.017809005965729745	1.2560299636948851e-93
0.01798709602538704	1.2560299636948851e-93
0.018166966985640912	1.2560299636948851e-93
0.01834863665549732	1.2560299636948851e-93
0.018532123022052295	1.2560299636948851e-93
0.01871744425227282	1.2560299636948851e-93
0.01890461869479555	1.2560299636948851e-93
0.0190936648817435	1.2560299636948851e-93
0.019284601530560937	1.2560299636948851e-93
0.01947744754586655	1.2560299636948851e-93
0.019672222021325212	1.2560299636948851e-93
0.019868944241538466	1.2560299636948851e-93
0.020067633683953853	1.2560299636948851e-93
0.02026831002079339	1.2560299636948851e-93
0.020470993121001323	1.2560299636948851e-93
0.020675703052211336	1.2560299636948851e-93
0.02088246008273345	1.2560299636948851e-93
0.021091284683560786	1.2560299636948851e-93
0.021302197530396395	1.2560299636948851e-93
0.02151521950570036	1.2560299636948851e-93
0.02173037170075736	1.2560299636948851e-93
0.02194767541776493	1.2560299636948851e-93
0.022167152171942584	1.2560299636948851e-93
0.022388823693662012	1.2560299636948851e-93
0.02261271193059863	1.2560299636948851e-93
0.022838839049904615	1.2560299636948851e-93
0.023067227440403664	1.2560299636948851e-93
0.0232978997148077	1.2560299636948851e-93
0.023530878711955777	1.2560299636948851e-93
0.023766187499075334	1.2560299636948851e-93
0.024003849374066088	1.2560299636948851e-93
0.02424388786780675	1.2560299636948851e-93
0.024486326746484814	1.2560299636948851e-93
0.024731190013949664	1.2560299636948851e-93
0.024978501914089166	1.2560299636948851e-93
0.025228286933230055	1.2560299636948851e-93
0.02548056980256236	1.2560299636948851e-93
0.025735375500587982	1.2560299636948851e-93
0.025992729255593858	1.2560299636948851e-93
0.0262526565481498	1.2560299636948851e-93
0.026515183113631293	1.2560299636948851e-93
0.02678033494476761	1.2560299636948851e-93
0.027048138294215287	1.2560299636948851e-93
0.02731861967715744	1.2560299636948851e-93
0.027591805873929013	1.2560299636948851e-93
0.027867723932668304	1.2560299636948851e-93
0.02814640117199499	1.2560299636948851e-93
0.028427865183714936	1.2560299636948851e-93
0.02871214383555209	1.2560299636948851e-93
0.028999265273907608	1.2560299636948851e-93
0.029289257926646682	1.2560299636948851e-93
0.029582150505913153	1.2560299636948851e-93
0.02987797201097228	1.2560299636948851e-93
0.030176751731082006	1.2560299636948851e-93
0.030478519248392826	1.2560299636948851e-93
0.030783304440876753	1.2560299636948851e-93
0.031091137485285525	1.2560299636948851e-93
0.03140204886013838	1.2560299636948851e-93
0.03171606934873976	1.2560299636948851e-93
0.03203323004222716	1.2560299636948851e-93
0.03235356234264943	1.2560299636948851e-93
0.03267709796607593	1.2560299636948851e-93
0.03300386894573669	1.2560299636948851e-93
0.03333390763519405	1.2560299636948851e-93
0.033667246711545994	1.2560299636948851e-93
0.034003919178661454	1.2560299636948851e-93
0.03434395837044807	1.2560299636948851e-93
0.03468739795415255	1.2560299636948851e-93
0.03503427193369407	1.2560299636948851e-93
0.03538461465303102	1.2560299636948851e-93
0.03573846079956133	1.2560299636948851e-93
0.03609584540755694	1.2560299636948851e-93
0.03645680386163251	1.2560299636948851e-93
0.03682137190024883	1.2560299636948851e-93
0.03718958561925133	1.2560299636948851e-93
0.03756148147544384	1.2560299636948851e-93
0.03793709629019828	1.2560299636948851e-93
0.03831646725310026	1.2560299636948851e-93
0.038699631925631264	1.2560299636948851e-93
0.039086628244887574	1.2560299636948851e-93
0.039477494527336454	1.2560299636948851e-93
0.03987226947260982	1.2560299636948851e-93
0.04027099216733592	1.2560299636948851e-93
0.04067370208900927	1.2560299636948851e-93
0.04108043910989937	1.2560299636948851e-93
0.04149124350099836	1.2560299636948851e-93
0.04190615593600835	1.2560299636948851e-93
0.042325217495368425	1.2560299636948851e-93
0.04274846967032212	1.2560299636948851e-93
0.043175954367025336	1.2560299636948851e-93
0.04360771391069559	1.2560299636948851e-93
0.04404379104980254	1.2560299636948851e-93
0.04448422896030057	1.2560299636948851e-93
0.04492907124990358	1.2560299636948851e-93
0.04537836196240262	1.2560299636948851e-93
0.04583214558202665	1.2560299636948851e-93
0.04629046703784691	1.2560299636948851e-93
0.046753371708225376	1.2560299636948851e-93
0.04722090542530763	1.2560299636948851e-93
0.047693114479560705	1.2560299636948851e-93
0.04817004562435631	1.2560299636948851e-93
0.04865174608059988	1.2560299636948851e-93
0.04913826354140587	1.2560299636948851e-93
0.04962964617681994	1.2560299636948851e-93
0.05012594263858814	1.2560299636948851e-93
0.05062720206497402	1.2560299636948851e-93
0.05113347408562376	1.2560299636948851e-93
0.051644808826479996	1.2560299636948851e-93
0.0521612569147448	1.2560299636948851e-93
0.052682869483892246	1.2560299636948851e-93
0.05320969817873117	1.2560299636948851e-93
0.05374179516051848	1.2560299636948851e-93
0.054279213112123664	1.2560299636948851e-93
0.0548220052432449	1.2560299636948851e-93
0.05537022529567735	1.2560299636948851e-93
0.05592392754863413	1.2560299636948851e-93
0.056483166824120475	1.2560299636948851e-93
0.057047998492361675	1.2560299636948851e-93
0.057618478477285295	1.2560299636948851e-93
0.05819466326205815	1.2560299636948851e-93
0.05877660989467873	1.2560299636948851e-93
0.05936437599362551	1.2560299636948851e-93
0.05995801975356178	1.2560299636948851e-93
0.06055759995109739	1.2560299636948851e-93
0.06116317595060837	1.2560299636948851e-93
0.061774807710114454	1.2560299636948851e-93
0.062392555787215594	1.2560299636948851e-93
0.06301648134508775	1.2560299636948851e-93
0.06364664615853863	1.2560299636948851e-93
0.06428311262012401	1.2560299636948851e-93
0.06492594374632525	1.2560299636948851e-93
0.06557520318378851	1.2560299636948851e-93
0.0662309552156264	1.2560299636948851e-93
0.06689326476778266	1.2560299636948851e-93
0.06756219741546049	1.2560299636948851e-93
0.0682378193896151	1.2560299636948851e-93
0.06892019758351124	1.2560299636948851e-93
0.06960939955934635	1.2560299636948851e-93
0.07030549355493981	1.2560299636948851e-93
0.07100854849048922	1.2560299636948851e-93
0.07171863397539412	1.2560299636948851e-93
0.07243582031514804	1.2560299636948851e-93
0.07316017851829953	1.2560299636948851e-93
0.07389178030348253	1.2560299636948851e-93
0.07463069810651736	1.2560299636948851e-93
0.07537700508758254	1.2560299636948851e-93
0.07613077513845835	1.2560299636948851e-93
0.07689208288984294	1.2560299636948851e-93
0.07766100371874136	3.904110012179518e-83
0.07843761375592878	3.979079293320058e-82
0.07922198989348807	6.617902329145832e-82
0.08001420979242296	5.961506832288759e-83
0.08081435189034718	1.1230143483091428e-83
0.08162249540925066	1.1210792809559806e-72
0.08243872036334317	1.4225678083912753e-67
0.08326310756697661	1.4109666144082977e-66
0.08409573864264637	4.0602487460101597e-66
0.08493669602907282	5.966755053636644e-67
0.08578606298936356	7.187241851807194e-68
0.0866439236192572	1.2560299636948851e-93
0.08751036285544977	1.2560299636948851e-93
0.08838546648400426	1.2560299636948851e-93
0.08926932114884432	1.2560299636948851e-93
0.09016201436033276	1.2560299636948851e-93
0.09106363450393609	1.2560299636948851e-93
0.09197427084897544	1.2560299636948851e-93
0.0928940135574652	1.2560299636948851e-93
0.09382295369303986	1.2560299636948851e-93
0.09476118322997025	1.2560299636948851e-93
0.09570879506226997	1.2560299636948851e-93
0.09666588301289265	1.2560299636948851e-93
0.09763254184302157	1.2560299636948851e-93
0.09860886726145181	1.2560299636948851e-93
0.09959495593406631	1.2560299636948851e-93
0.10059090549340699	1.2560299636948851e-93
0.10159681454834106	1.2560299636948851e-93
0.10261278269382446	1.2560299636948851e-93
0.10363891052076271	1.2560299636948851e-93
0.10467529962597034	1.2560299636948851e-93
0.10572205262223004	1.2560299636948851e-93
0.10677927314845236	1.2560299636948851e-93
0.10784706587993687	1.2560299636948851e-93
0.10892553653873624	1.2560299636948851e-93
0.1100147919041236	1.2560299636948851e-93
0.11111493982316484	1.2560299636948851e-93
0.1122260892213965	1.256088801329151e-93
0.11334835011361045	1.2572986467568481e-93
0.11448183361474655	1.2631410799756717e-93
0.11562665195089401	1.3067785572393236e-93
0.11678291847040295	1.7128258367199292e-93
0.117950747655107	4.485896859254527e-93
0.11913025513165806	3.2907922306473176e-92
0.12032155768297464	2.7914628118911464e-91
0.1215247732598044	2.116223800534243e-90
0.12274002099240244	1.4830912381881392e-89
0.12396742120232647	9.841464441485179e-89
0.12520709541434974	9.977859589487348e-88
0.12645916636849325	7.939439343149777e-87
0.12772375803217817	5.647975649924257e-86
0.12900099561249995	3.701299190288539e-85
0.13029100556862497	3.7873255203948566e-84
0.1315939156243112	2.807135212425276e-83
0.1329098547805543	1.7775333397211543e-82
0.13423895332835986	1.6068750695125462e-81
0.13558134286164344	1.1826458442779433e-80
0.1369371562902599	7.244342118396556e-80
0.1383065278531625	6.456185227342985e-79
0.13968959313169413	4.322131208777558e-78
0.14108648906301105	2.875070393074932e-77
0.1424973539536412	2.2451738219493638e-76
0.14392232749317757	1.3019345877135687e-75
0.14536155076810936	1.0379206564535787e-74
0.14681516627579044	6.125907278434134e-74
0.14828331793854838	4.388351849380605e-73
0.14976615111793384	2.609051150911094e-72
0.15126381262911318	1.7368621754457662e-71
0.15277645075540433	9.966488677544995e-71
0.15430421526295837	6.437171211888207e-70
0.15584725741558797	3.4827322925134465e-69
0.15740572998974384	2.188630628376669e-68
0.15897978728964127	1.0616246117066094e-67
0.1605695851625377	6.837895267919962e-67
0.16217528101416306	3.6343870652420397e-66
0.16379703382430472	1.903954570889448e-65
0.16543500416254772	1.0543761910605933e-64
0.16708935420417323	5.070818021999241e-64
0.16876024774621495	2.616315596409237e-63
0.17044785022367712	1.3452338087035325e-62
0.17215232872591388	6.270248351323632e-62
0.173873852013173	2.9069086955992737e-61
0.17561259053330475	1.4235531566029068e-60
0.1773687164386378	6.597092711019027e-60
0.1791424036030242	2.865186505013862e-59
0.1809338276390544	1.2237520213141796e-58
0.18274316591544498	5.51913878423227e-58
0.18457059757459943	2.3938628679095536e-57
0.1864163035503454	1.0034152838189355e-56
0.18828046658584888	4.075175109712295e-56
0.19016327125170737	1.603095228282018e-55
0.19206490396422443	6.145871908064819e-55
0.1939855530038667	2.342072598121404e-54
0.19592540853390536	9.034060257398535e-54
0.19788466261924442	3.4369584288905e-53
0.19986350924543686	1.2682578220872272e-52
0.2018621443378912	4.620202382187227e-52
0.20388076578127012	1.7418964906033922e-51
0.20591957343908285	6.551295444811823e-51
0.20797876917347366	2.450992380846218e-50
0.21005855686520844	9.211366152953662e-50
0.2121591424338605	3.429512935357662e-49
0.21428073385819912	1.2495186289324035e-48
0.21642354119678112	4.749121807871825e-48
0.2185877766087489	1.7557271177519537e-47
0.2207736543748364	6.464300182972186e-47
0.22298139091858477	2.3702678726270594e-46
0.2252112048277706	8.637698800123963e-46
0.22746331687604834	3.123931176378409e-45
0.22973795004480882	1.1250404092466227e-44
0.23203532954525688	4.0029436568260135e-44
0.23435568284070946	1.4162931865132126e-43
0.23669923966911657	4.657745754613899e-43
0.2390662320658077	1.709124998642018e-42
0.2414568943864658	5.832595397246298e-42
0.2438714633303305	1.9664421188968318e-41
0.24631017796363378	6.541912590453741e-41
0.24877327974327013	2.1422183036109632e-40
0.2512610125407028	6.942828036403085e-40
0.25377362266610987	2.2119629293104556e-39
0.25631135889277096	6.967129813657462e-39
0.25887447248169865	2.1593637771202415e-38
0.26146321720651566	6.598310203572149e-38
0.2640778493785808	1.9827236632083955e-37
0.2667186278723666	5.8702767842372136e-37
0.2693858141510903	1.710530433801058e-36
0.2720796722926012	4.911962784359694e-36
0.27480046901552724	1.3864845863409065e-35
0.27754847370568253	3.851641652045787e-35
0.28032395844273933	1.052465602821496e-34
0.28312719802716674	2.8268179075327506e-34
0.2859584700074384	7.465094094627227e-34
0.28881805470751276	1.937585789057813e-33
0.2917062352545879	4.952376361686707e-33
0.2946232976071338	1.2416163586609924e-32
0.2975695305832051	3.0673258888795594e-32
0.30054522588903715	7.444618186215605e-32
0.3035506781479275	1.7793966683370987e-31
0.3065861849294068	4.218478931972242e-31
0.3096520467787009	1.0006187795634388e-30
0.3127485672464879	2.3874682659941384e-30
0.3158760529189528	5.793136294491338e-30
0.31903481344814233	1.439189625401322e-29
0.3222251615826237	3.696476858343086e-29
0.32544741319844994	9.912278632951949e-29
0.3287018873304345	2.778974436344319e-28
0.33198890620373883	8.061389102090553e-28
0.3353087952657762	2.388150647411854e-27
0.338661883218434	7.131513822353865e-27
0.3420485020506183	2.1157157626170535e-26
0.34546898707112456	6.148769979596892e-26
0.3489236769418358	1.728380600652594e-25
0.35241291371125416	4.623808335630028e-25
0.3559370428483667	1.1606780198014227e-24
0.3594964132768504	2.715958448019902e-24
0.3630913774096189	6.0215817065410166e-24
0.3667222911837151	1.2839274006287782e-23
0.37038951409555215	2.6815114422132576e-23
0.37409340923650775	5.577835188305099e-23
0.37783434332887283	1.1562689374448044e-22
0.38161268676216153	2.389735921755063e-22
0.38542881362978315	4.924467918349357e-22
0.389283101766081	1.011076999509198e-21
0.39317593278374185	2.066700505306375e-21
0.39710769211157926	4.2037887329614206e-21
0.401078769032695	8.483280468965072e-21
0.405089556723022	1.6947409467462943e-20
0.4091404522902522	3.373601963556017e-20
0.4132318568131547	6.666619821768926e-20
0.4173641753812863	1.3127804774690313e-19
0.42153781713509914	2.5794181699021153e-19
0.4257531953064501	5.080827443867481e-19
0.43001072725951467	1.0036934756853771e-18
0.43431083453210984	1.996192137957916e-18
0.43865394287743087	4.0003712564270444e-18
0.44304048230620524	8.056835958782489e-18
0.44747088712926725	1.6267410089410335e-17
0.45194559600055995	3.277315251082479e-17
0.4564650519605655	6.582781045198041e-17
0.4610297024801712	1.3107048713400573e-16
0.4656399995049729	2.578896499830026e-16
0.47029639950002267	5.002521385064697e-16
0.47499936349502286	9.579032754620897e-16
0.4797493571299731	1.81492125475013e-15
0.48454685070127285	3.4130252669816192e-15
0.48939231920828563	6.378609312661136e-15
0.4942862424003685	1.1884478187368768e-14
0.4992291048243721	2.2119037188068145e-14
0.5042213958726158	4.119455038667887e-14
0.509263609831342	7.675469270713733e-14
0.5143562459296555	1.428616462943364e-13
0.519499808388952	2.652278751765441e-13
0.5246948064728415	4.903066922944633e-13
0.52994175453757	9.010336729620996e-13
0.5352411720829456	1.6429939027637583e-12
0.5405935838037751	2.96867969040398e-12
0.5459995196418129	5.306117908597606e-12
0.551459514838231	9.369336748410255e-12
0.5569741099866133	1.6299391022134958e-11
0.5625438510864794	2.78814768280654e-11
0.5681692895973443	4.675647035488851e-11
0.5738509824933177	7.696577008382926e-11
0.5795894923182509	1.2511968138175799e-10
0.5853853872414334	2.0236736804760854e-10
0.5912392411138477	3.281312480033286e-10
0.5971516335249862	5.37648683034943e-10
0.6031231498602361	8.968370240619925e-10
0.6091543813588385	1.5188681063575282e-09
0.6152459251724268	2.5801091880643233e-09
0.6213983844241512	4.341620837183567e-09
0.6276123682683926	7.144954192668837e-09
0.6338884919510765	1.1353141317654979e-08
0.6402273768705874	1.7343114323185443e-08
0.6466296506392932	2.589074429892061e-08
0.6530959471456862	3.857924507919194e-08
0.6596269066171431	5.868624524748985e-08
0.6662231756833145	9.332237648838368e-08
0.6728854074401477	1.5741573284038304e-07
0.6796142615145492	2.767125170122232e-07
0.6864104041296946	4.93849682078844e-07
0.6932745081709915	8.707182199230238e-07
0.7002072532527015	1.4774610902048061e-06
0.7072093257852285	2.368940511850797e-06
0.7142814190430807	3.6104669749734715e-06
0.7214242332335116	5.292428955854268e-06
0.7286384755658467	7.5461054068264034e-06
0.7359248603215052	1.0612251312346238e-05
0.7432841089247202	1.4876869522969265e-05
0.7507169500139675	2.105716748296366e-05
0.7582241195141072	3.0477550694841548e-05
0.7658063607092482	4.545617618733575e-05
0.7734644243163408	6.885127475995527e-05
0.781199068559504	0.00010121420121823051
0.7890110592450992	0.0001511070729644885
0.7969011698375502	0.0002108069623321513
0.8048701815359257	0.00028574077305971817
0.8129188833512849	0.00038296551462169143
0.8210480721847978	0.0005226542356205257
0.8292585529066457	0.0007294390488291389
0.8375511384357123	0.0010335225777509177
0.8459266498200694	0.0014794895401813884
0.8543859163182701	0.0021196452054828676
0.8629297754814528	0.0030220448248020728
0.8715590732362674	0.0042585596752091354
0.8802746639686301	0.005919746555249695
0.8890774106083162	0.008140629231626928
0.8979681847143995	0.011031761831747854
0.9069478665615435	0.014944282714977854
0.9160173452271589	0.019891265533950882
0.9251775186794305	0.026294979348599472
0.9344292938662249	0.03378545953241681
0.9437735868048871	0.04565220758764767
0.953211322672936	0.05943565134371786
0.9627434358996654	0.08052887390976843
0.9723708702586621	0.10900828625836108
0.9820945789612486	0.14852295216609956
0.9919155247508612	0.20280453956667
1.0018346799983697	0.27589136330093755
1.0118530267983534	0.37052445267706974
1.021971557066337	0.4911238602134969
1.0321912726370004	0.6429437560141155
1.0425131853633705	0.8320223151887038
1.0529383172170041	1.0662339802177412
1.0634677003891742	1.3555446958341821
1.074102377393066	1.7130220781855952
1.0848434011669965	2.1564639051340335
