#wavelength	surface flux
0.01	7.426162559071949e-94
0.0101	7.939576266859637e-94
0.010201	8.458124111725206e-94
0.010303010000000001	8.981857435039436e-94
0.0104060401	9.510828091586793e-94
0.010510100501000002	1.0045088454699642e-93
0.01061520150601	1.0584691421443605e-93
0.010721353521070101	1.1129690417855017e-93
0.010828567056280802	1.1680139404230534e-93
0.010936852726843608	1.2236092880469801e-93
0.011046221254112046	1.2560299636948851e-93
0.011156683466653166	1.2560299636948851e-93
0.011268250301319697	1.2560299636948851e-93
0.011380932804332895	1.2560299636948851e-93
0.011494742132376225	1.2560299636948851e-93
0.011609689553699986	1.2560299636948851e-93
0.011725786449236988	1.2560299636948851e-93
0.011843044313729357	1.2560299636948851e-93
0.01196147475686665	1.2560299636948851e-93
0.012081089504435316	1.2560299636948851e-93
0.012201900399479671	1.2560299636948851e-93
0.012323919403474468	1.2560299636948851e-93
0.012447158597509212	1.2560299636948851e-93
0.012571630183484304	1.2560299636948851e-93
0.012697346485319148	1.2560299636948851e-93
0.012824319950172339	1.2560299636948851e-93
0.012952563149674063	1.2560299636948851e-93
0.013082088781170804	1.2560299636948851e-93
0.013212909668982512	1.2560299636948851e-93
0.013345038765672336	1.2560299636948851e-93
0.013478489153329061	1.2560299636948851e-93
0.013613274044862352	1.2560299636948851e-93
0.013749406785310975	1.2560299636948851e-93
0.013886900853164083	1.2560299636948851e-93
0.014025769861695726	1.2560299636948851e-93
0.014166027560312683	1.2560299636948851e-93
0.01430768783591581	1.2560299636948851e-93
0.014450764714274969	1.2560299636948851e-93
0.014595272361417718	1.2560299636948851e-93
0.014741225085031895	1.2560299636948851e-93
0.014888637335882214	1.2560299636948851e-93
0.015037523709241036	1.2560299636948851e-93
0.015187898946333447	1.2560299636948851e-93
0.015339777935796781	1.2560299636948851e-93
0.015493175715154751	1.2560299636948851e-93
0.015648107472306296	1.2560299636948851e-93
0.01580458854702936	1.2560299636948851e-93
0.015962634432499654	1.2560299636948851e-93
0.016122260776824653	1.2560299636948851e-93
0.016283483384592897	1.2560299636948851e-93
0.016446318218438827	1.2560299636948851e-93
0.016610781400623217	1.2560299636948851e-93
0.016776889214629446	1.2560299636948851e-93
0.016944658106775742	1.2560299636948851e-93
0.0171141046878435	1.2560299636948851e-93
0.017285245734721934	1.2560299636948851e-93
0.017458098192069154	1.2560299636948851e-93
0.017632679173989845	1.2560299636948851e-93
0.017809005965729745	1.2560299636948851e-93
0.01798709602538704	1.2560299636948851e-93
0.018166966985640912	1.2560299636948851e-93
0.01834863665549732	1.2560299636948851e-93
0.018532123022052295	1.2560299636948851e-93
0.01871744425227282	1.2560299636948851e-93
0.01890461869479555	1.2560299636948851e-93
0.0190936648817435	1.2560299636948851e-93
0.019284601530560937	1.2560299636948851e-93
0.01947744754586655	1.2560299636948851e-93
0.019672222021325212	1.2560299636948851e-93
0.019868944241538466	1.2560299636948851e-93
0.020067633683953853	1.2560299636948851e-93
0.02026831002079339	1.2560299636948851e-93
0.020470993121001323	1.2560299636948851e-93
0.020675703052211336	1.2560299636948851e-93
0.02088246008273345	1.2560299636948851e-93
0.021091284683560786	1.2560299636948851e-93
0.021302197530396395	1.2560299636948851e-93
0.02151521950570036	1.2560299636948851e-93
0.02173037170075736	1.2560299636948851e-93
0.02194767541776493	1.2560299636948851e-93
0.022167152171942584	1.2560299636948851e-93
0.022388823693662012	1.2560299636948851e-93
0.02261271193059863	1.2560299636948851e-93
0.022838839049904615	1.2560299636948851e-93
0.023067227440403664	1.2560299636948851e-93
0.0232978997148077	1.2560299636948851e-93
0.023530878711955777	1.2560299636948851e-93
0.023766187499075334	1.2560299636948851e-93
0.024003849374066088	1.2560299636948851e-93
0.02424388786780675	1.2560299636948851e-93
0.024486326746484814	1.2560299636948851e-93
0.024731190013949664	1.2560299636948851e-93
0.024978501914089166	1.2560299636948851e-93
0.025228286933230055	1.2560299636948851e-93
0.02548056980256236	1.2560299636948851e-93
0.025735375500587982	1.2560299636948851e-93
0.025992729255593858	1.2560299636948851e-93
0.0262526565481498	1.2560299636948851e-93
0.026515183113631293	1.2560299636948851e-93
0.02678033494476761	1.2560299636948851e-93
0.027048138294215287	1.2560299636948851e-93
0.02731861967715744	1.2560299636948851e-93
0.027591805873929013	1.2560299636948851e-93
0.027867723932668304	1.2560299636948851e-93
0.02814640117199499	1.2560299636948851e-93
0.028427865183714936	1.2560299636948851e-93
0.02871214383555209	1.2560299636948851e-93
0.028999265273907608	1.2560299636948851e-93
0.029289257926646682	1.2560299636948851e-93
0.029582150505913153	1.2560299636948851e-93
0.02987797201097228	1.2560299636948851e-93
0.030176751731082006	1.2560299636948851e-93
0.030478519248392826	1.2560299636948851e-93
0.030783304440876753	1.2560299636948851e-93
0.031091137485285525	1.2560299636948851e-93
0.03140204886013838	1.2560299636948851e-93
0.03171606934873976	1.2560299636948851e-93
0.03203323004222716	1.2560299636948851e-93
0.03235356234264943	1.2560299636948851e-93
0.03267709796607593	1.2560299636948851e-93
0.03300386894573669	1.2560299636948851e-93
0.03333390763519405	1.2560299636948851e-93
0.033667246711545994	1.2560299636948851e-93
0.034003919178661454	1.2560299636948851e-93
0.03434395837044807	1.2560299636948851e-93
0.03468739795415255	1.2560299636948851e-93
0.03503427193369407	1.2560299636948851e-93
0.03538461465303102	1.2560299636948851e-93
0.03573846079956133	1.2560299636948851e-93
0.03609584540755694	1.2560299636948851e-93
0.03645680386163251	1.2560299636948851e-93
0.03682137190024883	1.2560299636948851e-93
0.03718958561925133	1.2560299636948851e-93
0.03756148147544384	1.2560299636948851e-93
0.03793709629019828	1.2560299636948851e-93
0.03831646725310026	1.2560299636948851e-93
0.038699631925631264	1.2560299636948851e-93
0.039086628244887574	1.2560299636948851e-93
0.039477494527336454	1.2560299636948851e-93
0.03987226947260982	1.2560299636948851e-93
0.04027099216733592	1.2560299636948851e-93
0.04067370208900927	1.2560299636948851e-93
0.04108043910989937	1.2560299636948851e-93
0.04149124350099836	1.2560299636948851e-93
0.04190615593600835	1.2560299636948851e-93
0.042325217495368425	1.2586912307919407e-93
0.04274846967032212	1.2621547193895805e-93
0.043175954367025336	1.7112388401561754e-93
0.04360771391069559	2.808157747712058e-93
0.04404379104980254	2.846622428481715e-92
0.04448422896030057	2.7650389596191717e-91
0.04492907124990358	5.270219443557897e-91
0.04537836196240262	3.9073361515140195e-89
0.04583214558202665	8.525551813348955e-89
0.04629046703784691	4.241142804434935e-87
0.046753371708225376	1.0836975353314277e-86
0.04722090542530763	3.9284660032982165e-85
0.047693114479560705	1.2019212869849496e-84
0.04817004562435631	2.94479412367364e-83
0.04865174608059988	1.079729650099799e-82
0.04913826354140587	2.0392889894854988e-81
0.04962964617681994	8.701340558883063e-81
0.05012594263858814	3.1479812916166516e-74
0.05062720206497402	1.5677134454873033e-73
0.05113347408562376	2.428078223045982e-72
0.051644808826479996	1.0772400982927025e-71
0.0521612569147448	9.943066245220464e-71
0.052682869483892246	3.674617161120151e-70
0.05320969817873117	3.676172422336552e-69
0.05374179516051848	1.1658338254806727e-68
0.054279213112123664	1.2655632239547246e-67
0.0548220052432449	3.423888117333409e-67
0.05537022529567735	3.5866666462574705e-66
0.05592392754863413	8.332897475259569e-66
0.056483166824120475	1.516086098203705e-62
0.057047998492361675	6.156650070922129e-62
0.057618478477285295	4.2048103418846074e-61
0.05819466326205815	2.7241031147317315e-60
0.05877660989467873	8.893213376316468e-60
0.05936437599362551	1.4330135368729905e-58
0.05995801975356178	3.5842182480729686e-58
0.06055759995109739	2.973710306143938e-57
0.06116317595060837	1.2738682066523096e-56
0.061774807710114454	4.1608321305698485e-56
0.062392555787215594	2.3054301889584172e-55
0.06301648134508775	5.733042119289648e-55
0.06364664615853863	3.129312083827296e-54
0.06428311262012401	1.4137380659527283e-53
0.06492594374632525	3.5877845974192677e-53
0.06557520318378851	1.9226116450718566e-52
0.0662309552156264	7.626389071438086e-52
0.06689326476778266	2.0724187673841343e-51
0.06756219741546049	1.0076615377502362e-50
0.0682378193896151	3.791361673202866e-50
0.06892019758351124	1.0037347825103778e-49
0.06960939955934635	4.577370634579777e-49
0.07030549355493981	1.7269683398963953e-48
0.07100854849048922	4.2703939394183766e-48
0.07171863397539412	1.823000386931777e-47
0.07243582031514804	7.023681500040221e-47
0.07316017851829953	2.1912723317826554e-46
0.07389178030348253	6.243797664550486e-46
0.07463069810651736	2.4294507195361422e-45
0.07537700508758254	8.40300483998353e-45
0.07613077513845835	2.456238468867496e-44
0.07689208288984294	7.099914247996527e-44
0.07766100371874136	8.388100002127278e-43
0.07843761375592878	8.563090554719837e-42
0.07922198989348807	3.1855069941450197e-41
0.08001420979242296	8.399527901532529e-41
0.08081435189034718	2.833411150324352e-40
0.08162249540925066	9.446305249321463e-40
0.08243872036334317	2.951094052799865e-39
0.08326310756697661	7.644956215608777e-39
0.08409573864264637	1.3614836756720597e-38
0.08493669602907282	1.9904861703618375e-39
0.08578606298936356	2.7608256761950295e-40
0.0866439236192572	1.4869030967212764e-40
0.08751036285544977	7.487733217166829e-39
0.08838546648400426	7.524709719377762e-38
0.08926932114884432	1.5299913446136278e-37
0.09016201436033276	3.6998066897532316e-37
0.09106363450393609	2.2637773095602653e-36
0.09197427084897544	9.461931768990882e-36
0.0928940135574652	4.62643899727586e-36
0.09382295369303986	2.2578499355281762e-35
0.09476118322997025	3.120027148624851e-35
0.09570879506226997	2.1733262240663813e-34
0.09666588301289265	4.613846755312439e-34
0.09763254184302157	1.1454553093409204e-33
0.09860886726145181	6.331548510545915e-32
0.09959495593406631	7.251595603464036e-31
0.10059090549340699	5.352794551426618e-31
0.10159681454834106	5.828262354359002e-32
0.10261278269382446	4.0843730824340414e-32
0.10363891052076271	1.0919453517055686e-31
0.10467529962597034	3.0272287253486726e-31
0.10572205262223004	8.28219099980711e-31
0.10677927314845236	2.26149971053875e-30
0.10784706587993687	6.1908308255444086e-30
0.10892553653873624	1.5905946004817726e-29
0.1100147919041236	5.314009602781132e-29
0.11111493982316484	4.467822966437106e-26
0.1122260892213965	1.1302608048641271e-24
0.11334835011361045	3.1111806359474967e-24
0.11448183361474655	8.368909592446848e-24
0.11562665195089401	4.163080326030024e-23
0.11678291847040295	8.030320560753301e-23
0.117950747655107	9.395958514425488e-22
0.11913025513165806	2.859368317120054e-21
0.12032155768297464	1.8294665048863733e-21
0.1215247732598044	3.2910823474799003e-21
0.12274002099240244	1.717186689459166e-20
0.12396742120232647	3.806481039701408e-20
0.12520709541434974	5.1635563449822625e-20
0.12645916636849325	3.4478091807219735e-20
0.12772375803217817	6.071660067563714e-20
0.12900099561249995	1.6936247194612804e-19
0.13029100556862497	2.0756657023958147e-19
0.1315939156243112	5.1288234294717185e-19
0.1329098547805543	8.732341657819822e-19
0.13423895332835986	1.9055980662287587e-18
0.13558134286164344	3.8705424602330915e-18
0.1369371562902599	3.9375210659047285e-18
0.1383065278531625	1.5853709642892078e-17
0.13968959313169413	8.900424802975463e-17
0.14108648906301105	1.5485768805278692e-16
0.1424973539536412	4.2642003375219025e-16
0.14392232749317757	9.306575239054814e-16
0.14536155076810936	4.513325950958744e-15
0.14681516627579044	8.52243943287574e-15
0.14828331793854838	1.3682359355831527e-14
0.14976615111793384	2.503899728072193e-14
0.15126381262911318	3.4915375082477904e-14
0.15277645075540433	2.3162247983894696e-14
0.15430421526295837	2.280640941936833e-14
0.15584725741558797	5.373386554233067e-14
0.15740572998974384	1.0959317952763986e-13
0.15897978728964127	1.4258231727575183e-13
0.1605695851625377	1.6509683426736495e-13
0.16217528101416306	5.2963999629218577e-14
0.16379703382430472	1.195576350834364e-13
0.16543500416254772	3.1083127920317947e-13
0.16708935420417323	2.8982606150989762e-12
0.16876024774621495	2.0830498780769607e-13
0.17044785022367712	2.498426721319978e-11
0.17215232872591388	7.347882752238554e-12
0.173873852013173	1.2064476605072665e-11
0.17561259053330475	5.5948318649430947e-11
0.1773687164386378	1.9457400450095497e-10
0.1791424036030242	9.002030119698467e-10
0.1809338276390544	5.389989546556169e-11
0.18274316591544498	2.8258007815111106e-09
0.18457059757459943	9.654888930101977e-10
0.1864163035503454	1.1582913493985089e-10
0.18828046658584888	4.3954066786647486e-10
0.19016327125170737	1.2183334569175032e-09
0.19206490396422443	1.7477792121015563e-08
0.1939855530038667	7.298740799983662e-08
0.19592540853390536	2.18198053509481e-07
0.19788466261924442	5.336931913317583e-07
0.19986350924543686	4.677593208926962e-07
0.2018621443378912	6.716893545232319e-07
0.20388076578127012	7.20506572225186e-07
0.20591957343908285	1.0943261304839937e-06
0.20797876917347366	7.360704218958894e-07
0.21005855686520844	1.6412874813440056e-06
0.2121591424338605	8.897605500137575e-07
0.21428073385819912	3.0500050578931484e-06
0.21642354119678112	2.6554768393092244e-06
0.2185877766087489	5.187060415538398e-06
0.2207736543748364	5.0181537057444104e-06
0.22298139091858477	1.9679391309543934e-05
0.2252112048277706	7.353914272838124e-06
0.22746331687604834	3.723419067311068e-05
0.22973795004480882	5.1830370237736286e-05
0.23203532954525688	0.00014077230765986896
0.23435568284070946	0.00025377018798930674
0.23669923966911657	0.00014305927231620148
0.2390662320658077	0.0003229121501268856
0.2414568943864658	0.0006357733393225953
0.2438714633303305	0.0018241680920659778
0.24631017796363378	0.0017492526478426423
0.24877327974327013	0.0010963050473558205
0.2512610125407028	0.002648032067289704
0.25377362266610987	0.009035256092687412
0.25631135889277096	0.010403958468967226
0.25887447248169865	0.010154298369467778
0.26146321720651566	0.04303347500107829
0.2640778493785808	0.0663037910135595
0.2667186278723666	0.07322435087767107
0.2693858141510903	0.09652321150141908
0.2720796722926012	0.09628951778671505
0.27480046901552724	0.16445931440759964
0.27754847370568253	0.3012421091260943
0.28032395844273933	0.21488506198039398
0.28312719802716674	0.38712625273005286
0.2859584700074384	0.26541786864103356
0.28881805470751276	0.9623460357641871
0.2917062352545879	1.5092039412427787
0.2946232976071338	1.5534324730554654
0.2975695305832051	1.533918850701125
0.30054522588903715	2.3283436891096896
0.3035506781479275	3.7504869044696503
0.3065861849294068	6.4803418600657885
0.3096520467787009	8.402939979028101
0.3127485672464879	16.833419197805163
0.3158760529189528	23.619167740129413
0.31903481344814233	22.331201606673833
0.3222251615826237	29.475159525742278
0.32544741319844994	49.80050731291295
0.3287018873304345	68.04201265616744
0.33198890620373883	90.25913792509384
0.3353087952657762	114.80146007685572
0.338661883218434	97.99141983454275
0.3420485020506183	118.57823597618076
0.34546898707112456	117.58600559330425
0.3489236769418358	159.663422676799
0.35241291371125416	197.75821809545047
0.3559370428483667	402.873762297223
0.3594964132768504	256.5189941681497
0.3630913774096189	701.2629260633485
0.3667222911837151	947.2121692668974
0.37038951409555215	831.9876312478041
0.37409340923650775	537.7207740308413
0.37783434332887283	1906.760997614231
0.38161268676216153	1744.7546684144431
0.38542881362978315	1621.8931974948566
0.389283101766081	1757.3488179005324
0.39317593278374185	2983.916469116948
0.39710769211157926	6652.723366658699
0.401078769032695	9014.215317505963
0.405089556723022	9462.300191786228
0.4091404522902522	13422.578488577368
0.4132318568131547	14621.35165940225
0.4173641753812863	15409.195922403265
0.42153781713509914	12481.394141101022
0.4257531953064501	12560.610557790651
0.43001072725951467	22652.41173668695
0.43431083453210984	33960.67498677197
0.43865394287743087	38477.50438078307
0.44304048230620524	53343.595827590885
0.44747088712926725	64083.285972572405
0.45194559600055995	86341.57115613276
0.4564650519605655	111209.02749918077
0.4610297024801712	93378.15149324038
0.4656399995049729	124765.0493773233
0.47029639950002267	159147.07684482023
0.47499936349502286	220972.12213366217
0.4797493571299731	159133.24916914458
0.48454685070127285	195604.89901728282
0.48939231920828563	319630.7453727031
0.4942862424003685	625041.0336989728
0.4992291048243721	292304.3819642211
0.5042213958726158	354803.12635940395
0.509263609831342	442118.81642109784
0.5143562459296555	646405.4373266555
0.519499808388952	410994.8307087622
0.5246948064728415	626044.1516065069
0.52994175453757	904023.8370373329
0.5352411720829456	1211996.093873324
0.5405935838037751	1255610.7552083314
0.5459995196418129	977307.8690654752
0.551459514838231	1103158.2427614823
0.5569741099866133	1461862.1155688302
0.5625438510864794	1358066.8181959123
0.5681692895973443	1706257.9552033776
0.5738509824933177	1936829.4770280027
0.5795894923182509	1947574.2858025017
0.5853853872414334	1440239.5257158696
0.5912392411138477	997025.1417923203
0.5971516335249862	2274680.2774442243
0.6031231498602361	3171097.326425986
0.6091543813588385	3848280.8740010182
0.6152459251724268	4003092.9814145234
0.6213983844241512	3182681.6966961124
0.6276123682683926	3845710.5174412
0.6338884919510765	5081508.8282493595
0.6402273768705874	5441232.726680177
0.6466296506392932	6688723.155073106
0.6530959471456862	7995118.214975448
0.6596269066171431	7947211.009718654
0.6662231756833145	7339329.725778107
0.6728854074401477	6505393.13137408
0.6796142615145492	7830579.464427195
0.6864104041296946	9256644.795010218
0.6932745081709915	10249222.362477576
0.7002072532527015	14145722.868306085
0.7072093257852285	11255359.530467859
0.7142814190430807	10152867.513079192
0.7214242332335116	12759705.240231998
0.7286384755658467	20179649.144210175
0.7359248603215052	18964726.650438447
0.7432841089247202	13178679.543149924
0.7507169500139675	15073174.464613983
0.7582241195141072	21160240.28899133
0.7658063607092482	13506613.585137527
0.7734644243163408	22765062.30009322
0.781199068559504	30631398.687680848
0.7890110592450992	26442999.83120808
0.7969011698375502	21702915.37065607
0.8048701815359257	33904595.917251684
0.8129188833512849	91712318.1420213
0.8210480721847978	98272150.98386167
0.8292585529066457	95777674.2692828
0.8375511384357123	106525353.5652098
0.8459266498200694	54144496.7861847
0.8543859163182701	55831880.71967286
0.8629297754814528	50982096.17183121
0.8715590732362674	51009481.355028786
0.8802746639686301	75110169.53288151
0.8890774106083162	80682420.39599577
0.8979681847143995	109085744.3324302
0.9069478665615435	116421974.24535465
0.9160173452271589	155091338.15918478
0.9251775186794305	134189299.56452125
0.9344292938662249	144071940.55126548
0.9437735868048871	189220108.25553286
0.953211322672936	198516650.56702006
0.9627434358996654	120429541.73118185
0.9723708702586621	128860432.10712078
0.9820945789612486	210812041.77299693
0.9919155247508612	142307041.45953882
1.0018346799983697	158930593.26408848
1.0118530267983534	176429523.43676737
1.021971557066337	204049560.38862067
1.0321912726370004	246215453.93030894
1.0425131853633705	295532667.4593955
1.0529383172170041	213828765.82603788
1.0634677003891742	177442729.93616155
1.074102377393066	313029916.4998546
1.0848434011669965	438301947.5606005
1.0956918351786664	454528115.6801623
1.1066487535304532	275159914.35591745
1.1177152410657578	295106260.6844245
1.1288923934764155	352667179.71230114
1.1401813174111797	298504102.04282784
1.1515831305852913	397796286.1927758
1.1630989618911443	398243041.5300821
1.1747299515100555	352666957.5192
1.1864772510251562	344618566.52547264
1.1983420235354079	336546157.23976403
1.210325443770762	368706585.0022765
1.2224286982084696	436191831.75892776
1.2346529851905543	444022186.50141764
1.2469995150424598	405385222.6881371
