#wavelength	surface flux
0.01	7.426162559071949e-94
0.0101	7.939576266859637e-94
0.010201	8.458124111725206e-94
0.010303010000000001	8.981857435039436e-94
0.0104060401	9.510828091586793e-94
0.010510100501000002	1.0045088454699642e-93
0.01061520150601	1.0584691421443605e-93
0.010721353521070101	1.1129690417855017e-93
0.010828567056280802	1.1680139404230534e-93
0.010936852726843608	1.2236092880469801e-93
0.011046221254112046	1.2560299636948851e-93
0.011156683466653166	1.2560299636948851e-93
0.011268250301319697	1.2560299636948851e-93
0.011380932804332895	1.2560299636948851e-93
0.011494742132376225	1.2560299636948851e-93
0.011609689553699986	1.2560299636948851e-93
0.011725786449236988	1.2560299636948851e-93
0.011843044313729357	1.2560299636948851e-93
0.01196147475686665	1.2560299636948851e-93
0.012081089504435316	1.2560299636948851e-93
0.012201900399479671	1.2560299636948851e-93
0.012323919403474468	1.2560299636948851e-93
0.012447158597509212	1.2560299636948851e-93
0.012571630183484304	1.2560299636948851e-93
0.012697346485319148	1.2560299636948851e-93
0.012824319950172339	1.2560299636948851e-93
0.012952563149674063	1.2560299636948851e-93
0.013082088781170804	1.2560299636948851e-93
0.013212909668982512	1.2560299636948851e-93
0.013345038765672336	1.2560299636948851e-93
0.013478489153329061	1.2560299636948851e-93
0.013613274044862352	1.2560299636948851e-93
0.013749406785310975	1.2560299636948851e-93
0.013886900853164083	1.2560299636948851e-93
0.014025769861695726	1.2560299636948851e-93
0.014166027560312683	1.2560299636948851e-93
0.01430768783591581	1.2560299636948851e-93
0.014450764714274969	1.2560299636948851e-93
0.014595272361417718	1.2560299636948851e-93
0.014741225085031895	1.2560299636948851e-93
0.014888637335882214	1.2560299636948851e-93
0.015037523709241036	1.2560299636948851e-93
0.015187898946333447	1.2560299636948851e-93
0.015339777935796781	1.2560299636948851e-93
0.015493175715154751	1.2560299636948851e-93
0.015648107472306296	1.2560299636948851e-93
0.01580458854702936	1.2560299636948851e-93
0.015962634432499654	1.2560299636948851e-93
0.016122260776824653	1.2560299636948851e-93
0.016283483384592897	1.2560299636948851e-93
0.016446318218438827	1.2560299636948851e-93
0.016610781400623217	1.2560299636948851e-93
0.016776889214629446	1.2560299636948851e-93
0.016944658106775742	1.2560299636948851e-93
0.0171141046878435	1.2560299636948851e-93
0.017285245734721934	1.2560299636948851e-93
0.017458098192069154	1.2560299636948851e-93
0.017632679173989845	1.2560299636948851e-93
0.017809005965729745	1.2560299636948851e-93
0.01798709602538704	1.2560299636948851e-93
0.018166966985640912	1.2560299636948851e-93
0.01834863665549732	1.2560299636948851e-93
0.018532123022052295	1.2560299636948851e-93
0.01871744425227282	1.2560299636948851e-93
0.01890461869479555	1.2560299636948851e-93
0.0190936648817435	1.2560299636948851e-93
0.019284601530560937	1.2560299636948851e-93
0.01947744754586655	1.2560299636948851e-93
0.019672222021325212	1.2560299636948851e-93
0.019868944241538466	1.2560299636948851e-93
0.020067633683953853	1.2560299636948851e-93
0.02026831002079339	1.2560299636948851e-93
0.020470993121001323	1.2560299636948851e-93
0.020675703052211336	1.2560299636948851e-93
0.02088246008273345	1.2560299636948851e-93
0.021091284683560786	1.2560299636948851e-93
0.021302197530396395	1.2560299636948851e-93
0.02151521950570036	1.2560299636948851e-93
0.02173037170075736	1.2560299636948851e-93
0.02194767541776493	1.2560299636948851e-93
0.022167152171942584	1.2560299636948851e-93
0.022388823693662012	1.2560299636948851e-93
0.02261271193059863	1.2560299636948851e-93
0.022838839049904615	1.2560299636948851e-93
0.023067227440403664	1.2560299636948851e-93
0.0232978997148077	1.2560299636948851e-93
0.023530878711955777	1.2560299636948851e-93
0.023766187499075334	1.2560299636948851e-93
0.024003849374066088	1.2560299636948851e-93
0.02424388786780675	1.2560299636948851e-93
0.024486326746484814	1.2560299636948851e-93
0.024731190013949664	1.2560299636948851e-93
0.024978501914089166	1.2560299636948851e-93
0.025228286933230055	1.2560299636948851e-93
0.02548056980256236	1.2560299636948851e-93
0.025735375500587982	1.2560299636948851e-93
0.025992729255593858	1.2560299636948851e-93
0.0262526565481498	1.2560299636948851e-93
0.026515183113631293	1.2560299636948851e-93
0.02678033494476761	1.2560299636948851e-93
0.027048138294215287	1.2560299636948851e-93
0.02731861967715744	1.2560299636948851e-93
0.027591805873929013	1.2560299636948851e-93
0.027867723932668304	1.2560299636948851e-93
0.02814640117199499	1.2560299636948851e-93
0.028427865183714936	1.2560299636948851e-93
0.02871214383555209	1.2560299636948851e-93
0.028999265273907608	1.2560299636948851e-93
0.029289257926646682	1.2560299636948851e-93
0.029582150505913153	1.2560299636948851e-93
0.02987797201097228	1.2560299636948851e-93
0.030176751731082006	1.2560299636948851e-93
0.030478519248392826	1.2560299636948851e-93
0.030783304440876753	1.2560299636948851e-93
0.031091137485285525	1.2560299636948851e-93
0.03140204886013838	1.2560299636948851e-93
0.03171606934873976	1.2560299636948851e-93
0.03203323004222716	1.2560299636948851e-93
0.03235356234264943	1.2560299636948851e-93
0.03267709796607593	1.2560299636948851e-93
0.03300386894573669	1.2560299636948851e-93
0.03333390763519405	1.2560299636948851e-93
0.033667246711545994	1.2560299636948851e-93
0.034003919178661454	1.2560299636948851e-93
0.03434395837044807	1.2560299636948851e-93
0.03468739795415255	1.2560299636948851e-93
0.03503427193369407	1.2560299636948851e-93
0.03538461465303102	1.2560299636948851e-93
0.03573846079956133	1.2560299636948851e-93
0.03609584540755694	1.2560299636948851e-93
0.03645680386163251	1.2560299636948851e-93
0.03682137190024883	1.2560299636948851e-93
0.03718958561925133	1.2560299636948851e-93
0.03756148147544384	1.2560299636948851e-93
0.03793709629019828	1.2560299636948851e-93
0.03831646725310026	1.2560299636948851e-93
0.038699631925631264	1.2560299636948851e-93
0.039086628244887574	1.256943821301769e-93
0.039477494527336454	1.2610671430423159e-93
0.03987226947260982	1.2652316980002682e-93
0.04027099216733592	2.530007830989247e-93
0.04067370208900927	4.407535398080833e-93
0.04108043910989937	1.2824579918464587e-91
0.04149124350099836	7.529214744835917e-91
0.04190615593600835	1.383843906535546e-90
0.042325217495368425	1.2355273598375372e-88
0.04274846967032212	2.823629218024324e-88
0.043175954367025336	1.3500827056819503e-86
0.04360771391069559	4.5704913003828685e-86
0.04404379104980254	5.764452136520064e-85
0.04448422896030057	5.620192908089666e-84
0.04492907124990358	1.0714378079471733e-83
0.04537836196240262	5.623266510877379e-82
0.04583214558202665	1.2229216683152675e-81
0.04629046703784691	4.389003852921465e-80
0.046753371708225376	1.1149734865880534e-79
0.04722090542530763	2.9531670911400427e-78
0.047693114479560705	8.950544292026894e-78
0.04817004562435631	1.638231176018336e-76
0.04865174608059988	5.915006133291239e-76
0.04913826354140587	8.477608960426818e-75
0.04962964617681994	3.540562338458536e-74
0.05012594263858814	2.691730323820351e-65
0.05062720206497402	1.3404982090158066e-64
0.05113347408562376	1.585656088587963e-63
0.051644808826479996	6.841471556961025e-63
0.0521612569147448	4.351909157667043e-62
0.052682869483892246	1.5034964395785061e-61
0.05320969817873117	9.851359607008252e-61
0.05374179516051848	2.938548629113295e-60
0.054279213112123664	2.168817781572097e-59
0.0548220052432449	5.629483527460605e-59
0.05537022529567735	4.076661875313372e-58
0.05592392754863413	9.161984135538104e-58
0.056483166824120475	9.6111156637014e-56
0.057047998492361675	3.931855313741317e-55
0.057618478477285295	2.714649742045885e-54
0.05819466326205815	9.986525849364704e-54
0.05877660989467873	2.708452820300451e-53
0.05936437599362551	2.8393719135906667e-52
0.05995801975356178	6.917101684898362e-52
0.06055759995109739	4.094130778449178e-51
0.06116317595060837	1.4653400054605365e-50
0.061774807710114454	4.419996487412651e-50
0.062392555787215594	1.9938770086246392e-49
0.06301648134508775	4.657957650838233e-49
0.06364664615853863	2.1138314745194118e-48
0.06428311262012401	8.025025879742066e-48
0.06492594374632525	1.9348629107157918e-47
0.06557520318378851	8.601417615890115e-47
0.0662309552156264	2.945155954638891e-46
0.06689326476778266	7.540102381512995e-46
0.06756219741546049	3.109604340351665e-45
0.0682378193896151	1.0258916674136069e-44
0.06892019758351124	2.567457248365717e-44
0.06960939955934635	1.0097177364823973e-43
0.07030549355493981	3.3610594639410672e-43
0.07100854849048922	7.897103931123697e-43
0.07171863397539412	2.9614516924356734e-42
0.07243582031514804	1.0124618123981492e-41
0.07316017851829953	2.8854946817226577e-41
0.07389178030348253	7.713903314572708e-41
0.07463069810651736	2.677080759597787e-40
0.07537700508758254	8.37106463367531e-40
0.07613077513845835	2.263414594198306e-39
0.07689208288984294	6.122317768499084e-39
0.07766100371874136	2.452503801469702e-38
0.07843761375592878	1.1957834431271348e-37
0.07922198989348807	3.7574747532691387e-37
0.08001420979242296	9.202056592798781e-37
0.08081435189034718	2.8084211141826703e-36
0.08162249540925066	8.459027138909179e-36
0.08243872036334317	2.414395111078051e-35
0.08326310756697661	5.839700412508066e-35
0.08409573864264637	9.975878431294253e-35
0.08493669602907282	1.4580912232395108e-35
0.08578606298936356	2.0373206757313962e-36
0.0866439236192572	1.0516038213103129e-36
0.08751036285544977	2.9510297102945654e-34
0.08838546648400426	3.089602559172509e-33
0.08926932114884432	6.048645009640771e-33
0.09016201436033276	3.040277900515243e-32
0.09106363450393609	2.6689213672699456e-31
0.09197427084897544	1.6382794152444746e-30
0.0928940135574652	4.753609969348864e-31
0.09382295369303986	1.3459199895541647e-30
0.09476118322997025	1.2180747321521488e-30
0.09570879506226997	8.042694941632826e-30
0.09666588301289265	1.2422585573351773e-29
0.09763254184302157	4.416293464425162e-29
0.09860886726145181	5.341886882215105e-27
0.09959495593406631	6.181600395625034e-26
0.10059090549340699	4.5319808770984836e-26
0.10159681454834106	3.629224469243748e-27
0.10261278269382446	9.083724922656166e-29
0.10363891052076271	1.8410843318626992e-28
0.10467529962597034	4.717786110651271e-28
0.10572205262223004	1.2029126080558723e-27
0.10677927314845236	3.0437849692399956e-27
0.10784706587993687	7.647324547745797e-27
0.10892553653873624	1.8606162988692002e-26
0.1100147919041236	2.5532357828198013e-25
0.11111493982316484	1.1061909511680155e-21
0.1122260892213965	2.7799018217395656e-20
0.11334835011361045	6.71270415019651e-20
0.11448183361474655	5.778620454316158e-20
0.11562665195089401	1.5382131003261522e-19
0.11678291847040295	3.9936113825354237e-19
0.117950747655107	8.900639485800895e-18
0.11913025513165806	4.4694553793859925e-17
0.12032155768297464	1.0888230483886656e-17
0.1215247732598044	2.889774415034453e-17
0.12274002099240244	3.150313200133043e-16
0.12396742120232647	9.162936136503654e-16
0.12520709541434974	9.840956500927323e-16
0.12645916636849325	4.83386797272722e-16
0.12772375803217817	6.334067606968326e-16
0.12900099561249995	1.8473612999159282e-15
0.13029100556862497	1.924496451524589e-15
0.1315939156243112	4.165104894277275e-15
0.1329098547805543	6.037163452588557e-15
0.13423895332835986	1.2088507628645692e-14
0.13558134286164344	1.9787531615546536e-14
0.1369371562902599	1.679164437056739e-14
0.1383065278531625	8.530089854608928e-14
0.13968959313169413	5.13036337583812e-13
0.14108648906301105	1.207662372760513e-12
0.1424973539536412	3.2107103885506955e-12
0.14392232749317757	4.879868312222357e-12
0.14536155076810936	3.024782021086488e-11
0.14681516627579044	5.117189896327466e-11
0.14828331793854838	7.188515325925102e-11
0.14976615111793384	1.1464238840479814e-10
0.15126381262911318	1.346539005849305e-10
0.15277645075540433	5.7251076092916594e-11
0.15430421526295837	4.1811959603824414e-11
0.15584725741558797	8.3469248248162e-11
0.15740572998974384	1.430912663840389e-10
0.15897978728964127	1.5932617741251804e-10
0.1605695851625377	2.1970901134593222e-10
0.16217528101416306	4.461603077800061e-11
0.16379703382430472	8.445494658200712e-11
0.16543500416254772	2.5767919727502603e-10
0.16708935420417323	2.7864862170192423e-09
0.16876024774621495	1.4288820556822332e-10
0.17044785022367712	3.043886540358161e-08
0.17215232872591388	8.705747676431375e-09
0.173873852013173	4.8305483633809496e-09
0.17561259053330475	3.341386678130817e-08
0.1773687164386378	2.1086344242288312e-07
0.1791424036030242	1.1727027860756214e-06
0.1809338276390544	3.013965643872093e-08
0.18274316591544498	2.2270242363267017e-06
0.18457059757459943	4.6621372214343623e-07
0.1864163035503454	3.943661109188942e-08
0.18828046658584888	9.792476608358666e-08
0.19016327125170737	2.8520135005048577e-07
0.19206490396422443	1.3039238570045143e-05
0.1939855530038667	6.754516699005424e-05
0.19592540853390536	0.0002625347523494075
0.19788466261924442	0.0007195880024438497
0.19986350924543686	0.0004922519175079494
0.2018621443378912	0.000545569928380891
0.20388076578127012	0.0006226531884812405
0.20591957343908285	0.0008575796764451296
0.20797876917347366	0.0003080733337996841
0.21005855686520844	0.0009022078268898485
0.2121591424338605	0.0002674474978873083
0.21428073385819912	0.0018881726071045184
0.21642354119678112	0.0011111246146600705
0.2185877766087489	0.004177670080304562
0.2207736543748364	0.001173089130868141
0.22298139091858477	0.04036640589739041
0.2252112048277706	0.0012692404652065873
0.22746331687604834	0.008683338916583367
0.22973795004480882	0.06271757086192788
0.23203532954525688	0.1045154195302621
0.23435568284070946	0.47551425573098954
0.23669923966911657	0.0478265847483229
0.2390662320658077	0.341148336585587
0.2414568943864658	4.270124691514513
0.2438714633303305	7.129273620321549
0.24631017796363378	4.533938685498894
0.24877327974327013	0.4438414533517483
0.2512610125407028	1.11379745446609
0.25377362266610987	14.739572867797829
0.25631135889277096	20.403201605262645
0.25887447248169865	39.94781535823704
0.26146321720651566	396.19802926461557
0.2640778493785808	887.218324062288
0.2667186278723666	432.6802631467459
0.2693858141510903	429.4493022434789
0.2720796722926012	194.1727441220192
0.27480046901552724	225.72952626157044
0.27754847370568253	1480.5854473158074
0.28032395844273933	256.5884871803489
0.28312719802716674	299.0343219404891
0.2859584700074384	63.67977431009044
0.28881805470751276	1930.602028295218
0.2917062352545879	7298.5230231212745
0.2946232976071338	2484.933977575555
0.2975695305832051	1908.9774029463829
0.30054522588903715	1871.148502337351
0.3035506781479275	5344.33608007239
0.3065861849294068	20601.83219577486
0.3096520467787009	12177.909268903111
0.3127485672464879	280592.54475416214
0.3158760529189528	803853.857441746
0.31903481344814233	334860.26160352497
0.3222251615826237	458716.9794459832
0.32544741319844994	1638649.8564257994
0.3287018873304345	2335341.846085063
0.33198890620373883	2674900.753321134
0.3353087952657762	2717234.467225057
0.338661883218434	710426.7628164571
0.3420485020506183	361256.41662727256
0.34546898707112456	118376.86699708083
0.3489236769418358	256332.13125706383
0.35241291371125416	540825.7013221587
0.3559370428483667	1470707.802335425
0.3594964132768504	132798.63160073842
0.3630913774096189	2014089.7237516132
0.3667222911837151	4608334.846365616
0.37038951409555215	1298394.0809333518
0.37409340923650775	116515.00598227757
0.37783434332887283	4881778.826696015
0.38161268676216153	2330570.987579723
0.38542881362978315	1055512.5550551421
0.389283101766081	477236.15115367563
0.39317593278374185	1024151.6708130096
0.39710769211157926	3718817.5432623215
0.401078769032695	19076546.641366716
0.405089556723022	15100113.60282891
0.4091404522902522	22929525.85145889
0.4132318568131547	14736043.337250339
0.4173641753812863	6366105.291312396
0.42153781713509914	570229.1560422016
0.4257531953064501	1469527.288691002
0.43001072725951467	6478028.215570756
0.43431083453210984	16645066.367651641
0.43865394287743087	21552454.17350999
0.44304048230620524	24995800.315735627
0.44747088712926725	37114521.50893486
0.45194559600055995	38325520.25370129
0.4564650519605655	65071888.147753745
0.4610297024801712	34322077.25498356
0.4656399995049729	36082206.4168834
0.47029639950002267	47200873.32359043
0.47499936349502286	66828857.08401751
0.4797493571299731	21335776.087163866
0.48454685070127285	27177090.27422904
0.48939231920828563	78849654.8662255
0.4942862424003685	151493097.0933349
0.4992291048243721	35919536.29470513
0.5042213958726158	38337628.33201929
0.509263609831342	46974220.731053844
0.5143562459296555	97536287.13774185
0.519499808388952	20518576.354115743
0.5246948064728415	84487655.75520827
0.52994175453757	124590842.48289134
0.5352411720829456	173411052.4987299
0.5405935838037751	151675256.89003426
0.5459995196418129	63587765.65104891
0.551459514838231	90185870.91923195
0.5569741099866133	135100749.6552348
0.5625438510864794	56005199.10329768
0.5681692895973443	101903977.02692457
0.5738509824933177	167974477.38896573
0.5795894923182509	139845999.43251383
0.5853853872414334	61732148.00127759
0.5912392411138477	18689378.724643894
0.5971516335249862	65594646.76419662
0.6031231498602361	147579543.4490387
0.6091543813588385	237985009.10617298
0.6152459251724268	185160421.794626
0.6213983844241512	41191752.507121556
0.6276123682683926	54025595.4172236
0.6338884919510765	141562067.4284795
0.6402273768705874	134041303.23231427
0.6466296506392932	203338294.9314881
0.6530959471456862	248326982.33696902
0.6596269066171431	253404982.29248512
0.6662231756833145	167189938.65693018
0.6728854074401477	72946659.1464171
0.6796142615145492	91201318.21330988
0.6864104041296946	125685112.21672204
0.6932745081709915	130213924.29278854
0.7002072532527015	307853034.11252457
0.7072093257852285	189913223.28694165
0.7142814190430807	76713148.96269836
0.7214242332335116	144116131.99502897
0.7286384755658467	537769354.6647701
0.7359248603215052	951804568.8281243
0.7432841089247202	870123170.6048223
0.7507169500139675	915343838.079553
0.7582241195141072	1027856226.8087509
0.7658063607092482	266051238.62806156
0.7734644243163408	477241912.2078763
0.781199068559504	767590699.4307926
0.7890110592450992	807046385.4492728
0.7969011698375502	843322749.7286519
0.8048701815359257	1330418694.7726085
0.8129188833512849	2007400266.9813726
0.8210480721847978	1610642730.459588
0.8292585529066457	1798597531.9211125
0.8375511384357123	1759574977.2741332
0.8459266498200694	1008809369.4412733
0.8543859163182701	1277010108.3830361
0.8629297754814528	1362382444.046643
0.8715590732362674	1344211097.318132
0.8802746639686301	1632476221.793273
0.8890774106083162	1376868951.0331762
0.8979681847143995	1609635087.6437585
0.9069478665615435	1625341519.6733341
0.9160173452271589	1962398510.2714233
0.9251775186794305	1878817647.3359022
0.9344292938662249	1947683643.8720236
0.9437735868048871	2134317647.1685314
0.953211322672936	2244738475.284424
0.9627434358996654	2065952017.7950373
0.9723708702586621	2040860673.1691334
0.9820945789612486	2361649635.738963
0.9919155247508612	1564290586.9024608
1.0018346799983697	1837018309.6735706
1.0118530267983534	1955088814.9135115
1.021971557066337	2074308011.2263544
1.0321912726370004	2224198456.4285536
1.0425131853633705	2388321322.340336
1.0529383172170041	2349986306.655409
1.0634677003891742	2300794777.310071
1.074102377393066	2574977441.9629974
1.0848434011669965	2692833218.5465593
1.0956918351786664	2758977135.00066
1.1066487535304532	2295407445.470875
1.1177152410657578	2301209499.0027566
1.1288923934764155	2396793574.296374
1.1401813174111797	2049483742.6673484
1.1515831305852913	2532541277.5254965
1.1630989618911443	2497762281.388131
1.1747299515100555	2318763976.20094
1.1864772510251562	2260622540.4029393
1.1983420235354079	2210929822.5112896
1.210325443770762	2251032304.323554
1.2224286982084696	2401431606.9238143
1.2346529851905543	2368103984.8806386
1.2469995150424598	2168890814.9739256
1.2594695101928843	2336916374.00988
1.2720642052948132	2331292037.1438646
1.2847848473477614	2313971721.346222
