#wavelength	surface flux
0.01	7.426162559071949e-94
0.0101	7.939576266859637e-94
0.010201	8.458124111725206e-94
0.010303010000000001	8.981857435039436e-94
0.0104060401	9.510828091586793e-94
0.010510100501000002	1.0045088454699642e-93
0.01061520150601	1.0584691421443605e-93
0.010721353521070101	1.1129690417855017e-93
0.010828567056280802	1.1680139404230534e-93
0.010936852726843608	1.2236092880469801e-93
0.011046221254112046	1.2560299636948851e-93
0.011156683466653166	1.2560299636948851e-93
0.011268250301319697	1.2560299636948851e-93
0.011380932804332895	1.2560299636948851e-93
0.011494742132376225	1.2560299636948851e-93
0.011609689553699986	1.2560299636948851e-93
0.011725786449236988	1.2560299636948851e-93
0.011843044313729357	1.2560299636948851e-93
0.01196147475686665	1.2560299636948851e-93
0.012081089504435316	1.2560299636948851e-93
0.012201900399479671	1.2560299636948851e-93
0.012323919403474468	1.2560299636948851e-93
0.012447158597509212	1.2560299636948851e-93
0.012571630183484304	1.2560299636948851e-93
0.012697346485319148	1.2560299636948851e-93
0.012824319950172339	1.2560299636948851e-93
0.012952563149674063	1.2560299636948851e-93
0.013082088781170804	1.2560299636948851e-93
0.013212909668982512	1.2560299636948851e-93
0.013345038765672336	1.2560299636948851e-93
0.013478489153329061	1.2560299636948851e-93
0.013613274044862352	1.2560299636948851e-93
0.013749406785310975	1.2560299636948851e-93
0.013886900853164083	1.2560299636948851e-93
0.014025769861695726	1.2560299636948851e-93
0.014166027560312683	1.2560299636948851e-93
0.01430768783591581	1.2560299636948851e-93
0.014450764714274969	1.2560299636948851e-93
0.014595272361417718	1.2560299636948851e-93
0.014741225085031895	1.2560299636948851e-93
0.014888637335882214	1.2560299636948851e-93
0.015037523709241036	1.2560299636948851e-93
0.015187898946333447	1.2560299636948851e-93
0.015339777935796781	1.2560299636948851e-93
0.015493175715154751	1.2560299636948851e-93
0.015648107472306296	1.2560299636948851e-93
0.01580458854702936	1.2560299636948851e-93
0.015962634432499654	1.2560299636948851e-93
0.016122260776824653	1.2560299636948851e-93
0.016283483384592897	1.2560299636948851e-93
0.016446318218438827	1.2560299636948851e-93
0.016610781400623217	1.2560299636948851e-93
0.016776889214629446	1.2560299636948851e-93
0.016944658106775742	1.2560299636948851e-93
0.0171141046878435	1.2560299636948851e-93
0.017285245734721934	1.2560299636948851e-93
0.017458098192069154	1.2560299636948851e-93
0.017632679173989845	1.2560299636948851e-93
0.017809005965729745	1.2560299636948851e-93
0.01798709602538704	1.2560299636948851e-93
0.018166966985640912	1.2560299636948851e-93
0.01834863665549732	1.2560299636948851e-93
0.018532123022052295	1.2560299636948851e-93
0.01871744425227282	1.2560299636948851e-93
0.01890461869479555	1.2560299636948851e-93
0.0190936648817435	1.2560299636948851e-93
0.019284601530560937	1.2560299636948851e-93
0.01947744754586655	1.2560299636948851e-93
0.019672222021325212	1.2560299636948851e-93
0.019868944241538466	1.2560299636948851e-93
0.020067633683953853	1.2560299636948851e-93
0.02026831002079339	1.2560299636948851e-93
0.020470993121001323	1.2560299636948851e-93
0.020675703052211336	1.2560299636948851e-93
0.02088246008273345	1.2560299636948851e-93
0.021091284683560786	1.2560299636948851e-93
0.021302197530396395	1.2560299636948851e-93
0.02151521950570036	1.2560299636948851e-93
0.02173037170075736	1.2560299636948851e-93
0.02194767541776493	1.2560299636948851e-93
0.022167152171942584	1.2560299636948851e-93
0.022388823693662012	1.2560299636948851e-93
0.02261271193059863	1.2560299636948851e-93
0.022838839049904615	1.2560299636948851e-93
0.023067227440403664	1.2560299636948851e-93
0.0232978997148077	1.2560299636948851e-93
0.023530878711955777	1.2560299636948851e-93
0.023766187499075334	1.2560299636948851e-93
0.024003849374066088	1.2560299636948851e-93
0.02424388786780675	1.2560299636948851e-93
0.024486326746484814	1.2560299636948851e-93
0.024731190013949664	1.2560299636948851e-93
0.024978501914089166	1.2560299636948851e-93
0.025228286933230055	1.2560299636948851e-93
0.02548056980256236	1.2560299636948851e-93
0.025735375500587982	1.2560299636948851e-93
0.025992729255593858	1.2560299636948851e-93
0.0262526565481498	1.2560299636948851e-93
0.026515183113631293	1.2560299636948851e-93
0.02678033494476761	1.2560299636948851e-93
0.027048138294215287	1.2560299636948851e-93
0.02731861967715744	1.2560299636948851e-93
0.027591805873929013	1.2560299636948851e-93
0.027867723932668304	1.2560299636948851e-93
0.02814640117199499	1.2560299636948851e-93
0.028427865183714936	1.2560299636948851e-93
0.02871214383555209	1.2560299636948851e-93
0.028999265273907608	1.2560299636948851e-93
0.029289257926646682	1.2560299636948851e-93
0.029582150505913153	1.2560299636948851e-93
0.02987797201097228	1.2560299636948851e-93
0.030176751731082006	1.2560299636948851e-93
0.030478519248392826	1.2560299636948851e-93
0.030783304440876753	1.2560299636948851e-93
0.031091137485285525	1.2560299636948851e-93
0.03140204886013838	1.2560299636948851e-93
0.03171606934873976	1.2560299636948851e-93
0.03203323004222716	1.2560299636948851e-93
0.03235356234264943	1.2560299636948851e-93
0.03267709796607593	1.2560299636948851e-93
0.03300386894573669	1.2560299636948851e-93
0.03333390763519405	1.2560299636948851e-93
0.033667246711545994	1.2560299636948851e-93
0.034003919178661454	1.2560299636948851e-93
0.03434395837044807	1.2560299636948851e-93
0.03468739795415255	1.2560299636948851e-93
0.03503427193369407	1.2560299636948851e-93
0.03538461465303102	1.2560299636948851e-93
0.03573846079956133	1.2560299636948851e-93
0.03609584540755694	1.2560299636948851e-93
0.03645680386163251	1.2560299636948851e-93
0.03682137190024883	1.2560299636948851e-93
0.03718958561925133	1.2560299636948851e-93
0.03756148147544384	1.2560299636948851e-93
0.03793709629019828	1.2560299636948851e-93
0.03831646725310026	1.2560299636948851e-93
0.038699631925631264	1.2560299636948851e-93
0.039086628244887574	1.2560299636948851e-93
0.039477494527336454	1.2560299636948851e-93
0.03987226947260982	1.2560299636948851e-93
0.04027099216733592	1.2560299636948851e-93
0.04067370208900927	1.2560299636948851e-93
0.04108043910989937	1.2560299636948851e-93
0.04149124350099836	1.2560299636948851e-93
0.04190615593600835	1.2560299636948851e-93
0.042325217495368425	1.2562528748461968e-93
0.04274846967032212	1.2565429811011116e-93
0.043175954367025336	1.2961982320640113e-93
0.04360771391069559	1.3930818509172143e-93
0.04404379104980254	3.773842011885742e-93
0.04448422896030057	2.683350869630711e-92
0.04492907124990358	5.012377204757284e-92
0.04537836196240262	3.811666798590196e-90
0.04583214558202665	8.318571894647945e-90
0.04629046703784691	4.34241584386413e-88
0.046753371708225376	1.1103597542794943e-87
0.04722090542530763	4.208713688431057e-86
0.047693114479560705	1.2890937588795164e-85
0.04817004562435631	3.2902045360521497e-84
0.04865174608059988	1.2085592740964717e-83
0.04913826354140587	2.375931211477378e-82
0.04962964617681994	1.016438268849936e-81
0.05012594263858814	6.745821272128326e-76
0.05062720206497402	3.3594539877851526e-75
0.05113347408562376	5.420542896914721e-74
0.051644808826479996	2.4134497934207558e-73
0.0521612569147448	2.388484377517044e-72
0.052682869483892246	8.913280722492942e-72
0.05320969817873117	9.584218087802006e-71
0.05374179516051848	3.063533187225095e-70
0.054279213112123664	3.5531343511849163e-69
0.0548220052432449	9.66631310903463e-69
0.05537022529567735	1.0998374289848794e-67
0.05592392754863413	2.5701854216296987e-67
0.056483166824120475	2.372593218528884e-64
0.057047998492361675	9.793549207668819e-64
0.057618478477285295	6.786559256691076e-63
0.05819466326205815	4.67322063987581e-62
0.05877660989467873	1.5453954586883766e-61
0.05936437599362551	2.4418890213588814e-60
0.05995801975356178	6.101031234778554e-60
0.06055759995109739	5.304321521433508e-59
0.06116317595060837	2.4330252380661755e-58
0.061774807710114454	8.176189069833975e-58
0.062392555787215594	4.9259846635157975e-57
0.06301648134508775	1.2545122820254422e-56
0.06364664615853863	7.330144917853796e-56
0.06428311262012401	3.5407657193698645e-55
0.06492594374632525	9.142458449156738e-55
0.06557520318378851	5.259837870680372e-54
0.0662309552156264	2.2072691686852674e-53
0.06689326476778266	6.122026139666296e-53
0.06756219741546049	3.1666914788457022e-52
0.0682378193896151	1.2526379043649442e-51
0.06892019758351124	3.381538240889761e-51
0.06960939955934635	1.6342014140049959e-50
0.07030549355493981	6.473491728162715e-50
0.07100854849048922	1.6310614160895452e-49
0.07171863397539412	7.344152187939072e-49
0.07243582031514804	2.982113015464947e-48
0.07316017851829953	9.708505646421666e-48
0.07389178030348253	2.8479417267829677e-47
0.07463069810651736	1.1730515450149165e-46
0.07537700508758254	4.2747245231310924e-46
0.07613077513845835	1.3028823458844645e-45
0.07689208288984294	3.8999986261546996e-45
0.07766100371874136	3.4466398588577486e-44
0.07843761375592878	3.1306923255984e-43
0.07922198989348807	1.1751912739835882e-42
0.08001420979242296	3.151670682886099e-42
0.08081435189034718	1.1038208327443394e-41
0.08162249540925066	3.8196776199236235e-41
0.08243872036334317	1.23833860207486e-40
0.08326310756697661	3.2937635631714713e-40
0.08409573864264637	5.956069525974309e-40
0.08493669602907282	8.941681665420318e-41
0.08578606298936356	2.1564958909149288e-41
0.0866439236192572	4.25591833064314e-41
0.08751036285544977	1.0585827441859188e-39
0.08838546648400426	1.0081331598645362e-38
0.08926932114884432	2.1387098359720265e-38
0.09016201436033276	6.412584966628158e-38
0.09106363450393609	4.0528656641116155e-37
0.09197427084897544	1.8128742677794327e-36
0.0928940135574652	1.0160660026995246e-36
0.09382295369303986	5.24968332393241e-36
0.09476118322997025	7.766878087410318e-36
0.09570879506226997	5.33105185816192e-35
0.09666588301289265	1.1625836683885155e-34
0.09763254184302157	2.8638708776763535e-34
0.09860886726145181	1.0814192303469005e-32
0.09959495593406631	1.2267716190923443e-31
0.10059090549340699	9.117589226198288e-32
0.10159681454834106	1.2398550383044033e-32
0.10261278269382446	1.3933160883962245e-32
0.10363891052076271	3.8209955706413533e-32
0.10467529962597034	1.0719345720719707e-31
0.10572205262223004	2.9661012220711277e-31
0.10677927314845236	8.16864563920866e-31
0.10784706587993687	2.2487351874020695e-30
0.10892553653873624	5.860147247363369e-30
0.1100147919041236	1.8320835926004558e-29
0.11111493982316484	8.250953249966256e-27
0.1122260892213965	2.0882173997322004e-25
0.11334835011361045	5.917193445062631e-25
0.11448183361474655	1.7519492972147538e-24
0.11562665195089401	9.060732272163938e-24
0.11678291847040295	1.7185318433622785e-23
0.117950747655107	1.907109531827984e-22
0.11913025513165806	5.520370140716901e-22
0.12032155768297464	4.1190351843359067e-22
0.1215247732598044	7.066242713078022e-22
0.12274002099240244	3.105451833283028e-21
0.12396742120232647	6.30689431046938e-21
0.12520709541434974	8.073064464432895e-21
0.12645916636849325	5.241665330763728e-21
0.12772375803217817	8.914824296115582e-21
0.12900099561249995	2.469708692849288e-20
0.13029100556862497	3.1079640949868613e-20
0.1315939156243112	7.80514147510002e-20
0.1329098547805543	1.3605127852633027e-19
0.13423895332835986	3.019015782834069e-19
0.13558134286164344	6.308974072668239e-19
0.1369371562902599	6.703524452277558e-19
0.1383065278531625	2.7175707327136387e-18
0.13968959313169413	1.6048391242065837e-17
0.14108648906301105	3.346237987233813e-17
0.1424973539536412	9.174700638001264e-17
0.14392232749317757	1.9404905774746898e-16
0.14536155076810936	1.0748693745978878e-15
0.14681516627579044	2.0529114219337515e-15
0.14828331793854838	3.264939454237019e-15
0.14976615111793384	6.0067195505007894e-15
0.15126381262911318	8.127481811976223e-15
0.15277645075540433	4.726957474427302e-15
0.15430421526295837	4.709983041980964e-15
0.15584725741558797	1.177849257392973e-14
0.15740572998974384	2.600312390043547e-14
0.15897978728964127	3.461901038079633e-14
0.1605695851625377	3.8735251565805976e-14
0.16217528101416306	1.3530914771154326e-14
0.16379703382430472	3.185338537756164e-14
0.16543500416254772	8.944967237230344e-14
0.16708935420417323	8.179645517536266e-13
0.16876024774621495	6.311629209276966e-14
0.17044785022367712	8.573208805750224e-12
0.17215232872591388	2.5277343205197566e-12
0.173873852013173	3.771152307635055e-12
0.17561259053330475	1.7452821102106094e-11
0.1773687164386378	7.462104724998608e-11
0.1791424036030242	4.4882995277166636e-10
0.1809338276390544	1.958759507057083e-11
0.18274316591544498	1.6497089371200978e-09
0.18457059757459943	3.9319315033966955e-10
0.1864163035503454	3.9349278354033246e-11
0.18828046658584888	1.511989936861049e-10
0.19016327125170737	4.1808063963349336e-10
0.19206490396422443	9.775577458113407e-09
0.1939855530038667	4.589638319369447e-08
0.19592540853390536	2.2899521175064326e-07
0.19788466261924442	1.086125646791945e-06
0.19986350924543686	6.642546105255082e-07
0.2018621443378912	1.1289985466924098e-06
0.20388076578127012	8.298566179758654e-07
0.20591957343908285	1.387035954886342e-06
0.20797876917347366	3.800927773444543e-07
0.21005855686520844	9.241122606016623e-07
0.2121591424338605	3.88707375799155e-07
0.21428073385819912	2.4135617266291493e-06
0.21642354119678112	1.4849210838908503e-06
0.2185877766087489	4.360181522581185e-06
0.2207736543748364	2.1993333843542764e-06
0.22298139091858477	2.706973926127641e-05
0.2252112048277706	2.945941266622445e-06
0.22746331687604834	3.80912003832432e-05
0.22973795004480882	6.472487107172832e-05
0.23203532954525688	0.00016941509467043375
0.23435568284070946	0.0003659322967141668
0.23669923966911657	0.00010341260999180321
0.2390662320658077	0.00042027635384252134
0.2414568943864658	0.0009918938233436155
0.2438714633303305	0.0031911554038653424
0.24631017796363378	0.002722775323335673
0.24877327974327013	0.0009999505616745204
0.2512610125407028	0.0025055735492711863
0.25377362266610987	0.01556438608171839
0.25631135889277096	0.01613036737930603
0.25887447248169865	0.016089645816878988
0.26146321720651566	0.10322143104173012
0.2640778493785808	0.16071128836555582
0.2667186278723666	0.14871734180538038
0.2693858141510903	0.1975213785104882
0.2720796722926012	0.18149695728039422
0.27480046901552724	0.31972119940355037
0.27754847370568253	0.6876515288673015
0.28032395844273933	0.41589006229561754
0.28312719802716674	0.7774225333186622
0.2859584700074384	0.37260130063363694
0.28881805470751276	2.3215565418297066
0.2917062352545879	3.8677913304169724
0.2946232976071338	3.3540886837158363
0.2975695305832051	3.098728359765038
0.30054522588903715	4.728022404741404
0.3035506781479275	8.16056370845598
0.3065861849294068	20.34087370176313
0.3096520467787009	24.34089927236886
0.3127485672464879	171.39542525630995
0.3158760529189528	644.1099537510312
0.31903481344814233	237.28783410009356
0.3222251615826237	342.8812176179432
0.32544741319844994	2026.6562049855338
0.3287018873304345	3178.4010298202984
0.33198890620373883	3621.162115551232
0.3353087952657762	5801.170731385643
0.338661883218434	821.6177541291471
0.3420485020506183	461.81542784846454
0.34546898707112456	302.51629816090383
0.3489236769418358	484.6758054749325
0.35241291371125416	1120.8815527852241
0.3559370428483667	3698.862671146467
0.3594964132768504	607.1643938525859
0.3630913774096189	7566.187000423684
0.3667222911837151	14930.09591852074
0.37038951409555215	3682.6362022391054
0.37409340923650775	1087.8902157308546
0.37783434332887283	20516.994245406804
0.38161268676216153	12229.941109169024
0.38542881362978315	5610.480333688063
0.389283101766081	4085.2679907228467
0.39317593278374185	9470.80506747105
0.39710769211157926	37758.06413449022
0.401078769032695	160938.06531120976
0.405089556723022	133059.17702936553
0.4091404522902522	200014.58366081538
0.4132318568131547	114584.33698493672
0.4173641753812863	54370.589642028484
0.42153781713509914	20762.053453053148
0.4257531953064501	26273.31740370883
0.43001072725951467	78172.75920841406
0.43431083453210984	174025.80812227362
0.43865394287743087	229351.78684565675
0.44304048230620524	221217.0890584709
0.44747088712926725	327432.26891036873
0.45194559600055995	437958.35202365695
0.4564650519605655	730131.2026278414
0.4610297024801712	328217.2072716166
0.4656399995049729	406352.231835292
0.47029639950002267	558525.5231191042
0.47499936349502286	1141623.9515444997
0.4797493571299731	295845.36426678003
0.48454685070127285	450431.20325873414
0.48939231920828563	1170059.1810921645
0.4942862424003685	4459675.73658232
0.4992291048243721	681855.6708899677
0.5042213958726158	822742.3423745533
0.509263609831342	1328730.9226461027
0.5143562459296555	3285277.0954580065
0.519499808388952	766881.9384871111
0.5246948064728415	1844966.0858369875
0.52994175453757	2819329.37277542
0.5352411720829456	4208013.977194398
0.5405935838037751	4443129.284555977
0.5459995196418129	2075319.414533123
0.551459514838231	2269750.1534568006
0.5569741099866133	3511633.6298810346
0.5625438510864794	2045047.3527436338
0.5681692895973443	3152511.503143305
0.5738509824933177	4676900.533619264
0.5795894923182509	4546085.05998597
0.5853853872414334	2916622.6457354636
0.5912392411138477	1622185.7464036369
0.5971516335249862	3470682.314956753
0.6031231498602361	6031547.169338955
0.6091543813588385	9145575.017997755
0.6152459251724268	8866161.505718283
0.6213983844241512	3829194.444356664
0.6276123682683926	4847937.993922735
0.6338884919510765	8381552.828089942
0.6402273768705874	9324857.525246128
0.6466296506392932	11817106.115054462
0.6530959471456862	14260064.841642618
0.6596269066171431	13631860.957530895
0.6662231756833145	10788844.324745404
0.6728854074401477	8024663.251069532
0.6796142615145492	9717364.196984673
0.6864104041296946	12511420.199970448
0.6932745081709915	14749666.496167956
0.7002072532527015	29135608.60258384
0.7072093257852285	17344263.994144615
0.7142814190430807	11589341.157686178
0.7214242332335116	15654296.594845701
0.7286384755658467	40680427.30869902
0.7359248603215052	42435636.72905805
0.7432841089247202	21869165.342480317
0.7507169500139675	25647682.006653477
0.7582241195141072	46700833.428582504
0.7658063607092482	23354040.622816175
0.7734644243163408	39995393.94040281
0.781199068559504	67819377.64437653
0.7890110592450992	45853401.54031008
0.7969011698375502	33583742.34171812
0.8048701815359257	69592914.3540752
0.8129188833512849	245360896.87725326
0.8210480721847978	262598107.0023863
0.8292585529066457	225922983.51499894
0.8375511384357123	255111998.08689559
0.8459266498200694	91789538.89820138
0.8543859163182701	108888601.03413421
0.8629297754814528	93528744.9124558
0.8715590732362674	98082635.93242714
0.8802746639686301	179678057.51597023
0.8890774106083162	178689299.49415958
0.8979681847143995	247020205.74888167
0.9069478665615435	300562639.03325504
0.9160173452271589	421876089.84200454
0.9251775186794305	328367994.44924116
0.9344292938662249	333357097.1873508
0.9437735868048871	431507538.6711032
0.953211322672936	447709790.9277496
0.9627434358996654	260009737.36216304
0.9723708702586621	275396001.8625454
0.9820945789612486	458310129.33415097
0.9919155247508612	309080419.5783849
1.0018346799983697	388971445.848438
1.0118530267983534	435834176.24341613
1.021971557066337	488130570.82888323
1.0321912726370004	580670270.4626925
1.0425131853633705	672541822.902439
1.0529383172170041	466057992.89999485
1.0634677003891742	366761015.3365196
1.074102377393066	643339349.2644295
1.0848434011669965	833737510.8240205
1.0956918351786664	830174108.4167836
1.1066487535304532	540619956.0944344
1.1177152410657578	566124250.6255159
1.1288923934764155	641030159.6789354
1.1401813174111797	567504875.5100355
1.1515831305852913	707314836.3098848
1.1630989618911443	754146197.5702424
1.1747299515100555	681602626.1965328
1.1864772510251562	591385251.0140784
1.1983420235354079	647085769.0265384
1.210325443770762	682133941.8123773
1.2224286982084696	793470930.3589559
1.2346529851905543	799152223.9943511
1.2469995150424598	743082733.6043127
1.2594695101928843	820650638.2934419
