#wavelength	surface flux
0.01	7.426162559071949e-94
0.0101	7.939576266859637e-94
0.010201	8.458124111725206e-94
0.010303010000000001	8.981857435039436e-94
0.0104060401	9.510828091586793e-94
0.010510100501000002	1.0045088454699642e-93
0.01061520150601	1.0584691421443605e-93
0.010721353521070101	1.1129690417855017e-93
0.010828567056280802	1.1680139404230534e-93
0.010936852726843608	1.2236092880469801e-93
0.011046221254112046	1.2560299636948851e-93
0.011156683466653166	1.2560299636948851e-93
0.011268250301319697	1.2560299636948851e-93
0.011380932804332895	1.2560299636948851e-93
0.011494742132376225	1.2560299636948851e-93
0.011609689553699986	1.2560299636948851e-93
0.011725786449236988	1.2560299636948851e-93
0.011843044313729357	1.2560299636948851e-93
0.01196147475686665	1.2560299636948851e-93
0.012081089504435316	1.2560299636948851e-93
0.012201900399479671	1.2560299636948851e-93
0.012323919403474468	1.2560299636948851e-93
0.012447158597509212	1.2560299636948851e-93
0.012571630183484304	1.2560299636948851e-93
0.012697346485319148	1.2560299636948851e-93
0.012824319950172339	1.2560299636948851e-93
0.012952563149674063	1.2560299636948851e-93
0.013082088781170804	1.2560299636948851e-93
0.013212909668982512	1.2560299636948851e-93
0.013345038765672336	1.2560299636948851e-93
0.013478489153329061	1.2560299636948851e-93
0.013613274044862352	1.2560299636948851e-93
0.013749406785310975	1.2560299636948851e-93
0.013886900853164083	1.2560299636948851e-93
0.014025769861695726	1.2560299636948851e-93
0.014166027560312683	1.2560299636948851e-93
0.01430768783591581	1.2560299636948851e-93
0.014450764714274969	1.2560299636948851e-93
0.014595272361417718	1.2560299636948851e-93
0.014741225085031895	1.2560299636948851e-93
0.014888637335882214	1.2560299636948851e-93
0.015037523709241036	1.2560299636948851e-93
0.015187898946333447	1.2560299636948851e-93
0.015339777935796781	1.2560299636948851e-93
0.015493175715154751	1.2560299636948851e-93
0.015648107472306296	1.2560299636948851e-93
0.01580458854702936	1.2560299636948851e-93
0.015962634432499654	1.2560299636948851e-93
0.016122260776824653	1.2560299636948851e-93
0.016283483384592897	1.2560299636948851e-93
0.016446318218438827	1.2560299636948851e-93
0.016610781400623217	1.2560299636948851e-93
0.016776889214629446	1.2560299636948851e-93
0.016944658106775742	1.2560299636948851e-93
0.0171141046878435	1.2560299636948851e-93
0.017285245734721934	1.2560299636948851e-93
0.017458098192069154	1.2560299636948851e-93
0.017632679173989845	1.2560299636948851e-93
0.017809005965729745	1.2560299636948851e-93
0.01798709602538704	1.2560299636948851e-93
0.018166966985640912	1.2560299636948851e-93
0.01834863665549732	1.2560299636948851e-93
0.018532123022052295	1.2560299636948851e-93
0.01871744425227282	1.2560299636948851e-93
0.01890461869479555	1.2560299636948851e-93
0.0190936648817435	1.2560299636948851e-93
0.019284601530560937	1.2560299636948851e-93
0.01947744754586655	1.2560299636948851e-93
0.019672222021325212	1.2560299636948851e-93
0.019868944241538466	1.2560299636948851e-93
0.020067633683953853	1.2560299636948851e-93
0.02026831002079339	1.2560299636948851e-93
0.020470993121001323	1.2560299636948851e-93
0.020675703052211336	1.2560299636948851e-93
0.02088246008273345	1.2560299636948851e-93
0.021091284683560786	1.2560299636948851e-93
0.021302197530396395	1.2560299636948851e-93
0.02151521950570036	1.2560299636948851e-93
0.02173037170075736	1.2560299636948851e-93
0.02194767541776493	1.2560299636948851e-93
0.022167152171942584	1.2560299636948851e-93
0.022388823693662012	1.2560299636948851e-93
0.02261271193059863	1.2560299636948851e-93
0.022838839049904615	1.2560299636948851e-93
0.023067227440403664	1.2560299636948851e-93
0.0232978997148077	1.2560299636948851e-93
0.023530878711955777	1.2560299636948851e-93
0.023766187499075334	1.2560299636948851e-93
0.024003849374066088	1.2560299636948851e-93
0.02424388786780675	1.2560299636948851e-93
0.024486326746484814	1.2560299636948851e-93
0.024731190013949664	1.2560299636948851e-93
0.024978501914089166	1.2560299636948851e-93
0.025228286933230055	1.2560299636948851e-93
0.02548056980256236	1.2560299636948851e-93
0.025735375500587982	1.2560299636948851e-93
0.025992729255593858	1.2560299636948851e-93
0.0262526565481498	1.2560299636948851e-93
0.026515183113631293	1.2560299636948851e-93
0.02678033494476761	1.2560299636948851e-93
0.027048138294215287	1.2560299636948851e-93
0.02731861967715744	1.2560299636948851e-93
0.027591805873929013	1.2560299636948851e-93
0.027867723932668304	1.2560299636948851e-93
0.02814640117199499	1.2560299636948851e-93
0.028427865183714936	1.2560299636948851e-93
0.02871214383555209	1.2560299636948851e-93
0.028999265273907608	1.2560299636948851e-93
0.029289257926646682	1.2560299636948851e-93
0.029582150505913153	1.2560299636948851e-93
0.02987797201097228	1.2560299636948851e-93
0.030176751731082006	1.2560299636948851e-93
0.030478519248392826	1.2560299636948851e-93
0.030783304440876753	1.2560299636948851e-93
0.031091137485285525	1.2560299636948851e-93
0.03140204886013838	1.2560299636948851e-93
0.03171606934873976	1.2560299636948851e-93
0.03203323004222716	1.2560299636948851e-93
0.03235356234264943	1.2560299636948851e-93
0.03267709796607593	1.2560299636948851e-93
0.03300386894573669	1.2560299636948851e-93
0.03333390763519405	1.2560299636948851e-93
0.033667246711545994	1.2560299636948851e-93
0.034003919178661454	1.2560299636948851e-93
0.03434395837044807	1.2560299636948851e-93
0.03468739795415255	1.2560299636948851e-93
0.03503427193369407	1.2560299636948851e-93
0.03538461465303102	1.2560299636948851e-93
0.03573846079956133	1.2560299636948851e-93
0.03609584540755694	1.2560299636948851e-93
0.03645680386163251	1.2560299636948851e-93
0.03682137190024883	1.2560299636948851e-93
0.03718958561925133	1.2560299636948851e-93
0.03756148147544384	1.2560299636948851e-93
0.03793709629019828	1.2560299636948851e-93
0.03831646725310026	1.2560299636948851e-93
0.038699631925631264	1.2560299636948851e-93
0.039086628244887574	1.2560299636948851e-93
0.039477494527336454	1.2560299636948851e-93
0.03987226947260982	1.2560299636948851e-93
0.04027099216733592	1.2560299636948851e-93
0.04067370208900927	1.2560299636948851e-93
0.04108043910989937	1.2560299636948851e-93
0.04149124350099836	1.2560299636948851e-93
0.04190615593600835	1.2560299636948851e-93
0.042325217495368425	1.256061588594074e-93
0.04274846967032212	1.2561027466115703e-93
0.043175954367025336	1.2597245229185927e-93
0.04360771391069559	1.2685516747369912e-93
0.04404379104980254	1.4841126876840417e-93
0.04448422896030057	3.571499768346591e-93
0.04492907124990358	5.679760719815779e-93
0.04537836196240262	3.6431007334057044e-91
0.04583214558202665	7.940256249288365e-91
0.04629046703784691	4.329719101334783e-89
0.046753371708225376	1.1077932065399604e-88
0.04722090542530763	4.395940227187956e-87
0.047693114479560705	1.3479077273262831e-86
0.04817004562435631	3.591872671338357e-85
0.04865174608059988	1.3217776410400291e-84
0.04913826354140587	2.7017189803894077e-83
0.04962964617681994	1.1586429520304566e-82
0.05012594263858814	2.6609241842141616e-76
0.05062720206497402	1.3251558370894687e-75
0.05113347408562376	2.246018747360793e-74
0.051644808826479996	1.0041032592863005e-73
0.0521612569147448	1.0164824725243226e-72
0.052682869483892246	3.8045243541678404e-72
0.05320969817873117	4.245729647954244e-71
0.05374179516051848	1.3623530858829875e-70
0.054279213112123664	1.6353194318677973e-69
0.0548220052432449	4.461083678093753e-69
0.05537022529567735	5.128910896563294e-68
0.05592392754863413	1.1993839484319111e-67
0.056483166824120475	9.968615250663266e-64
0.057047998492361675	3.9806103640446634e-63
0.057618478477285295	2.6771595820876573e-62
0.05819466326205815	2.6953201606545113e-61
0.05877660989467873	9.496993042567887e-61
0.05936437599362551	2.5734430064738072e-59
0.05995801975356178	6.568850037423828e-59
0.06055759995109739	7.604142072771858e-58
0.06116317595060837	3.080682304059177e-57
0.061774807710114454	9.720091772757215e-57
0.062392555787215594	4.923484223225786e-56
0.06301648134508775	1.199360181558098e-55
0.06364664615853863	6.2992928645579635e-55
0.06428311262012401	2.716707250113512e-54
0.06492594374632525	6.805594439643266e-54
0.06557520318378851	3.498588194611954e-53
0.0662309552156264	1.3505280319043966e-52
0.06689326476778266	3.633306672488164e-52
0.06756219741546049	1.7255254508612274e-51
0.0682378193896151	6.394869300291368e-51
0.06892019758351124	1.68311449325699e-50
0.06960939955934635	7.582572235609393e-50
0.07030549355493981	2.83879007179493e-49
0.07100854849048922	7.001378705985858e-49
0.07171863397539412	2.980945562403714e-48
0.07243582031514804	1.1456938853168122e-47
0.07316017851829953	3.576459481420719e-47
0.07389178030348253	1.0201591932055284e-46
0.07463069810651736	3.9777768612071966e-46
0.07537700508758254	1.3795866791872814e-45
0.07613077513845835	4.047560354959847e-45
0.07689208288984294	1.1745026724771532e-44
0.07766100371874136	7.35387822373062e-42
0.07843761375592878	1.0140593960026305e-40
0.07922198989348807	4.11630359425004e-40
0.08001420979242296	1.1344388120887595e-39
0.08081435189034718	3.511422599575109e-39
0.08162249540925066	1.0948292810853186e-38
0.08243872036334317	3.235119152442404e-38
0.08326310756697661	8.017033712725929e-38
0.08409573864264637	1.3886055797509962e-37
0.08493669602907282	2.018728169091392e-38
0.08578606298936356	2.4105992804698374e-39
0.0866439236192572	1.2012469283313992e-41
0.08751036285544977	8.978164575226782e-40
0.08838546648400426	9.166637346792617e-39
0.08926932114884432	1.838685159111264e-38
0.09016201436033276	3.500946585052073e-38
0.09106363450393609	1.8528616600243265e-37
0.09197427084897544	5.80402849242937e-37
0.0928940135574652	3.0925254960754174e-37
0.09382295369303986	1.5958073831337036e-36
0.09476118322997025	2.41360656588149e-36
0.09570879506226997	1.6806076850741394e-35
0.09666588301289265	3.647753745680564e-35
0.09763254184302157	8.875920411310171e-35
0.09860886726145181	3.616643737893122e-33
0.09959495593406631	4.109116096660278e-32
0.10059090549340699	3.0539699397814143e-32
0.10159681454834106	4.147660618703703e-33
0.10261278269382446	4.755659971139651e-33
0.10363891052076271	1.3243183481437138e-32
0.10467529962597034	3.752088817030491e-32
0.10572205262223004	1.0480168354266611e-31
0.10677927314845236	2.9113847371597583e-31
0.10784706587993687	8.070142868339284e-31
0.10892553653873624	2.1297324353039187e-30
0.1100147919041236	6.55986958917651e-30
0.11111493982316484	2.1856432886194378e-27
0.1122260892213965	5.565471347246682e-26
0.11334835011361045	1.709143451955336e-25
0.11448183361474655	6.130728241228231e-25
0.11562665195089401	3.0831701756842055e-24
0.11678291847040295	5.325072782113235e-24
0.117950747655107	5.401919755226138e-23
0.11913025513165806	1.6956571968461446e-22
0.12032155768297464	1.3330468402696703e-22
0.1215247732598044	2.872472088153877e-22
0.12274002099240244	1.9769429639871665e-21
0.12396742120232647	6.079908915288763e-21
0.12520709541434974	1.1902433133195711e-20
0.12645916636849325	1.1750384253958576e-20
0.12772375803217817	3.4119802092405393e-20
0.12900099561249995	7.764163058356616e-20
0.13029100556862497	1.0219914296441144e-19
0.1315939156243112	3.369503295656675e-19
0.1329098547805543	6.652062686611536e-19
0.13423895332835986	1.4138976050703295e-18
0.13558134286164344	2.7984306990767564e-18
0.1369371562902599	3.943025662434835e-18
0.1383065278531625	7.792662458935557e-18
0.13968959313169413	2.890506806469075e-17
0.14108648906301105	2.6734912416328478e-17
0.1424973539536412	9.207689887674507e-17
0.14392232749317757	2.6055944059024667e-16
0.14536155076810936	6.765710971674308e-16
0.14681516627579044	1.298315797323142e-15
0.14828331793854838	2.327018592144195e-15
0.14976615111793384	4.4712028370755215e-15
0.15126381262911318	7.998197136226467e-15
0.15277645075540433	1.1548163390289641e-14
0.15430421526295837	1.7080219626471307e-14
0.15584725741558797	3.201770369451101e-14
0.15740572998974384	5.381741842580517e-14
0.15897978728964127	8.096691853114706e-14
0.1605695851625377	8.61369178157174e-14
0.16217528101416306	6.44107423910492e-14
0.16379703382430472	1.376636757599924e-13
0.16543500416254772	1.7877973203887875e-13
0.16708935420417323	9.35062744802003e-13
0.16876024774621495	1.7918677193575907e-13
0.17044785022367712	3.50713464872671e-12
0.17215232872591388	1.31161334919648e-12
0.173873852013173	3.362537770069999e-12
0.17561259053330475	1.3864594959928393e-11
0.1773687164386378	3.240738446624699e-11
0.1791424036030242	8.289026121364295e-11
0.1809338276390544	3.032138941908493e-11
0.18274316591544498	2.423256209574283e-10
0.18457059757459943	2.634945013010456e-10
0.1864163035503454	5.1664778217012396e-11
0.18828046658584888	2.7029776533319224e-10
0.19016327125170737	7.047224710117305e-10
0.19206490396422443	2.6562049259740907e-09
0.1939855530038667	5.855209044434051e-09
0.19592540853390536	9.941391744011255e-09
0.19788466261924442	1.5693481102505235e-08
0.19986350924543686	2.2740474179597537e-08
0.2018621443378912	3.59937981407472e-08
0.20388076578127012	5.331151463204299e-08
0.20591957343908285	8.42927741451815e-08
0.20797876917347366	1.0283695481574615e-07
0.21005855686520844	1.912137948746003e-07
0.2121591424338605	2.064181714643555e-07
0.21428073385819912	3.5647228800333027e-07
0.21642354119678112	4.88889304301382e-07
0.2185877766087489	7.273103221262726e-07
0.2207736543748364	1.1729421686342105e-06
0.22298139091858477	1.9763945767242217e-06
0.2252112048277706	2.6120258302695577e-06
0.22746331687604834	4.467269622665559e-06
0.22973795004480882	5.080094639832727e-06
0.23203532954525688	1.2355498822325979e-05
0.23435568284070946	1.7471386043200698e-05
0.23669923966911657	2.166833401218926e-05
0.2390662320658077	4.036207296051563e-05
0.2414568943864658	5.133226000618047e-05
0.2438714633303305	0.00010414870122973147
0.24631017796363378	0.00014565638544226762
0.24877327974327013	0.00016651094411334604
0.2512610125407028	0.00033075932685875726
0.25377362266610987	0.0005355280526564938
0.25631135889277096	0.0007335516558206539
0.25887447248169865	0.001048514897660563
0.26146321720651566	0.0016803388656718148
0.2640778493785808	0.0024099990890606585
0.2667186278723666	0.0034495881114875995
0.2693858141510903	0.004706531427148641
0.2720796722926012	0.006337607428095628
0.27480046901552724	0.009652590005317605
0.27754847370568253	0.01390001801848719
0.28032395844273933	0.016644624390870295
0.28312719802716674	0.027083791393713447
0.2859584700074384	0.035044260004096994
0.28881805470751276	0.05269131019153689
0.2917062352545879	0.07225082561222015
0.2946232976071338	0.09861204203789632
0.2975695305832051	0.11600909693532756
0.30054522588903715	0.17816288805422634
0.3035506781479275	0.24844534778122487
0.3065861849294068	0.3179380505409281
0.3096520467787009	0.36470110360967545
0.3127485672464879	0.6415191766858346
0.3158760529189528	0.8506802585295197
0.31903481344814233	1.118719904377182
0.3222251615826237	1.5275185285273245
0.32544741319844994	1.9582370599544245
0.3287018873304345	2.753088109960367
0.33198890620373883	3.667474783381758
0.3353087952657762	4.808455722315411
0.338661883218434	5.258105658226901
0.3420485020506183	8.022213265177822
0.34546898707112456	10.419980826311752
0.3489236769418358	13.063720757472483
0.35241291371125416	15.714246254819814
0.3559370428483667	24.23603749400915
0.3594964132768504	27.790280273449156
0.3630913774096189	40.69059465190138
0.3667222911837151	53.44139364307033
0.37038951409555215	68.15446749076273
0.37409340923650775	78.57294686058509
0.37783434332887283	113.54366539329632
0.38161268676216153	142.1810697365181
0.38542881362978315	176.18090558295577
0.389283101766081	225.8093525509497
0.39317593278374185	283.0814668936546
0.39710769211157926	375.2172278316528
0.401078769032695	469.3208200685125
0.405089556723022	581.3704839153281
0.4091404522902522	743.8548428421625
0.4132318568131547	927.8250582175838
0.4173641753812863	1151.747171151777
0.42153781713509914	1408.794757298583
0.4257531953064501	1557.3275731158046
0.43001072725951467	2106.632251808535
0.43431083453210984	2678.4230829092526
0.43865394287743087	3251.766716453751
0.44304048230620524	4044.7502781331887
0.44747088712926725	4946.5197423846375
0.45194559600055995	6080.591392376079
0.4564650519605655	7378.9658626245355
0.4610297024801712	8707.283782598866
0.4656399995049729	10790.240647715345
0.47029639950002267	13114.455492541141
0.47499936349502286	15907.659319592103
0.4797493571299731	18581.725974545676
0.48454685070127285	22354.6137135267
0.48939231920828563	27409.39028916934
0.4942862424003685	33422.61452056541
0.4992291048243721	37331.63734980004
0.5042213958726158	44269.592695814325
0.509263609831342	51832.97138837549
0.5143562459296555	60975.448441078544
0.519499808388952	69557.17310220035
0.5246948064728415	84870.9665321807
0.52994175453757	101929.80946856459
0.5352411720829456	121335.25902956161
0.5405935838037751	135985.16032074313
0.5459995196418129	153901.29057404536
0.551459514838231	179004.27251901443
0.5569741099866133	209966.54060113739
0.5625438510864794	238532.41007523748
0.5681692895973443	274265.25239543576
0.5738509824933177	307811.06210021535
0.5795894923182509	340172.6158557401
0.5853853872414334	347488.495244595
0.5912392411138477	310449.9457860803
0.5971516335249862	490158.98272151325
0.6031231498602361	585415.8603806727
0.6091543813588385	677792.8702715323
0.6152459251724268	769732.5865766874
0.6213983844241512	843585.6445464687
0.6276123682683926	963730.2858529767
0.6338884919510765	1105764.767847132
0.6402273768705874	1237465.2851901418
0.6466296506392932	1441792.8648290385
0.6530959471456862	1656529.4128832526
0.6596269066171431	1800938.4751517097
0.6662231756833145	1917686.8667787693
0.6728854074401477	2005207.7927399569
0.6796142615145492	2312204.5511283465
0.6864104041296946	2604437.772698845
0.6932745081709915	2869713.8654172877
0.7002072532527015	3340295.4454984707
0.7072093257852285	3544668.6765622282
0.7142814190430807	3738639.6116404757
0.7214242332335116	4275234.241131777
0.7286384755658467	5114831.485273624
0.7359248603215052	5400112.988262479
0.7432841089247202	5335631.7354784515
0.7507169500139675	5838528.823595994
0.7582241195141072	6485589.409903603
0.7658063607092482	5257412.328885734
0.7734644243163408	7164794.092110304
0.781199068559504	8543583.555437189
0.7890110592450992	9392265.408387551
0.7969011698375502	9544814.967945812
0.8048701815359257	11425025.303095618
0.8129188833512849	15496089.373376109
0.8210480721847978	17369653.758990508
0.8292585529066457	20822604.537450083
0.8375511384357123	23505368.59930695
0.8459266498200694	18150397.186077304
0.8543859163182701	19208953.630419873
0.8629297754814528	19510631.07309737
0.8715590732362674	19774921.039068613
0.8802746639686301	22583562.057125844
0.8890774106083162	24987186.201048303
0.8979681847143995	28061809.723488048
0.9069478665615435	28361639.24779385
0.9160173452271589	31729790.70007764
0.9251775186794305	33706113.64327894
0.9344292938662249	36815043.460145295
0.9437735868048871	41574071.90773072
0.953211322672936	45557217.59196357
0.9627434358996654	41346320.00066811
0.9723708702586621	43578469.16265048
0.9820945789612486	57267189.23915858
0.9919155247508612	45426044.4890211
1.0018346799983697	47139064.6457785
1.0118530267983534	50586707.76774401
1.021971557066337	54754628.838873446
1.0321912726370004	60366216.381977566
1.0425131853633705	67319836.46482821
1.0529383172170041	66033926.25851003
1.0634677003891742	66369704.814121395
1.074102377393066	84899248.03569596
1.0848434011669965	105629755.35863067
1.0956918351786664	132006001.80086589
1.1066487535304532	108691808.48017192
1.1177152410657578	111708736.94833401
1.1288923934764155	121980223.90604685
1.1401813174111797	96501562.93580385
1.1515831305852913	135932369.87531266
1.1630989618911443	127591798.62007806
1.1747299515100555	106875441.8733145
1.1864772510251562	133280702.37571138
1.1983420235354079	115780566.60663563
1.210325443770762	124048956.74011636
1.2224286982084696	137446960.95591283
1.2346529851905543	140515568.10674462
1.2469995150424598	131913340.1306356
