#wavelength	surface flux
0.01	7.426162559071949e-94
0.0101	7.939576266859637e-94
0.010201	8.458124111725206e-94
0.010303010000000001	8.981857435039436e-94
0.0104060401	9.510828091586793e-94
0.010510100501000002	1.0045088454699642e-93
0.01061520150601	1.0584691421443605e-93
0.010721353521070101	1.1129690417855017e-93
0.010828567056280802	1.1680139404230534e-93
0.010936852726843608	1.2236092880469801e-93
0.011046221254112046	1.2560299636948851e-93
0.011156683466653166	1.2560299636948851e-93
0.011268250301319697	1.2560299636948851e-93
0.011380932804332895	1.2560299636948851e-93
0.011494742132376225	1.2560299636948851e-93
0.011609689553699986	1.2560299636948851e-93
0.011725786449236988	1.2560299636948851e-93
0.011843044313729357	1.2560299636948851e-93
0.01196147475686665	1.2560299636948851e-93
0.012081089504435316	1.2560299636948851e-93
0.012201900399479671	1.2560299636948851e-93
0.012323919403474468	1.2560299636948851e-93
0.012447158597509212	1.2560299636948851e-93
0.012571630183484304	1.2560299636948851e-93
0.012697346485319148	1.2560299636948851e-93
0.012824319950172339	1.2560299636948851e-93
0.012952563149674063	1.2560299636948851e-93
0.013082088781170804	1.2560299636948851e-93
0.013212909668982512	1.2560299636948851e-93
0.013345038765672336	1.2560299636948851e-93
0.013478489153329061	1.2560299636948851e-93
0.013613274044862352	1.2560299636948851e-93
0.013749406785310975	1.2560299636948851e-93
0.013886900853164083	1.2560299636948851e-93
0.014025769861695726	1.2560299636948851e-93
0.014166027560312683	1.2560299636948851e-93
0.01430768783591581	1.2560299636948851e-93
0.014450764714274969	1.2560299636948851e-93
0.014595272361417718	1.2560299636948851e-93
0.014741225085031895	1.2560299636948851e-93
0.014888637335882214	1.2560299636948851e-93
0.015037523709241036	1.2560299636948851e-93
0.015187898946333447	1.2560299636948851e-93
0.015339777935796781	1.2560299636948851e-93
0.015493175715154751	1.2560299636948851e-93
0.015648107472306296	1.2560299636948851e-93
0.01580458854702936	1.2560299636948851e-93
0.015962634432499654	1.2560299636948851e-93
0.016122260776824653	1.2560299636948851e-93
0.016283483384592897	1.2560299636948851e-93
0.016446318218438827	1.2560299636948851e-93
0.016610781400623217	1.2560299636948851e-93
0.016776889214629446	1.2560299636948851e-93
0.016944658106775742	1.2560299636948851e-93
0.0171141046878435	1.2560299636948851e-93
0.017285245734721934	1.2560299636948851e-93
0.017458098192069154	1.2560299636948851e-93
0.017632679173989845	1.2560299636948851e-93
0.017809005965729745	1.2560299636948851e-93
0.01798709602538704	1.2560299636948851e-93
0.018166966985640912	1.2560299636948851e-93
0.01834863665549732	1.2560299636948851e-93
0.018532123022052295	1.2560299636948851e-93
0.01871744425227282	1.2560299636948851e-93
0.01890461869479555	1.2560299636948851e-93
0.0190936648817435	1.2560299636948851e-93
0.019284601530560937	1.2560299636948851e-93
0.01947744754586655	1.2560299636948851e-93
0.019672222021325212	1.2560299636948851e-93
0.019868944241538466	1.2560299636948851e-93
0.020067633683953853	1.2560299636948851e-93
0.02026831002079339	1.2560299636948851e-93
0.020470993121001323	1.2560299636948851e-93
0.020675703052211336	1.2560299636948851e-93
0.02088246008273345	1.2560299636948851e-93
0.021091284683560786	1.2560299636948851e-93
0.021302197530396395	1.2560299636948851e-93
0.02151521950570036	1.2560299636948851e-93
0.02173037170075736	1.2560299636948851e-93
0.02194767541776493	1.2560299636948851e-93
0.022167152171942584	1.2560299636948851e-93
0.022388823693662012	1.2560299636948851e-93
0.02261271193059863	1.2560299636948851e-93
0.022838839049904615	1.2560299636948851e-93
0.023067227440403664	1.2560299636948851e-93
0.0232978997148077	1.2560299636948851e-93
0.023530878711955777	1.2560299636948851e-93
0.023766187499075334	1.2560299636948851e-93
0.024003849374066088	1.2560299636948851e-93
0.02424388786780675	1.2560299636948851e-93
0.024486326746484814	1.2560299636948851e-93
0.024731190013949664	1.2560299636948851e-93
0.024978501914089166	1.2560299636948851e-93
0.025228286933230055	1.2560299636948851e-93
0.02548056980256236	1.2560299636948851e-93
0.025735375500587982	1.2560299636948851e-93
0.025992729255593858	1.2560299636948851e-93
0.0262526565481498	1.2560299636948851e-93
0.026515183113631293	1.2560299636948851e-93
0.02678033494476761	1.2560299636948851e-93
0.027048138294215287	1.2560299636948851e-93
0.02731861967715744	1.2560299636948851e-93
0.027591805873929013	1.2560299636948851e-93
0.027867723932668304	1.2560299636948851e-93
0.02814640117199499	1.2560299636948851e-93
0.028427865183714936	1.2560299636948851e-93
0.02871214383555209	1.2560299636948851e-93
0.028999265273907608	1.2560299636948851e-93
0.029289257926646682	1.2560299636948851e-93
0.029582150505913153	1.2560299636948851e-93
0.02987797201097228	1.2560299636948851e-93
0.030176751731082006	1.2560299636948851e-93
0.030478519248392826	1.2560299636948851e-93
0.030783304440876753	1.2560299636948851e-93
0.031091137485285525	1.2560299636948851e-93
0.03140204886013838	1.2560299636948851e-93
0.03171606934873976	1.2560299636948851e-93
0.03203323004222716	1.2560299636948851e-93
0.03235356234264943	1.2560299636948851e-93
0.03267709796607593	1.2560299636948851e-93
0.03300386894573669	1.256043771193655e-93
0.03333390763519405	1.2572216137142908e-93
0.033667246711545994	1.258411234660133e-93
0.034003919178661454	1.2772567844136919e-93
0.03434395837044807	2.8093172371884237e-93
0.03468739795415255	4.356698294490906e-93
0.03503427193369407	1.3411546244558773e-91
0.03538461465303102	1.4461686878790766e-90
0.03573846079956133	2.7713424455668615e-90
0.03609584540755694	2.1068931926868597e-88
0.03645680386163251	9.900297399664409e-88
0.03682137190024883	1.7771635648711626e-87
0.03718958561925133	1.744092783538772e-85
0.03756148147544384	5.1229217276613003e-85
0.03793709629019828	8.535538961225108e-85
0.03831646725310026	9.154040981850562e-83
0.038699631925631264	2.012708827332514e-82
0.039086628244887574	6.214035649779501e-81
0.039477494527336454	3.2955486978065988e-80
0.03987226947260982	5.99643528196352e-80
0.04027099216733592	3.4169881975879125e-78
0.04067370208900927	8.3927320504106435e-78
0.04108043910989937	1.5687179189188137e-76
0.04149124350099836	8.945681831694709e-76
0.04190615593600835	1.6396415383598592e-75
0.042325217495368425	6.842797324910115e-74
0.04274846967032212	1.551298910171802e-73
0.043175954367025336	3.6232478760113803e-72
0.04360771391069559	1.200693597377792e-71
0.04404379104980254	8.425655374757389e-71
0.04448422896030057	7.343108829387896e-70
0.04492907124990358	1.3908657554219217e-69
0.04537836196240262	3.757212499296034e-68
0.04583214558202665	8.084010581677946e-68
0.04629046703784691	1.5560001517369816e-66
0.046753371708225376	3.88139231111575e-66
0.04722090542530763	5.683934764353148e-65
0.047693114479560705	1.6739431012145103e-64
0.04817004562435631	1.7770073113682486e-63
0.04865174608059988	6.13314205795352e-63
0.04913826354140587	5.2568141447541245e-62
0.04962964617681994	2.0640348109110586e-61
0.05012594263858814	1.776890292000431e-60
0.05062720206497402	7.566054728327526e-60
0.05113347408562376	5.768795985517297e-59
0.051644808826479996	2.3320894673873953e-58
0.0521612569147448	1.5230666006478302e-57
0.052682869483892246	5.300947108214741e-57
0.05320969817873117	3.681991072381084e-56
0.05374179516051848	1.1096925658758975e-55
0.054279213112123664	8.342767283035147e-55
0.0548220052432449	2.1704426851015105e-54
0.05537022529567735	1.7340624303179232e-53
0.05592392754863413	3.9373567234757163e-53
0.056483166824120475	3.310717380993082e-52
0.057047998492361675	1.0295629064961276e-51
0.057618478477285295	5.661362882056914e-51
0.05819466326205815	2.8304219815630394e-50
0.05877660989467873	8.673478090265117e-50
0.05936437599362551	5.262224810916073e-49
0.05995801975356178	1.2056963335329726e-48
0.06055759995109739	7.961777921690178e-48
0.06116317595060837	3.264658999258478e-47
0.061774807710114454	1.0522355820844056e-46
0.062392555787215594	5.622957525362788e-46
0.06301648134508775	1.3810949093315212e-45
0.06364664615853863	7.226119924325932e-45
0.06428311262012401	3.147127704425331e-44
0.06492594374632525	7.908012553318649e-44
0.06557520318378851	4.062073352483573e-43
0.0662309552156264	1.5547125323931365e-42
0.06689326476778266	4.167089815683705e-42
0.06756219741546049	1.9379806261524697e-41
0.0682378193896151	7.02477156668542e-41
0.06892019758351124	1.8315255435171127e-40
0.06960939955934635	7.997265355091937e-40
0.07030549355493981	2.886351002448294e-39
0.07100854849048922	7.010147398485825e-39
0.07171863397539412	2.854772028970755e-38
0.07243582031514804	1.0511892971937125e-37
0.07316017851829953	3.1640533904322486e-37
0.07389178030348253	8.791600563370777e-37
0.07463069810651736	3.2480632242697486e-36
0.07537700508758254	1.0722041699084694e-35
0.07613077513845835	3.017797588976248e-35
0.07689208288984294	8.441641757831126e-35
0.07766100371874136	2.8885566181808967e-34
0.07843761375592878	9.145878453141802e-34
0.07922198989348807	2.622728408576535e-33
0.08001420979242296	6.492160050254426e-33
0.08081435189034718	2.038407684908442e-32
0.08162249540925066	6.315966535916641e-32
0.08243872036334317	1.843798365442061e-31
0.08326310756697661	5.083206253215111e-31
0.08409573864264637	1.3075091475713817e-30
0.08493669602907282	3.418462063802957e-30
0.08578606298936356	9.895751830099332e-30
0.0866439236192572	2.789983377022662e-29
0.08751036285544977	7.620980762502409e-29
0.08838546648400426	2.0181437346552645e-28
0.08926932114884432	5.189602186469934e-28
0.09016201436033276	2.5553345438518417e-26
0.09106363450393609	2.594049484039739e-25
0.09197427084897544	1.7884797086012143e-24
0.0928940135574652	6.265928459583213e-25
0.09382295369303986	7.649741087604146e-25
0.09476118322997025	5.470701004315299e-25
0.09570879506226997	2.0604644646992992e-24
0.09666588301289265	3.928319638960216e-24
0.09763254184302157	2.2871427276920033e-23
0.09860886726145181	1.1796994075874126e-21
0.09959495593406631	1.3498422115457448e-20
0.10059090549340699	9.91204893532825e-21
0.10159681454834106	8.593336934141869e-22
0.10261278269382446	1.4788686610494208e-22
0.10363891052076271	3.0228705286724784e-22
0.10467529962597034	6.767670471047046e-22
0.10572205262223004	1.5046719331314032e-21
0.10677927314845236	3.3162881903205114e-21
0.10784706587993687	7.235734856365748e-21
0.10892553653873624	1.5589180461748653e-20
0.1100147919041236	9.888330911620712e-20
0.11111493982316484	3.5504385260628725e-17
0.1122260892213965	8.780605230661327e-16
0.11334835011361045	2.0346759127106544e-15
0.11448183361474655	5.385579280728493e-16
0.11562665195089401	4.3378231538539326e-16
0.11678291847040295	3.541435087956993e-16
0.117950747655107	2.864058201055618e-15
0.11913025513165806	4.644316199553535e-15
0.12032155768297464	2.8045391654547675e-14
0.1215247732598044	5.148565690696897e-13
0.12274002099240244	2.1346811230599518e-11
0.12396742120232647	1.8879435208678531e-10
0.12520709541434974	1.7667721054205883e-10
0.12645916636849325	8.300114226742198e-11
0.12772375803217817	8.664608297403744e-11
0.12900099561249995	2.59845299881009e-10
0.13029100556862497	2.0312186863001884e-10
0.1315939156243112	3.946333389155779e-10
0.1329098547805543	4.846701343909033e-10
0.13423895332835986	8.308933195957116e-10
0.13558134286164344	5.438348632097249e-10
0.1369371562902599	4.664629060205948e-10
0.1383065278531625	3.7860224814175105e-09
0.13968959313169413	1.9315042825013172e-08
0.14108648906301105	3.909787630711876e-08
0.1424973539536412	1.0212797093577214e-07
0.14392232749317757	1.1869137132477424e-07
0.14536155076810936	6.1429790557292e-07
0.14681516627579044	7.224357919210635e-07
0.14828331793854838	1.1775196235629242e-06
0.14976615111793384	1.6743555637372745e-06
0.15126381262911318	1.7944456475432344e-06
0.15277645075540433	8.131748363539305e-07
0.15430421526295837	5.01236477621448e-07
0.15584725741558797	7.321141331707966e-07
0.15740572998974384	9.89163254521601e-07
0.15897978728964127	9.367781581532463e-07
0.1605695851625377	1.3883073702426046e-06
0.16217528101416306	2.3833114682656415e-07
0.16379703382430472	4.553971006958037e-07
0.16543500416254772	8.499082999349932e-07
0.16708935420417323	9.138743597025078e-06
0.16876024774621495	4.721799791056767e-07
0.17044785022367712	4.876857225153063e-05
0.17215232872591388	1.3956275900326714e-05
0.173873852013173	3.8105938047261003e-06
0.17561259053330475	3.8300575462066375e-05
0.1773687164386378	0.00021072322179036923
0.1791424036030242	0.0005763023465162143
0.1809338276390544	2.4390108304531686e-05
0.18274316591544498	0.0009591378505734779
0.18457059757459943	0.0002644622929341067
0.1864163035503454	2.8740744562262535e-05
0.18828046658584888	6.1566051393048e-05
0.19016327125170737	0.00017511883423181832
0.19206490396422443	0.0023252874666613507
0.1939855530038667	0.009468753089305199
0.19592540853390536	0.01738163577238907
0.19788466261924442	0.02261083285166424
0.19986350924543686	0.020313181748539362
0.2018621443378912	0.024275471999860854
0.20388076578127012	0.02779082678112972
0.20591957343908285	0.03724854205319425
0.20797876917347366	0.20844776097875356
0.21005855686520844	1.2270016730899675
0.2121591424338605	0.2457086995564442
0.21428073385819912	2.402097549619443
0.21642354119678112	0.9736653916835367
0.2185877766087489	3.011560392077579
0.2207736543748364	0.882388539052678
0.22298139091858477	47.789899128797686
0.2252112048277706	0.8588813107437124
0.22746331687604834	14.946394976243246
0.22973795004480882	48.63756006528641
0.23203532954525688	150.07892157767236
0.23435568284070946	119.62299901361288
0.23669923966911657	22.34481244154961
0.2390662320658077	134.28958696859826
0.2414568943864658	510.09506366871443
0.2438714633303305	2324.053315226517
0.24631017796363378	1261.261313440745
0.24877327974327013	305.81392072708445
0.2512610125407028	654.4135826472257
0.25377362266610987	6898.982145821469
0.25631135889277096	1651.4030867326223
0.25887447248169865	3864.5016410856615
0.26146321720651566	29167.68643487032
0.2640778493785808	29824.171997353576
0.2667186278723666	34495.426618358964
0.2693858141510903	29478.50298777481
0.2720796722926012	52567.652782962774
0.27480046901552724	55311.8767073319
0.27754847370568253	113095.53831361941
0.28032395844273933	87897.42460064216
0.28312719802716674	79950.508764014
0.2859584700074384	67814.67641192155
0.28881805470751276	470933.1106613823
0.2917062352545879	507242.33622959506
0.2946232976071338	458909.3360626646
0.2975695305832051	548915.4992156958
0.30054522588903715	528538.0742947286
0.3035506781479275	911255.5543694011
0.3065861849294068	757773.8078030936
0.3096520467787009	725010.1909570873
0.3127485672464879	2740754.1465343027
0.3158760529189528	4762007.397858996
0.31903481344814233	5594497.732649137
0.3222251615826237	5758284.959650574
0.32544741319844994	9830709.715492748
0.3287018873304345	25715304.598070767
0.33198890620373883	26465026.143122103
0.3353087952657762	19337907.261962835
0.338661883218434	17560394.660288204
0.3420485020506183	16029454.23094538
0.34546898707112456	11960145.763302745
0.3489236769418358	16762628.928051054
0.35241291371125416	18013353.96074842
0.3559370428483667	31593876.19545954
0.3594964132768504	13321126.429762712
0.3630913774096189	35279694.41999783
0.3667222911837151	65442409.55940697
0.37038951409555215	48786734.270979606
0.37409340923650775	11345854.270949677
0.37783434332887283	90632904.63630497
0.38161268676216153	49283866.090820834
0.38542881362978315	34251328.99071522
0.389283101766081	30599443.72328579
0.39317593278374185	43298584.449060306
0.39710769211157926	78631410.14943744
0.401078769032695	177099715.79890576
0.405089556723022	150923352.67308527
0.4091404522902522	208761980.11572576
0.4132318568131547	192426696.78382167
0.4173641753812863	149130957.73503274
0.42153781713509914	47711982.576184176
0.4257531953064501	73037870.76110074
0.43001072725951467	117958751.54992856
0.43431083453210984	166608952.4489003
0.43865394287743087	170907245.84614575
0.44304048230620524	168020561.4779352
0.44747088712926725	198142935.73930526
0.45194559600055995	159218526.0160822
0.4564650519605655	258010899.6147533
0.4610297024801712	184310734.25661975
0.4656399995049729	192105979.63275224
0.47029639950002267	189274558.78949478
0.47499936349502286	242393470.7940385
0.4797493571299731	142723087.83971336
0.48454685070127285	162172413.70310375
0.48939231920828563	272198432.17903066
0.4942862424003685	440424092.59409565
0.4992291048243721	219061099.6225278
0.5042213958726158	218967021.6611891
0.509263609831342	247998059.89641964
0.5143562459296555	377369252.2723805
0.519499808388952	192050007.44254696
0.5246948064728415	367999873.17171246
0.52994175453757	423219834.16397834
0.5352411720829456	517292744.2679547
0.5405935838037751	533971584.70758116
0.5459995196418129	306872595.8185655
0.551459514838231	375007801.3971789
0.5569741099866133	487913083.6906391
0.5625438510864794	270712778.71092784
0.5681692895973443	392052660.50868297
0.5738509824933177	542733740.9853376
0.5795894923182509	537504670.4163713
0.5853853872414334	469774858.9084507
0.5912392411138477	233715088.17276108
0.5971516335249862	351664380.6734755
0.6031231498602361	533121452.1304027
0.6091543813588385	727337937.7623805
0.6152459251724268	639173381.4447588
0.6213983844241512	294311449.4025366
0.6276123682683926	332060186.7339644
0.6338884919510765	619670582.4623681
0.6402273768705874	593451994.1234291
0.6466296506392932	665544985.4570372
0.6530959471456862	696267488.3766414
0.6596269066171431	747433565.4105734
0.6662231756833145	622227115.3604525
0.6728854074401477	440265933.1501942
0.6796142615145492	493273603.05381364
0.6864104041296946	593921307.3571532
0.6932745081709915	668117065.0972695
0.7002072532527015	1080838219.3983116
0.7072093257852285	628900525.2586101
0.7142814190430807	459662361.4803954
0.7214242332335116	643420971.8819013
0.7286384755658467	1326625433.327887
0.7359248603215052	1891630207.215859
0.7432841089247202	2046101709.0437782
0.7507169500139675	2137562476.4725456
0.7582241195141072	2090944403.4201531
0.7658063607092482	1481522363.9774494
0.7734644243163408	1362905832.7017815
0.781199068559504	1766928342.8594856
0.7890110592450992	1754205409.4735868
0.7969011698375502	1983356688.30873
0.8048701815359257	2397990424.5333548
0.8129188833512849	2938051022.9562397
0.8210480721847978	2818300143.284016
0.8292585529066457	2666524409.1517673
0.8375511384357123	2689700975.3621864
0.8459266498200694	1967110157.3607726
0.8543859163182701	2336104793.735432
0.8629297754814528	2342968317.605323
0.8715590732362674	2651956316.0059066
0.8802746639686301	2880961316.225913
0.8890774106083162	2547045819.167624
0.8979681847143995	2568726885.32916
0.9069478665615435	2808851063.72768
0.9160173452271589	3199307302.5588355
0.9251775186794305	3056996128.0710135
0.9344292938662249	3057879532.4683943
0.9437735868048871	3152571531.4399514
0.953211322672936	3221290089.263207
0.9627434358996654	3172705398.5281816
0.9723708702586621	3128968665.20547
0.9820945789612486	3308317853.7568855
0.9919155247508612	2848081101.6389937
1.0018346799983697	3088471587.96475
1.0118530267983534	3134723466.8897004
1.021971557066337	3184677122.106623
1.0321912726370004	3293722652.572162
1.0425131853633705	3351009717.9372396
1.0529383172170041	3329701243.685646
1.0634677003891742	3330169489.405198
1.074102377393066	3415890619.7944016
1.0848434011669965	3419468372.7081084
1.0956918351786664	3449803402.7231226
1.1066487535304532	3045959964.7606673
1.1177152410657578	3115390617.0683966
1.1288923934764155	3138282937.004281
1.1401813174111797	3043459556.3892403
1.1515831305852913	3212209238.4450984
1.1630989618911443	3227396849.303753
1.1747299515100555	3066648605.2632174
1.1864772510251562	2929977314.575987
1.1983420235354079	3042753203.7389383
1.210325443770762	3050833420.445089
1.2224286982084696	3098364770.35545
1.2346529851905543	3056912980.2553587
1.2469995150424598	2995521084.396828
1.2594695101928843	2975656194.200796
1.2720642052948132	2948887019.973794
1.2847848473477614	2946012271.1621556
1.2976326958212392	2967233067.7470284
