#wavelength	surface flux
0.01	7.426162559071949e-94
0.0101	7.939576266859637e-94
0.010201	8.458124111725206e-94
0.010303010000000001	8.981857435039436e-94
0.0104060401	9.510828091586793e-94
0.010510100501000002	1.0045088454699642e-93
0.01061520150601	1.0584691421443605e-93
0.010721353521070101	1.1129690417855017e-93
0.010828567056280802	1.1680139404230534e-93
0.010936852726843608	1.2236092880469801e-93
0.011046221254112046	1.2560299636948851e-93
0.011156683466653166	1.2560299636948851e-93
0.011268250301319697	1.2560299636948851e-93
0.011380932804332895	1.2560299636948851e-93
0.011494742132376225	1.2560299636948851e-93
0.011609689553699986	1.2560299636948851e-93
0.011725786449236988	1.2560299636948851e-93
0.011843044313729357	1.2560299636948851e-93
0.01196147475686665	1.2560299636948851e-93
0.012081089504435316	1.2560299636948851e-93
0.012201900399479671	1.2560299636948851e-93
0.012323919403474468	1.2560299636948851e-93
0.012447158597509212	1.2560299636948851e-93
0.012571630183484304	1.2560299636948851e-93
0.012697346485319148	1.2560299636948851e-93
0.012824319950172339	1.2560299636948851e-93
0.012952563149674063	1.2560299636948851e-93
0.013082088781170804	1.2560299636948851e-93
0.013212909668982512	1.2560299636948851e-93
0.013345038765672336	1.2560299636948851e-93
0.013478489153329061	1.2560299636948851e-93
0.013613274044862352	1.2560299636948851e-93
0.013749406785310975	1.2560299636948851e-93
0.013886900853164083	1.2560299636948851e-93
0.014025769861695726	1.2560299636948851e-93
0.014166027560312683	1.2560299636948851e-93
0.01430768783591581	1.2560299636948851e-93
0.014450764714274969	1.2560299636948851e-93
0.014595272361417718	1.2560299636948851e-93
0.014741225085031895	1.2560299636948851e-93
0.014888637335882214	1.2560299636948851e-93
0.015037523709241036	1.2560299636948851e-93
0.015187898946333447	1.2560299636948851e-93
0.015339777935796781	1.2560299636948851e-93
0.015493175715154751	1.2560299636948851e-93
0.015648107472306296	1.2560299636948851e-93
0.01580458854702936	1.2560299636948851e-93
0.015962634432499654	1.2560299636948851e-93
0.016122260776824653	1.2560299636948851e-93
0.016283483384592897	1.2560299636948851e-93
0.016446318218438827	1.2560299636948851e-93
0.016610781400623217	1.2560299636948851e-93
0.016776889214629446	1.2560299636948851e-93
0.016944658106775742	1.2560299636948851e-93
0.0171141046878435	1.2560299636948851e-93
0.017285245734721934	1.2560299636948851e-93
0.017458098192069154	1.2560299636948851e-93
0.017632679173989845	1.2560299636948851e-93
0.017809005965729745	1.2560299636948851e-93
0.01798709602538704	1.2560299636948851e-93
0.018166966985640912	1.2560299636948851e-93
0.01834863665549732	1.2560299636948851e-93
0.018532123022052295	1.2560299636948851e-93
0.01871744425227282	1.2560299636948851e-93
0.01890461869479555	1.2560299636948851e-93
0.0190936648817435	1.2560299636948851e-93
0.019284601530560937	1.2560299636948851e-93
0.01947744754586655	1.2560299636948851e-93
0.019672222021325212	1.2560299636948851e-93
0.019868944241538466	1.2560299636948851e-93
0.020067633683953853	1.2560299636948851e-93
0.02026831002079339	1.2560299636948851e-93
0.020470993121001323	1.2560299636948851e-93
0.020675703052211336	1.2560299636948851e-93
0.02088246008273345	1.2560299636948851e-93
0.021091284683560786	1.2560299636948851e-93
0.021302197530396395	1.2560299636948851e-93
0.02151521950570036	1.2560299636948851e-93
0.02173037170075736	1.2560299636948851e-93
0.02194767541776493	1.2560299636948851e-93
0.022167152171942584	1.2560299636948851e-93
0.022388823693662012	1.2560299636948851e-93
0.02261271193059863	1.2560299636948851e-93
0.022838839049904615	1.2560299636948851e-93
0.023067227440403664	1.2560299636948851e-93
0.0232978997148077	1.2560299636948851e-93
0.023530878711955777	1.2560299636948851e-93
0.023766187499075334	1.2560299636948851e-93
0.024003849374066088	1.2560299636948851e-93
0.02424388786780675	1.2560299636948851e-93
0.024486326746484814	1.2560299636948851e-93
0.024731190013949664	1.2560299636948851e-93
0.024978501914089166	1.2560299636948851e-93
0.025228286933230055	1.2560299636948851e-93
0.02548056980256236	1.2560299636948851e-93
0.025735375500587982	1.2560299636948851e-93
0.025992729255593858	1.2560299636948851e-93
0.0262526565481498	1.2560299636948851e-93
0.026515183113631293	1.2560299636948851e-93
0.02678033494476761	1.2560299636948851e-93
0.027048138294215287	1.2560299636948851e-93
0.02731861967715744	1.2560299636948851e-93
0.027591805873929013	1.2560299636948851e-93
0.027867723932668304	1.2560299636948851e-93
0.02814640117199499	1.2560299636948851e-93
0.028427865183714936	1.2560299636948851e-93
0.02871214383555209	1.2560299636948851e-93
0.028999265273907608	1.2560299636948851e-93
0.029289257926646682	1.2560299636948851e-93
0.029582150505913153	1.2560299636948851e-93
0.02987797201097228	1.2560299636948851e-93
0.030176751731082006	1.2560299636948851e-93
0.030478519248392826	1.2560299636948851e-93
0.030783304440876753	1.2560299636948851e-93
0.031091137485285525	1.2560299636948851e-93
0.03140204886013838	1.2560299636948851e-93
0.03171606934873976	1.2560299636948851e-93
0.03203323004222716	1.2560299636948851e-93
0.03235356234264943	1.2560299636948851e-93
0.03267709796607593	1.2560299636948851e-93
0.03300386894573669	1.2560299636948851e-93
0.03333390763519405	1.2560299636948851e-93
0.033667246711545994	1.2560299636948851e-93
0.034003919178661454	1.2560299636948851e-93
0.03434395837044807	1.2560299636948851e-93
0.03468739795415255	1.2560299636948851e-93
0.03503427193369407	1.2560299636948851e-93
0.03538461465303102	1.2560299636948851e-93
0.03573846079956133	1.2560299636948851e-93
0.03609584540755694	1.2560299636948851e-93
0.03645680386163251	1.2560299636948851e-93
0.03682137190024883	1.2560299636948851e-93
0.03718958561925133	1.2560299636948851e-93
0.03756148147544384	1.2560299636948851e-93
0.03793709629019828	1.2560299636948851e-93
0.03831646725310026	1.2560299636948851e-93
0.038699631925631264	1.2560299636948851e-93
0.039086628244887574	1.2561677662579235e-93
0.039477494527336454	1.2567895308521002e-93
0.03987226947260982	1.2574175130922185e-93
0.04027099216733592	1.454251300105081e-93
0.04067370208900927	1.746455665105914e-93
0.04108043910989937	2.184099693417198e-92
0.04149124350099836	1.2325514334541882e-91
0.04190615593600835	2.2568343122078123e-91
0.042325217495368425	2.0887029174802056e-89
0.04274846967032212	4.774645142014836e-89
0.043175954367025336	2.366129724397155e-87
0.04360771391069559	8.015846561122359e-87
0.04404379104980254	1.0452468635812099e-85
0.04448422896030057	1.0235549189213014e-84
0.04492907124990358	1.9517754538101196e-84
0.04537836196240262	1.0617656959769359e-82
0.04583214558202665	2.3099974998486677e-82
0.04629046703784691	8.553832998075669e-81
0.046753371708225376	2.174398754976065e-80
0.04722090542530763	5.946827850343605e-79
0.047693114479560705	1.8043789046991368e-78
0.04817004562435631	3.402335058178628e-77
0.04865174608059988	1.2306529624973619e-76
0.04913826354140587	1.8127496451914227e-75
0.04962964617681994	7.58903056970869e-75
0.05012594263858814	4.977732423715194e-66
0.05062720206497402	2.4789412736267874e-65
0.05113347408562376	3.213727489306586e-64
0.051644808826479996	1.4011265867356364e-63
0.0521612569147448	1.0713687934071622e-62
0.052682869483892246	3.8410616722981046e-62
0.05320969817873117	3.0730929895905575e-61
0.05374179516051848	9.468956202802063e-61
0.054279213112123664	8.243276783745345e-60
0.0548220052432449	2.18241382584112e-59
0.05537022529567735	1.932585690210553e-58
0.05592392754863413	4.4299223475792896e-58
0.056483166824120475	1.5214170999859568e-55
0.057047998492361675	6.0598249770634735e-55
0.057618478477285295	4.0718598137754475e-54
0.05819466326205815	1.5334042086128386e-53
0.05877660989467873	4.2073057124974055e-53
0.05936437599362551	5.900021948380546e-52
0.05995801975356178	1.465969398325387e-51
0.06055759995109739	9.417218004160934e-51
0.06116317595060837	3.2138385509788296e-50
0.061774807710114454	9.384204900288757e-50
0.062392555787215594	3.915562692847617e-49
0.06301648134508775	8.936742926345517e-49
0.06364664615853863	3.821975236105279e-48
0.06428311262012401	1.3761340976912993e-47
0.06492594374632525	3.260122625944627e-47
0.06557520318378851	1.386056366765087e-46
0.0662309552156264	4.628472278187874e-46
0.06689326476778266	1.1727700075373344e-45
0.06756219741546049	4.799327096789897e-45
0.0682378193896151	1.5968390661584525e-44
0.06892019758351124	4.0168265250669123e-44
0.06960939955934635	1.6309756810644038e-43
0.07030549355493981	5.63573936032667e-43
0.07100854849048922	1.3469188687173862e-42
0.07171863397539412	5.3264362186344335e-42
0.07243582031514804	1.928220219514814e-41
0.07316017851829953	5.759314586150238e-41
0.07389178030348253	1.5938324250010604e-40
0.07463069810651736	5.895726568193022e-40
0.07537700508758254	1.9487759508055244e-39
0.07613077513845835	5.501165118143484e-39
0.07689208288984294	1.5444353892434719e-38
0.07766100371874136	7.080054292874518e-38
0.07843761375592878	3.969126271545838e-37
0.07922198989348807	1.297756465865338e-36
0.08001420979242296	3.2326981788102816e-36
0.08081435189034718	1.0098814249642321e-35
0.08162249540925066	3.1242816889652635e-35
0.08243872036334317	9.142810801891047e-35
0.08326310756697661	2.256694514392246e-34
0.08409573864264637	3.904856970747847e-34
0.08493669602907282	5.679822366049494e-35
0.08578606298936356	6.894565744296709e-36
0.0866439236192572	4.289401554237945e-37
0.08751036285544977	8.858769531108635e-34
0.08838546648400426	9.340674889697392e-33
0.08926932114884432	1.7680668770408658e-32
0.09016201436033276	3.0228542469578926e-32
0.09106363450393609	1.9832639848705275e-31
0.09197427084897544	9.150209667135988e-31
0.0928940135574652	2.478288075164713e-31
0.09382295369303986	7.297816048334084e-31
0.09476118322997025	6.424050863787076e-31
0.09570879506226997	3.9823616115476426e-30
0.09666588301289265	5.127067979755012e-30
0.09763254184302157	1.8463497069951527e-29
0.09860886726145181	7.878513638279035e-28
0.09959495593406631	9.019284238326788e-27
0.10059090549340699	6.61575786282332e-27
0.10159681454834106	5.590385082139779e-28
0.10261278269382446	5.078177103691211e-29
0.10363891052076271	8.767091981026581e-29
0.10467529962597034	2.2433116872438913e-28
0.10572205262223004	5.760525406230885e-28
0.10677927314845236	1.502936865057205e-27
0.10784706587993687	4.0735101853049876e-27
0.10892553653873624	9.200987956990657e-27
0.1100147919041236	8.681418307829655e-26
0.11111493982316484	2.6671705013389534e-22
0.1122260892213965	6.692577777562022e-21
0.11334835011361045	1.5948351998261106e-20
0.11448183361474655	1.2468980742352006e-20
0.11562665195089401	4.004694883918876e-20
0.11678291847040295	1.8039657609691813e-19
0.117950747655107	7.397316806376398e-18
0.11913025513165806	4.715442328961149e-17
0.12032155768297464	6.609904742764986e-18
0.1215247732598044	1.0164819091600938e-17
0.12274002099240244	1.0876096092324545e-16
0.12396742120232647	2.922972734371727e-16
0.12520709541434974	3.07829548368798e-16
0.12645916636849325	1.3503147184791168e-16
0.12772375803217817	1.6044674339540798e-16
0.12900099561249995	5.159429160384015e-16
0.13029100556862497	5.399287433274689e-16
0.1315939156243112	1.0856694403953012e-15
0.1329098547805543	1.479325361123875e-15
0.13423895332835986	3.0476530848304603e-15
0.13558134286164344	5.103884586939931e-15
0.1369371562902599	3.947694813837038e-15
0.1383065278531625	2.638586513144787e-14
0.13968959313169413	1.7637271268685258e-13
0.14108648906301105	4.513284770264065e-13
0.1424973539536412	1.1990069794641989e-12
0.14392232749317757	1.797337812695253e-12
0.14536155076810936	1.165669441334704e-11
0.14681516627579044	2.0113085013379833e-11
0.14828331793854838	2.8345552738159237e-11
0.14976615111793384	4.591207951733811e-11
0.15126381262911318	5.3602917204111e-11
0.15277645075540433	1.9550061115797314e-11
0.15430421526295837	1.2289875659270573e-11
0.15584725741558797	2.5373588393649614e-11
0.15740572998974384	4.339545287011079e-11
0.15897978728964127	4.762830131416549e-11
0.1605695851625377	7.453959241444652e-11
0.16217528101416306	1.2380873802514783e-11
0.16379703382430472	2.6586497360563553e-11
0.16543500416254772	7.486344448919459e-11
0.16708935420417323	7.349011377088907e-10
0.16876024774621495	4.29778618909603e-11
0.17044785022367712	1.348219925503003e-08
0.17215232872591388	3.864141298885677e-09
0.173873852013173	2.8834853697463573e-09
0.17561259053330475	1.6062784954514523e-08
0.1773687164386378	8.761497261584646e-08
0.1791424036030242	5.195196832291779e-07
0.1809338276390544	1.1589290754708717e-08
0.18274316591544498	9.034411069025242e-07
0.18457059757459943	1.874209251768037e-07
0.1864163035503454	1.6027757741895004e-08
0.18828046658584888	3.252721496171804e-08
0.19016327125170737	1.0105287419587951e-07
0.19206490396422443	5.543704361439969e-06
0.1939855530038667	2.6292205750576267e-05
0.19592540853390536	8.972024855474024e-05
0.19788466261924442	0.0003219725404545222
0.19986350924543686	0.000317151381109129
0.2018621443378912	0.000297273649148883
0.20388076578127012	0.0002964709645403654
0.20591957343908285	0.0005718888688003121
0.20797876917347366	0.00014279720578874242
0.21005855686520844	0.00032268355592448693
0.2121591424338605	0.00012352760994880401
0.21428073385819912	0.0004978707313309375
0.21642354119678112	0.0003403862936468198
0.2185877766087489	0.0009752663828454836
0.2207736543748364	0.0005609019306165373
0.22298139091858477	0.004483442799769054
0.2252112048277706	0.0005870886447577451
0.22746331687604834	0.0034800634318914907
0.22973795004480882	0.009726093654520753
0.23203532954525688	0.01972774654870298
0.23435568284070946	0.08604688983768963
0.23669923966911657	0.016596927458662328
0.2390662320658077	0.06372836171949456
0.2414568943864658	0.3944051592673462
0.2438714633303305	0.6047416092112141
0.24631017796363378	0.36801217609557546
0.24877327974327013	0.0844707320425887
0.2512610125407028	0.2570243013594947
0.25377362266610987	1.3247400971709513
0.25631135889277096	3.1693794712045014
0.25887447248169865	3.289653699977265
0.26146321720651566	26.322843562034233
0.2640778493785808	89.43351333405097
0.2667186278723666	38.20865556472052
0.2693858141510903	43.22049087593924
0.2720796722926012	14.452629199672415
0.27480046901552724	20.662389863942465
0.27754847370568253	98.79939470615994
0.28032395844273933	25.438448273707984
0.28312719802716674	33.03400416486527
0.2859584700074384	11.245203549553032
0.28881805470751276	131.54940224435026
0.2917062352545879	399.933984898472
0.2946232976071338	169.55389206895273
0.2975695305832051	138.6365652251975
0.30054522588903715	177.03272922858528
0.3035506781479275	411.9533678112579
0.3065861849294068	2044.8429064774514
0.3096520467787009	1703.1141683448402
0.3127485672464879	24870.930002244037
0.3158760529189528	87722.43218687995
0.31903481344814233	25400.363987661844
0.3222251615826237	35709.265036121156
0.32544741319844994	180323.2139422701
0.3287018873304345	235271.37704369158
0.33198890620373883	232691.80498763156
0.3353087952657762	355622.18975909014
0.338661883218434	52604.55617637678
0.3420485020506183	24845.399246633344
0.34546898707112456	9685.272555013298
0.3489236769418358	19409.166708955374
0.35241291371125416	47392.50475275332
0.3559370428483667	162662.4472634964
0.3594964132768504	14917.257202975587
0.3630913774096189	245468.57315090776
0.3667222911837151	517991.34303679597
0.37038951409555215	111958.53037991532
0.37409340923650775	16375.511562574437
0.37783434332887283	526403.194322312
0.38161268676216153	277563.36819050985
0.38542881362978315	118998.1164271045
0.389283101766081	64024.182996560725
0.39317593278374185	158955.97771165342
0.39710769211157926	652982.9401371448
0.401078769032695	2771960.9503453597
0.405089556723022	2247165.1064462643
0.4091404522902522	3335734.819055538
0.4132318568131547	1899831.6596100023
0.4173641753812863	785852.366344864
0.42153781713509914	135350.74722906604
0.4257531953064501	248133.6541512207
0.43001072725951467	1087936.0876710413
0.43431083453210984	2988505.6261679195
0.43865394287743087	4239054.517898083
0.44304048230620524	6365914.036068736
0.44747088712926725	10121641.55605578
0.45194559600055995	14644172.045649774
0.4564650519605655	22787922.440793663
0.4610297024801712	11651778.211526806
0.4656399995049729	13645400.889952714
0.47029639950002267	22935054.833289746
0.47499936349502286	33618375.17266279
0.4797493571299731	9203430.122123184
0.48454685070127285	11696008.305373022
0.48939231920828563	44360539.56545426
0.4942862424003685	79840085.16909426
0.4992291048243721	11671612.555077238
0.5042213958726158	15845062.140794497
0.509263609831342	21458139.73144363
0.5143562459296555	45789637.19609014
0.519499808388952	7324595.14112372
0.5246948064728415	33661607.24619613
0.52994175453757	68700241.72814307
0.5352411720829456	95761603.50251311
0.5405935838037751	69923294.74994232
0.5459995196418129	29191287.26012005
0.551459514838231	41263092.143231764
0.5569741099866133	69316227.26718256
0.5625438510864794	32044773.566824038
0.5681692895973443	54511127.89682678
0.5738509824933177	76252947.64625587
0.5795894923182509	53236310.91861241
0.5853853872414334	19033225.408663556
0.5912392411138477	7915162.74169621
0.5971516335249862	31132198.108312022
0.6031231498602361	72296492.82948953
0.6091543813588385	119727297.9719329
0.6152459251724268	94090557.29126178
0.6213983844241512	25393021.977486454
0.6276123682683926	33490825.20880028
0.6338884919510765	71960307.64345665
0.6402273768705874	68673246.14063767
0.6466296506392932	122651119.75929612
0.6530959471456862	173165696.83210832
0.6596269066171431	170156387.8328655
0.6662231756833145	97517790.2752991
0.6728854074401477	41874535.24033142
0.6796142615145492	55022793.465221375
0.6864104041296946	72502151.86714387
0.6932745081709915	69908148.77500424
0.7002072532527015	161675000.07546937
0.7072093257852285	133252549.33858788
0.7142814190430807	48416516.58581822
0.7214242332335116	89337549.70544894
0.7286384755658467	351882444.2507448
0.7359248603215052	687420520.9812685
0.7432841089247202	574665233.1326154
0.7507169500139675	585458264.1702651
0.7582241195141072	600438782.5351932
0.7658063607092482	95442189.77782221
0.7734644243163408	230446237.96585497
0.781199068559504	449209232.44267553
0.7890110592450992	577252086.7074643
0.7969011698375502	563587488.3065546
0.8048701815359257	1022096155.2857716
0.8129188833512849	1659594561.6451972
0.8210480721847978	1172040266.0519178
0.8292585529066457	1553493518.8235614
0.8375511384357123	1436742297.8671756
0.8459266498200694	781833587.6881247
0.8543859163182701	964932422.3715385
0.8629297754814528	1113364983.3520205
0.8715590732362674	927401021.3463519
0.8802746639686301	1142981295.6653738
0.8890774106083162	994912572.8477604
0.8979681847143995	1261101238.3096523
0.9069478665615435	1136306572.2130134
0.9160173452271589	1401592988.5054743
0.9251775186794305	1377688823.7760344
0.9344292938662249	1484019789.3616173
0.9437735868048871	1703906338.3010397
0.953211322672936	1849602545.8528054
0.9627434358996654	1657665611.9909694
0.9723708702586621	1641526590.4282942
0.9820945789612486	2005081107.6104317
0.9919155247508612	1106890373.2834935
1.0018346799983697	1276202505.5861056
1.0118530267983534	1409745036.6596704
1.021971557066337	1530439523.3988895
1.0321912726370004	1709401423.2994003
1.0425131853633705	1908199582.8016338
1.0529383172170041	1904199231.35358
1.0634677003891742	1882082492.5912862
1.074102377393066	2221717629.269155
1.0848434011669965	2409133390.7311206
1.0956918351786664	2554487275.5282354
1.1066487535304532	2073451508.5701046
1.1177152410657578	2087392296.8397713
1.1288923934764155	2210349659.452768
1.1401813174111797	1623057900.5587249
1.1515831305852913	2332253774.3177333
1.1630989618911443	2202148850.1837764
1.1747299515100555	1926529454.8260338
1.1864772510251562	2062484365.3959494
1.1983420235354079	1835251141.8366024
1.210325443770762	1905835868.5442183
1.2224286982084696	2093498111.0213075
1.2346529851905543	2070224542.2923436
1.2469995150424598	1781047314.422997
1.2594695101928843	2069857547.8882062
1.2720642052948132	2055966103.083964
