#wavelength	surface flux
0.01	7.426162559071949e-94
0.0101	7.939576266859637e-94
0.010201	8.458124111725206e-94
0.010303010000000001	8.981857435039436e-94
0.0104060401	9.510828091586793e-94
0.010510100501000002	1.0045088454699642e-93
0.01061520150601	1.0584691421443605e-93
0.010721353521070101	1.1129690417855017e-93
0.010828567056280802	1.1680139404230534e-93
0.010936852726843608	1.2236092880469801e-93
0.011046221254112046	1.2560299636948851e-93
0.011156683466653166	1.2560299636948851e-93
0.011268250301319697	1.2560299636948851e-93
0.011380932804332895	1.2560299636948851e-93
0.011494742132376225	1.2560299636948851e-93
0.011609689553699986	1.2560299636948851e-93
0.011725786449236988	1.2560299636948851e-93
0.011843044313729357	1.2560299636948851e-93
0.01196147475686665	1.2560299636948851e-93
0.012081089504435316	1.2560299636948851e-93
0.012201900399479671	1.2560299636948851e-93
0.012323919403474468	1.2560299636948851e-93
0.012447158597509212	1.2560299636948851e-93
0.012571630183484304	1.2560299636948851e-93
0.012697346485319148	1.2560299636948851e-93
0.012824319950172339	1.2560299636948851e-93
0.012952563149674063	1.2560299636948851e-93
0.013082088781170804	1.2560299636948851e-93
0.013212909668982512	1.2560299636948851e-93
0.013345038765672336	1.2560299636948851e-93
0.013478489153329061	1.2560299636948851e-93
0.013613274044862352	1.2560299636948851e-93
0.013749406785310975	1.2560299636948851e-93
0.013886900853164083	1.2560299636948851e-93
0.014025769861695726	1.2560299636948851e-93
0.014166027560312683	1.2560299636948851e-93
0.01430768783591581	1.2560299636948851e-93
0.014450764714274969	1.2560299636948851e-93
0.014595272361417718	1.2560299636948851e-93
0.014741225085031895	1.2560299636948851e-93
0.014888637335882214	1.2560299636948851e-93
0.015037523709241036	1.2560299636948851e-93
0.015187898946333447	1.2560299636948851e-93
0.015339777935796781	1.2560299636948851e-93
0.015493175715154751	1.2560299636948851e-93
0.015648107472306296	1.2560299636948851e-93
0.01580458854702936	1.2560299636948851e-93
0.015962634432499654	1.2560299636948851e-93
0.016122260776824653	1.2560299636948851e-93
0.016283483384592897	1.2560299636948851e-93
0.016446318218438827	1.2560299636948851e-93
0.016610781400623217	1.2560299636948851e-93
0.016776889214629446	1.2560299636948851e-93
0.016944658106775742	1.2560299636948851e-93
0.0171141046878435	1.2560299636948851e-93
0.017285245734721934	1.2560299636948851e-93
0.017458098192069154	1.2560299636948851e-93
0.017632679173989845	1.2560299636948851e-93
0.017809005965729745	1.2560299636948851e-93
0.01798709602538704	1.2560299636948851e-93
0.018166966985640912	1.2560299636948851e-93
0.01834863665549732	1.2560299636948851e-93
0.018532123022052295	1.2560299636948851e-93
0.01871744425227282	1.2560299636948851e-93
0.01890461869479555	1.2560299636948851e-93
0.0190936648817435	1.2560299636948851e-93
0.019284601530560937	1.2560299636948851e-93
0.01947744754586655	1.2560299636948851e-93
0.019672222021325212	1.2560299636948851e-93
0.019868944241538466	1.2560299636948851e-93
0.020067633683953853	1.2560299636948851e-93
0.02026831002079339	1.2560299636948851e-93
0.020470993121001323	1.2560299636948851e-93
0.020675703052211336	1.2560299636948851e-93
0.02088246008273345	1.2560299636948851e-93
0.021091284683560786	1.2560299636948851e-93
0.021302197530396395	1.2560299636948851e-93
0.02151521950570036	1.2560299636948851e-93
0.02173037170075736	1.2560299636948851e-93
0.02194767541776493	1.2560299636948851e-93
0.022167152171942584	1.2560299636948851e-93
0.022388823693662012	1.2560299636948851e-93
0.02261271193059863	1.2560299636948851e-93
0.022838839049904615	1.2560299636948851e-93
0.023067227440403664	1.2560299636948851e-93
0.0232978997148077	1.2560299636948851e-93
0.023530878711955777	1.2560299636948851e-93
0.023766187499075334	1.2560299636948851e-93
0.024003849374066088	1.2560299636948851e-93
0.02424388786780675	1.2560299636948851e-93
0.024486326746484814	1.2560299636948851e-93
0.024731190013949664	1.2560299636948851e-93
0.024978501914089166	1.2560299636948851e-93
0.025228286933230055	1.2560299636948851e-93
0.02548056980256236	1.2560299636948851e-93
0.025735375500587982	1.2560299636948851e-93
0.025992729255593858	1.2560299636948851e-93
0.0262526565481498	1.2560299636948851e-93
0.026515183113631293	1.2560299636948851e-93
0.02678033494476761	1.2560299636948851e-93
0.027048138294215287	1.2560299636948851e-93
0.02731861967715744	1.2560299636948851e-93
0.027591805873929013	1.2560299636948851e-93
0.027867723932668304	1.2560299636948851e-93
0.02814640117199499	1.2560299636948851e-93
0.028427865183714936	1.2560299636948851e-93
0.02871214383555209	1.2560299636948851e-93
0.028999265273907608	1.2560299636948851e-93
0.029289257926646682	1.2560299636948851e-93
0.029582150505913153	1.2560299636948851e-93
0.02987797201097228	1.2560299636948851e-93
0.030176751731082006	1.2560299636948851e-93
0.030478519248392826	1.2560299636948851e-93
0.030783304440876753	1.2560299636948851e-93
0.031091137485285525	1.2560299636948851e-93
0.03140204886013838	1.2560299636948851e-93
0.03171606934873976	1.2560299636948851e-93
0.03203323004222716	1.2560299636948851e-93
0.03235356234264943	1.2560299636948851e-93
0.03267709796607593	1.2560299636948851e-93
0.03300386894573669	1.2560299636948851e-93
0.03333390763519405	1.2560299636948851e-93
0.033667246711545994	1.2560299636948851e-93
0.034003919178661454	1.2560299636948851e-93
0.03434395837044807	1.2560299636948851e-93
0.03468739795415255	1.2560299636948851e-93
0.03503427193369407	1.2560356198290672e-93
0.03538461465303102	1.256093439310395e-93
0.03573846079956133	1.256151836986536e-93
0.03609584540755694	1.2678566371288653e-93
0.03645680386163251	1.311774925938413e-93
0.03682137190024883	1.3561323976360558e-93
0.03718958561925133	1.6100352625587984e-92
0.03756148147544384	4.498034718499026e-92
0.03793709629019828	7.414914168998703e-92
0.03831646725310026	1.1639659157182108e-89
0.038699631925631264	2.5636757147480683e-89
0.039086628244887574	1.1430172874011452e-87
0.039477494527336454	6.135125658944592e-87
0.03987226947260982	1.1177155114203445e-86
0.04027099216733592	9.079800620137696e-85
0.04067370208900927	2.2382563797123386e-84
0.04108043910989937	5.776845453040776e-83
0.04149124350099836	3.358577838264804e-82
0.04190615593600835	6.167280064155223e-82
0.042325217495368425	3.5562411023014005e-80
0.04274846967032212	8.09595644765429e-80
0.043175954367025336	2.558645059972057e-78
0.04360771391069559	8.5722274376743935e-78
0.04404379104980254	7.65709473337046e-77
0.04448422896030057	7.055294381517035e-76
0.04492907124990358	1.340777513877886e-75
0.04537836196240262	4.806896215481624e-74
0.04583214558202665	1.0399033867395387e-73
0.04629046703784691	2.605484567875508e-72
0.046753371708225376	6.559041736907483e-72
0.04722090542530763	1.2325652191907019e-70
0.047693114479560705	3.6820726922291985e-70
0.04817004562435631	4.916368548955455e-69
0.04865174608059988	1.7349317529653904e-68
0.04913826354140587	1.8436650680975083e-67
0.04962964617681994	7.459931885765672e-67
0.05012594263858814	6.808220411086438e-61
0.05062720206497402	3.390530869708724e-60
0.05113347408562376	3.8043529405830457e-59
0.051644808826479996	1.6307756577357453e-58
0.0521612569147448	9.473956613777122e-58
0.052682869483892246	3.203463443181043e-57
0.05320969817873117	1.8803463384975855e-56
0.05374179516051848	5.490708662628839e-56
0.054279213112123664	3.636484166009142e-55
0.0548220052432449	9.297853655365302e-55
0.05537022529567735	5.990697120000108e-54
0.05592392754863413	1.3282050245658536e-53
0.056483166824120475	7.408572406745934e-52
0.057047998492361675	2.945187813734103e-51
0.057618478477285295	1.9907166910154293e-50
0.05819466326205815	6.612565952024726e-50
0.05877660989467873	1.7038396431628977e-49
0.05936437599362551	1.7256229157512798e-48
0.05995801975356178	4.194225420513162e-48
0.06055759995109739	2.3434843937984467e-47
0.06116317595060837	7.925884781573001e-47
0.061774807710114454	2.318032219604025e-46
0.062392555787215594	9.678835435241602e-46
0.06301648134508775	2.205461923563102e-45
0.06364664615853863	9.296926465301892e-45
0.06428311262012401	3.2770114821966766e-44
0.06492594374632525	7.703918823726157e-44
0.06557520318378851	3.1348721260824858e-43
0.0662309552156264	9.952051410717428e-43
0.06689326476778266	2.4602072197307468e-42
0.06756219741546049	9.211904426173614e-42
0.0682378193896151	2.8037164780517073e-41
0.06892019758351124	6.749404392792698e-41
0.06960939955934635	2.4007188332499323e-40
0.07030549355493981	7.303970780417179e-40
0.07100854849048922	1.6476863078415137e-39
0.07171863397539412	5.579710748005111e-39
0.07243582031514804	1.7292259080582795e-38
0.07316017851829953	4.5574646219705324e-38
0.07389178030348253	1.1471220269438254e-37
0.07463069810651736	3.5956279903758125e-37
0.07537700508758254	1.0249874597544394e-36
0.07613077513845835	2.5761676501676394e-36
0.07689208288984294	6.526633914517858e-36
0.07766100371874136	2.3709086191559503e-35
0.07843761375592878	1.0887372342522318e-34
0.07922198989348807	3.2201444069722327e-34
0.08001420979242296	7.476186034316953e-34
0.08081435189034718	2.0872929937018214e-33
0.08162249540925066	5.7435448757230425e-33
0.08243872036334317	1.5056563269490504e-32
0.08326310756697661	3.4185104056397693e-32
0.08409573864264637	5.638692874545046e-32
0.08493669602907282	1.0081146202143098e-32
0.08578606298936356	7.246248423062336e-33
0.0866439236192572	1.9179027471918933e-32
0.08751036285544977	1.9265292766266898e-31
0.08838546648400426	1.5980188628995795e-30
0.08926932114884432	3.25434352907199e-30
0.09016201436033276	1.300968659343008e-29
0.09106363450393609	1.031770842393606e-28
0.09197427084897544	6.054143279959932e-28
0.0928940135574652	2.373841241139108e-28
0.09382295369303986	5.102033410948961e-28
0.09476118322997025	5.635426919810246e-28
0.09570879506226997	2.719556688047747e-27
0.09666588301289265	4.883853920261389e-27
0.09763254184302157	1.9412327617787357e-26
0.09860886726145181	7.798042955056812e-25
0.09959495593406631	8.861320022423072e-24
0.10059090549340699	6.530012431941795e-24
0.10159681454834106	6.589228687522525e-25
0.10261278269382446	3.0380189445985916e-25
0.10363891052076271	6.782355896801096e-25
0.10467529962597034	1.6125994867065514e-24
0.10572205262223004	3.80302916069583e-24
0.10677927314845236	8.899755915443657e-24
0.10784706587993687	2.0607364875134585e-23
0.10892553653873624	4.668632835479763e-23
0.1100147919041236	1.8116877065605307e-22
0.11111493982316484	4.0099975862497765e-20
0.1122260892213965	9.920504712355339e-19
0.11334835011361045	2.4311756195559507e-18
0.11448183361474655	1.8701451024635007e-18
0.11562665195089401	3.6664424245773825e-18
0.11678291847040295	8.477499845597757e-18
0.117950747655107	7.291816509074958e-16
0.11913025513165806	5.431984495563067e-15
0.12032155768297464	5.962063315203301e-16
0.1215247732598044	6.075587115001379e-16
0.12274002099240244	8.969810785381866e-15
0.12396742120232647	4.0649060966302305e-14
0.12520709541434974	3.830456225139993e-14
0.12645916636849325	1.7209885402817507e-14
0.12772375803217817	2.1471057621718875e-14
0.12900099561249995	5.897540456101745e-14
0.13029100556862497	5.828204218669468e-14
0.1315939156243112	1.3012328025813576e-13
0.1329098547805543	1.8907389197066054e-13
0.13423895332835986	3.609458182728119e-13
0.13558134286164344	5.186030182149802e-13
0.1369371562902599	4.873635665109326e-13
0.1383065278531625	2.1348397346601784e-12
0.13968959313169413	1.2370703112473341e-11
0.14108648906301105	3.764268475134743e-11
0.1424973539536412	1.0005056954118255e-10
0.14392232749317757	1.281476438388655e-10
0.14536155076810936	8.899123672518948e-10
0.14681516627579044	1.378853764394053e-09
0.14828331793854838	1.8982484689525087e-09
0.14976615111793384	2.8716393580824335e-09
0.15126381262911318	3.151133571162158e-09
0.15277645075540433	1.120091138506289e-09
0.15430421526295837	8.216292085989735e-10
0.15584725741558797	1.4974326865961527e-09
0.15740572998974384	2.4314769023585825e-09
0.15897978728964127	2.7397891888331493e-09
0.1605695851625377	3.563128692243871e-09
0.16217528101416306	1.0262256639206498e-09
0.16379703382430472	2.1505117738681026e-09
0.16543500416254772	3.029940782830798e-09
0.16708935420417323	2.6799647165840152e-08
0.16876024774621495	2.0931830411995532e-09
0.17044785022367712	3.108450767481902e-07
0.17215232872591388	9.000140761812549e-08
0.173873852013173	5.3249982423273095e-08
0.17561259053330475	3.1936282199419877e-07
0.1773687164386378	1.8090519962916204e-06
0.1791424036030242	1.010278370044352e-05
0.1809338276390544	3.3459753796142856e-07
0.18274316591544498	1.0419817224031119e-05
0.18457059757459943	3.2463890113613654e-06
0.1864163035503454	4.006342913411381e-07
0.18828046658584888	1.143485191380228e-06
0.19016327125170737	3.1229022655258692e-06
0.19206490396422443	8.098791908059787e-05
0.1939855530038667	0.0003481352862722723
0.19592540853390536	0.0010110330494891924
0.19788466261924442	0.0029686476739123457
0.19986350924543686	0.0030997500957029235
0.2018621443378912	0.0026324007299968074
0.20388076578127012	0.003236649463649226
0.20591957343908285	0.00514976858569337
0.20797876917347366	0.0017366921048700486
0.21005855686520844	0.003535438582890806
0.2121591424338605	0.0016933749928829405
0.21428073385819912	0.004840259953203614
0.21642354119678112	0.0035525493316793527
0.2185877766087489	0.010092169520145609
0.2207736543748364	0.006908524565763659
0.22298139091858477	0.04479290915846326
0.2252112048277706	0.008489290479074764
0.22746331687604834	0.022458086635128684
0.22973795004480882	0.08350023062468158
0.23203532954525688	0.16370476013313087
0.23435568284070946	1.1156048139195274
0.23669923966911657	0.14325058765243281
0.2390662320658077	0.6022224853285745
0.2414568943864658	5.037110838515315
0.2438714633303305	6.6133979036490524
0.24631017796363378	3.384816081997696
0.24877327974327013	0.5997894616742624
0.2512610125407028	2.048125944211606
0.25377362266610987	10.933503069334037
0.25631135889277096	35.47316752512623
0.25887447248169865	28.33657838835103
0.26146321720651566	232.16596006996926
0.2640778493785808	705.0063580957903
0.2667186278723666	326.98276056017863
0.2693858141510903	376.2625582426525
0.2720796722926012	116.66158628809812
0.27480046901552724	153.4081850763013
0.27754847370568253	795.7716300206117
0.28032395844273933	191.2663406494627
0.28312719802716674	207.88575758063527
0.2859584700074384	55.09392288187229
0.28881805470751276	938.5594154952557
0.2917062352545879	2919.583562146975
0.2946232976071338	1155.3128940670986
0.2975695305832051	900.3446846839593
0.30054522588903715	1038.530511463184
0.3035506781479275	2621.0955238636707
0.3065861849294068	10396.235564212117
0.3096520467787009	6673.395314303755
0.3127485672464879	101949.60385077233
0.3158760529189528	308717.9595176376
0.31903481344814233	98364.86932067864
0.3222251615826237	138457.19088145444
0.32544741319844994	557810.6458960804
0.3287018873304345	720683.8501813479
0.33198890620373883	710016.92400438
0.3353087952657762	987639.7109726783
0.338661883218434	200922.5363069184
0.3420485020506183	112112.52111959623
0.34546898707112456	46387.23755925885
0.3489236769418358	88363.36241168909
0.35241291371125416	176125.70880601718
0.3559370428483667	536592.791161811
0.3594964132768504	68308.70762561828
0.3630913774096189	717438.3326075607
0.3667222911837151	1507522.5356133059
0.37038951409555215	416902.585224387
0.37409340923650775	63984.79509331138
0.37783434332887283	1553876.0851318564
0.38161268676216153	824399.7732221932
0.38542881362978315	415387.47302517813
0.389283101766081	247605.09850345508
0.39317593278374185	495002.6896485657
0.39710769211157926	1625510.1839884869
0.401078769032695	6649537.67787335
0.405089556723022	5597589.8831035225
0.4091404522902522	8219766.639627904
0.4132318568131547	5190544.049772474
0.4173641753812863	2460618.5791384815
0.42153781713509914	362062.10458670696
0.4257531953064501	790853.9174515178
0.43001072725951467	3118410.634752694
0.43431083453210984	7800752.227604575
0.43865394287743087	10374642.449126825
0.44304048230620524	15781147.556235354
0.44747088712926725	27800907.569911472
0.45194559600055995	39499027.898360856
0.4564650519605655	57140434.38376408
0.4610297024801712	34186272.58702077
0.4656399995049729	40515458.84282586
0.47029639950002267	69015193.32914297
0.47499936349502286	85282495.37753713
0.4797493571299731	35838362.0252949
0.48454685070127285	44067023.712539
0.48939231920828563	127086725.59858857
0.4942862424003685	166199694.759264
0.4992291048243721	35688383.42408984
0.5042213958726158	45487922.71432846
0.509263609831342	50701612.39032969
0.5143562459296555	90833534.82200569
0.519499808388952	21577330.481846977
0.5246948064728415	94057553.40827848
0.52994175453757	168433463.25886282
0.5352411720829456	214640239.82050127
0.5405935838037751	145333606.80825824
0.5459995196418129	76486509.29940073
0.551459514838231	114990337.34286986
0.5569741099866133	179851816.82962105
0.5625438510864794	100019696.15614496
0.5681692895973443	146561845.74250534
0.5738509824933177	179450880.00470454
0.5795894923182509	122009395.17563896
0.5853853872414334	46439787.62769917
0.5912392411138477	19789740.472851355
0.5971516335249862	81197854.17479722
0.6031231498602361	173181605.16678163
0.6091543813588385	256856779.3342061
0.6152459251724268	196594845.14989188
0.6213983844241512	72436133.09169687
0.6276123682683926	88089266.940713
0.6338884919510765	168048814.33962926
0.6402273768705874	158172455.75241947
0.6466296506392932	280483541.8208804
0.6530959471456862	439253940.109027
0.6596269066171431	445797504.62786305
0.6662231756833145	261381330.06266025
0.6728854074401477	109882950.6047945
0.6796142615145492	137070681.83548528
0.6864104041296946	161616598.45857644
0.6932745081709915	142388200.32725796
0.7002072532527015	298529029.6876246
0.7072093257852285	284803369.90391415
0.7142814190430807	118187580.86993115
0.7214242332335116	233154272.22229856
0.7286384755658467	774588268.0846273
0.7359248603215052	1435727362.9372964
0.7432841089247202	1406790478.5967233
0.7507169500139675	1404006948.8946095
0.7582241195141072	1217100418.9095142
0.7658063607092482	194974165.13938895
0.7734644243163408	478298031.9177305
0.781199068559504	916323912.8968234
0.7890110592450992	1277725009.976939
0.7969011698375502	1356118230.3028374
0.8048701815359257	1969279756.8792222
0.8129188833512849	2516026137.445245
0.8210480721847978	1645568366.9334276
0.8292585529066457	2463217235.0846443
0.8375511384357123	2208129609.720197
0.8459266498200694	1550982809.8351004
0.8543859163182701	1834345378.5397964
0.8629297754814528	2093984528.9493766
0.8715590732362674	1659945995.5305462
0.8802746639686301	1816820056.363487
0.8890774106083162	1695884440.8399482
0.8979681847143995	1963683620.2905233
0.9069478665615435	1654531101.117201
0.9160173452271589	1965463849.3562682
0.9251775186794305	2024371802.0789392
0.9344292938662249	2182055295.9553766
0.9437735868048871	2414956824.569903
0.953211322672936	2595477829.7710176
0.9627434358996654	2438177541.6947093
0.9723708702586621	2409436168.7751403
0.9820945789612486	2801782034.187523
0.9919155247508612	1586653102.1457534
1.0018346799983697	1806231809.0278134
1.0118530267983534	1971753266.0142703
1.021971557066337	2113597926.4335678
1.0321912726370004	2277280000.531343
1.0425131853633705	2517550786.3469763
1.0529383172170041	2616660140.7548175
1.0634677003891742	2661998869.61794
1.074102377393066	2918688953.749333
1.0848434011669965	3077378117.4031167
1.0956918351786664	3283143585.747966
1.1066487535304532	2888509224.701314
1.1177152410657578	2911968212.4868073
1.1288923934764155	2968583071.064622
1.1401813174111797	2019292702.169807
1.1515831305852913	3035784714.8820295
1.1630989618911443	2830324685.249931
1.1747299515100555	2448978924.0185256
1.1864772510251562	2710130258.7836924
1.1983420235354079	2373495923.995719
1.210325443770762	2457984912.372815
1.2224286982084696	2653918652.723297
1.2346529851905543	2621132342.0495443
1.2469995150424598	2249379405.767231
1.2594695101928843	2604747373.908774
1.2720642052948132	2573683229.904721
