#wavelength	surface flux
0.01	7.426162559071949e-94
0.0101	7.939576266859637e-94
0.010201	8.458124111725206e-94
0.010303010000000001	8.981857435039436e-94
0.0104060401	9.510828091586793e-94
0.010510100501000002	1.0045088454699642e-93
0.01061520150601	1.0584691421443605e-93
0.010721353521070101	1.1129690417855017e-93
0.010828567056280802	1.1680139404230534e-93
0.010936852726843608	1.2236092880469801e-93
0.011046221254112046	1.2560299636948851e-93
0.011156683466653166	1.2560299636948851e-93
0.011268250301319697	1.2560299636948851e-93
0.011380932804332895	1.2560299636948851e-93
0.011494742132376225	1.2560299636948851e-93
0.011609689553699986	1.2560299636948851e-93
0.011725786449236988	1.2560299636948851e-93
0.011843044313729357	1.2560299636948851e-93
0.01196147475686665	1.2560299636948851e-93
0.012081089504435316	1.2560299636948851e-93
0.012201900399479671	1.2560299636948851e-93
0.012323919403474468	1.2560299636948851e-93
0.012447158597509212	1.2560299636948851e-93
0.012571630183484304	1.2560299636948851e-93
0.012697346485319148	1.2560299636948851e-93
0.012824319950172339	1.2560299636948851e-93
0.012952563149674063	1.2560299636948851e-93
0.013082088781170804	1.2560299636948851e-93
0.013212909668982512	1.2560299636948851e-93
0.013345038765672336	1.2560299636948851e-93
0.013478489153329061	1.2560299636948851e-93
0.013613274044862352	1.2560299636948851e-93
0.013749406785310975	1.2560299636948851e-93
0.013886900853164083	1.2560299636948851e-93
0.014025769861695726	1.2560299636948851e-93
0.014166027560312683	1.2560299636948851e-93
0.01430768783591581	1.2560299636948851e-93
0.014450764714274969	1.2560299636948851e-93
0.014595272361417718	1.2560299636948851e-93
0.014741225085031895	1.2560299636948851e-93
0.014888637335882214	1.2560299636948851e-93
0.015037523709241036	1.2560299636948851e-93
0.015187898946333447	1.2560299636948851e-93
0.015339777935796781	1.2560299636948851e-93
0.015493175715154751	1.2560299636948851e-93
0.015648107472306296	1.2560299636948851e-93
0.01580458854702936	1.2560299636948851e-93
0.015962634432499654	1.2560299636948851e-93
0.016122260776824653	1.2560299636948851e-93
0.016283483384592897	1.2560299636948851e-93
0.016446318218438827	1.2560299636948851e-93
0.016610781400623217	1.2560299636948851e-93
0.016776889214629446	1.2560299636948851e-93
0.016944658106775742	1.2560299636948851e-93
0.0171141046878435	1.2560299636948851e-93
0.017285245734721934	1.2560299636948851e-93
0.017458098192069154	1.2560299636948851e-93
0.017632679173989845	1.2560299636948851e-93
0.017809005965729745	1.2560299636948851e-93
0.01798709602538704	1.2560299636948851e-93
0.018166966985640912	1.2560299636948851e-93
0.01834863665549732	1.2560299636948851e-93
0.018532123022052295	1.2560299636948851e-93
0.01871744425227282	1.2560299636948851e-93
0.01890461869479555	1.2560299636948851e-93
0.0190936648817435	1.2560299636948851e-93
0.019284601530560937	1.2560299636948851e-93
0.01947744754586655	1.2560299636948851e-93
0.019672222021325212	1.2560299636948851e-93
0.019868944241538466	1.2560299636948851e-93
0.020067633683953853	1.2560299636948851e-93
0.02026831002079339	1.2560299636948851e-93
0.020470993121001323	1.2560299636948851e-93
0.020675703052211336	1.2560299636948851e-93
0.02088246008273345	1.2560299636948851e-93
0.021091284683560786	1.2560299636948851e-93
0.021302197530396395	1.2560299636948851e-93
0.02151521950570036	1.2560299636948851e-93
0.02173037170075736	1.2560299636948851e-93
0.02194767541776493	1.2560299636948851e-93
0.022167152171942584	1.2560299636948851e-93
0.022388823693662012	1.2560299636948851e-93
0.02261271193059863	1.2560299636948851e-93
0.022838839049904615	1.2560299636948851e-93
0.023067227440403664	1.2560299636948851e-93
0.0232978997148077	1.2560299636948851e-93
0.023530878711955777	1.2560299636948851e-93
0.023766187499075334	1.2560299636948851e-93
0.024003849374066088	1.2560299636948851e-93
0.02424388786780675	1.2560299636948851e-93
0.024486326746484814	1.2560299636948851e-93
0.024731190013949664	1.2560299636948851e-93
0.024978501914089166	1.2560299636948851e-93
0.025228286933230055	1.2560299636948851e-93
0.02548056980256236	1.2560299636948851e-93
0.025735375500587982	1.2560299636948851e-93
0.025992729255593858	1.2560299636948851e-93
0.0262526565481498	1.2560299636948851e-93
0.026515183113631293	1.2560299636948851e-93
0.02678033494476761	1.2560299636948851e-93
0.027048138294215287	1.2560299636948851e-93
0.02731861967715744	1.2560299636948851e-93
0.027591805873929013	1.2560299636948851e-93
0.027867723932668304	1.2560299636948851e-93
0.02814640117199499	1.2560299636948851e-93
0.028427865183714936	1.2560299636948851e-93
0.02871214383555209	1.2560299636948851e-93
0.028999265273907608	1.2560299636948851e-93
0.029289257926646682	1.2560299636948851e-93
0.029582150505913153	1.2560299636948851e-93
0.02987797201097228	1.2560299636948851e-93
0.030176751731082006	1.2560299636948851e-93
0.030478519248392826	1.2560299636948851e-93
0.030783304440876753	1.2560299636948851e-93
0.031091137485285525	1.2560299636948851e-93
0.03140204886013838	1.2560299636948851e-93
0.03171606934873976	1.2560299636948851e-93
0.03203323004222716	1.2560299636948851e-93
0.03235356234264943	1.2560299636948851e-93
0.03267709796607593	1.2560299636948851e-93
0.03300386894573669	1.2560299636948851e-93
0.03333390763519405	1.2560299636948851e-93
0.033667246711545994	1.2560299636948851e-93
0.034003919178661454	1.2560299636948851e-93
0.03434395837044807	1.2560299636948851e-93
0.03468739795415255	1.2560299636948851e-93
0.03503427193369407	1.2560299636948851e-93
0.03538461465303102	1.2560299636948851e-93
0.03573846079956133	1.2560299636948851e-93
0.03609584540755694	1.2560299636948851e-93
0.03645680386163251	1.2560299636948851e-93
0.03682137190024883	1.2560299636948851e-93
0.03718958561925133	1.2560299636948851e-93
0.03756148147544384	1.2560299636948851e-93
0.03793709629019828	1.2560299636948851e-93
0.03831646725310026	1.2560299636948851e-93
0.038699631925631264	1.2560299636948851e-93
0.039086628244887574	1.2560299636948851e-93
0.039477494527336454	1.2560299636948851e-93
0.03987226947260982	1.2560299636948851e-93
0.04027099216733592	1.2560299636948851e-93
0.04067370208900927	1.2560299636948851e-93
0.04108043910989937	1.2560299636948851e-93
0.04149124350099836	1.2560299636948851e-93
0.04190615593600835	1.2560299636948851e-93
0.042325217495368425	1.2560299636948851e-93
0.04274846967032212	1.2560299636948851e-93
0.043175954367025336	1.2560299636948851e-93
0.04360771391069559	1.2560299636948851e-93
0.04404379104980254	1.2560299636948851e-93
0.04448422896030057	1.2560299636948851e-93
0.04492907124990358	1.2560299636948851e-93
0.04537836196240262	1.2560299636948851e-93
0.04583214558202665	1.2560299636948851e-93
0.04629046703784691	1.2560299636948851e-93
0.046753371708225376	1.2560299636948851e-93
0.04722090542530763	1.2560299636948851e-93
0.047693114479560705	1.2560299636948851e-93
0.04817004562435631	1.2560299636948851e-93
0.04865174608059988	1.2560299636948851e-93
0.04913826354140587	1.2560299636948851e-93
0.04962964617681994	1.2560299636948851e-93
0.05012594263858814	1.2560299636948851e-93
0.05062720206497402	1.2560299636948851e-93
0.05113347408562376	1.2560299636948851e-93
0.051644808826479996	1.2560299636948851e-93
0.0521612569147448	1.2560299636948851e-93
0.052682869483892246	1.2560299636948851e-93
0.05320969817873117	1.2560299636948851e-93
0.05374179516051848	1.2560299636948851e-93
0.054279213112123664	1.2560299636948851e-93
0.0548220052432449	1.2560299636948851e-93
0.05537022529567735	1.2560299636948851e-93
0.05592392754863413	1.2560299636948851e-93
0.056483166824120475	3.280129602771477e-92
0.057047998492361675	1.2637011541291112e-91
0.057618478477285295	8.374188030233461e-91
0.05819466326205815	1.8610422023203295e-88
0.05877660989467873	7.385384955924125e-88
0.05936437599362551	4.828393425472159e-86
0.05995801975356178	1.2539971339185048e-85
0.06055759995109739	2.185986298798263e-84
0.06116317595060837	1.184116906529381e-83
0.061774807710114454	4.191989166341094e-83
0.062392555787215594	3.1042737745785875e-82
0.06301648134508775	8.509117061466329e-82
0.06364664615853863	6.285267063762979e-81
0.06428311262012401	3.848209098710006e-80
0.06492594374632525	1.0466873148793805e-79
0.06557520318378851	7.999828531549296e-79
0.0662309552156264	4.334943193037063e-78
0.06689326476778266	1.3015722007573259e-77
0.06756219741546049	9.191340675194933e-77
0.0682378193896151	4.796018975065943e-76
0.06892019758351124	1.4188356914423635e-75
0.06960939955934635	9.543190654393141e-75
0.07030549355493981	5.095646765068076e-74
0.07100854849048922	1.4239900702286732e-73
0.07171863397539412	8.876895066711277e-73
0.07243582031514804	4.973922664710502e-72
0.07316017851829953	2.095910546244368e-71
0.07389178030348253	7.155579155724114e-71
0.07463069810651736	4.1203007906428533e-70
0.07537700508758254	2.042928309115854e-69
0.07613077513845835	7.954006744510014e-69
0.07689208288984294	2.8551920358302282e-68
0.07766100371874136	3.806466806266327e-52
0.07843761375592878	2.1605122595701947e-49
0.07922198989348807	2.3062518896561324e-48
0.08001420979242296	9.039806811743192e-48
0.08081435189034718	3.0353055141806477e-47
0.08162249540925066	1.129740517113763e-46
0.08243872036334317	3.971100117991001e-46
0.08326310756697661	1.0760600636076587e-45
0.08409573864264637	1.9396214975772183e-45
0.08493669602907282	2.8225826699122655e-46
0.08578606298936356	3.369475160841726e-47
0.0866439236192572	1.561068521534511e-65
0.08751036285544977	1.2140775577907145e-62
0.08838546648400426	1.277008023055488e-61
0.08926932114884432	6.628347973660915e-61
0.09016201436033276	6.398468984402519e-60
0.09106363450393609	3.6999237454001493e-59
0.09197427084897544	1.2455827773663779e-58
0.0928940135574652	9.083734789115743e-59
0.09382295369303986	7.473868209601617e-58
0.09476118322997025	6.342960217796437e-57
0.09570879506226997	6.702185027630843e-56
0.09666588301289265	6.876966017389781e-56
0.09763254184302157	2.1779687531069864e-55
0.09860886726145181	5.800244470249081e-52
0.09959495593406631	6.74652891850442e-51
0.10059090549340699	4.946631541456902e-51
0.10159681454834106	3.9880692315075105e-52
0.10261278269382446	3.0308146181700415e-53
0.10363891052076271	1.276038966314695e-52
0.10467529962597034	5.641433269812675e-52
0.10572205262223004	2.4359620718632458e-51
0.10677927314845236	4.340663523020053e-50
0.10784706587993687	1.6742592772162034e-47
0.10892553653873624	1.756992011320837e-46
0.1100147919041236	1.9583499626548874e-47
0.11111493982316484	3.973265816660989e-42
0.1122260892213965	1.0659525539681912e-40
0.11334835011361045	5.661515984984249e-40
0.11448183361474655	5.0694998487587034e-39
0.11562665195089401	2.739933198053908e-38
0.11678291847040295	6.735186685420214e-38
0.117950747655107	3.076996285565948e-37
0.11913025513165806	7.396429117671612e-37
0.12032155768297464	2.3502572890328553e-36
0.1215247732598044	9.376056569878132e-36
0.12274002099240244	3.3961669764821995e-35
0.12396742120232647	1.0312957122383033e-34
0.12520709541434974	3.032753781331672e-34
0.12645916636849325	4.412749837214896e-34
0.12772375803217817	2.454135089699274e-33
0.12900099561249995	7.517456024146432e-33
0.13029100556862497	2.2443669286011943e-32
0.1315939156243112	6.714052294359761e-32
0.1329098547805543	1.7865958202989645e-31
0.13423895332835986	5.115084113553214e-31
0.13558134286164344	1.4045852673845411e-30
0.1369371562902599	3.575894695486111e-30
0.1383065278531625	9.859913228802234e-30
0.13968959313169413	2.61204270275715e-29
0.14108648906301105	6.597749357831299e-29
0.1424973539536412	1.7692690634706262e-28
0.14392232749317757	4.3346769034765105e-28
0.14536155076810936	1.1313832514279365e-27
0.14681516627579044	2.7574761014201647e-27
0.14828331793854838	6.915793011114408e-27
0.14976615111793384	1.6685481662818066e-26
0.15126381262911318	4.060434307026148e-26
0.15277645075540433	9.589009690491079e-26
0.15430421526295837	2.295315000304347e-25
0.15584725741558797	5.294139068796398e-25
0.15740572998974384	1.2519127469544852e-24
0.15897978728964127	2.7867144609894422e-24
0.1605695851625377	6.38341026312054e-24
0.16217528101416306	1.445683773018756e-23
0.16379703382430472	3.225263179781228e-23
0.16543500416254772	7.241874649005756e-23
0.16708935420417323	1.5602995523350672e-22
0.16876024774621495	3.4177985372508786e-22
0.17044785022367712	7.35153108602926e-22
0.17215232872591388	1.5053297341174977e-21
0.173873852013173	3.2897670370335915e-21
0.17561259053330475	6.979094961254367e-21
0.1773687164386378	1.452138582832896e-20
0.1791424036030242	2.967611050968618e-20
0.1809338276390544	6.031753391480182e-20
0.18274316591544498	1.234032263721095e-19
0.18457059757459943	2.4900997615125376e-19
0.1864163035503454	4.796504736051415e-19
0.18828046658584888	9.73452264149601e-19
0.19016327125170737	1.9135363945226423e-18
0.19206490396422443	3.699093886580255e-18
0.1939855530038667	7.12070691561804e-18
0.19592540853390536	1.3679390523396726e-17
0.19788466261924442	2.612432731435546e-17
0.19986350924543686	4.9401791965226906e-17
0.2018621443378912	9.268437089850801e-17
0.20388076578127012	1.7488081787550489e-16
0.20591957343908285	3.2925284607705976e-16
0.20797876917347366	6.099199398676519e-16
0.21005855686520844	1.1511188635391715e-15
0.2121591424338605	1.987627211127235e-15
0.21428073385819912	3.982320584797601e-15
0.21642354119678112	7.361575351282412e-15
0.2185877766087489	1.3559795043387878e-14
0.2207736543748364	2.489119970005742e-14
0.22298139091858477	4.548287558691571e-14
0.2252112048277706	8.276238063020306e-14
0.22746331687604834	1.502527590018735e-13
0.22973795004480882	2.710931729963635e-13
0.23203532954525688	4.879786246090277e-13
0.23435568284070946	8.738466504300871e-13
0.23669923966911657	1.5303295118569484e-12
0.2390662320658077	2.758285934074036e-12
0.2414568943864658	3.87992225773161e-12
0.2438714633303305	8.560017921585184e-12
0.24631017796363378	1.495187659353067e-11
0.24877327974327013	2.3293631499868004e-11
0.2512610125407028	4.473932799427791e-11
0.25377362266610987	7.692364675203278e-11
0.25631135889277096	1.3144058156420088e-10
0.25887447248169865	2.233591207145221e-10
0.26146321720651566	3.774823792359789e-10
0.2640778493785808	6.345039327956556e-10
0.2667186278723666	1.0606975358889544e-09
0.2693858141510903	1.7640255103046525e-09
0.2720796722926012	2.9180504740064027e-09
0.27480046901552724	4.800291314134988e-09
0.27754847370568253	7.859426105977137e-09
0.28032395844273933	1.2741210661787279e-08
0.28312719802716674	2.0722491815198087e-08
0.2859584700074384	3.3376969580602514e-08
0.28881805470751276	5.3505510157552706e-08
0.2917062352545879	8.534887449658636e-08
0.2946232976071338	1.3542169073056668e-07
0.2975695305832051	2.0879367245297015e-07
0.30054522588903715	3.3600214587706497e-07
0.3035506781479275	5.26087234053552e-07
0.3065861849294068	8.144004709770121e-07
0.3096520467787009	1.269484311734705e-06
0.3127485672464879	1.961983774669721e-06
0.3158760529189528	2.972366126909053e-06
0.31903481344814233	4.6193914592088595e-06
0.3222251615826237	7.041079917678716e-06
0.32544741319844994	1.0687541542905135e-05
0.3287018873304345	1.6174860492071597e-05
0.33198890620373883	2.43931184443817e-05
0.3353087952657762	3.664181835344578e-05
0.338661883218434	5.431112478478223e-05
0.3420485020506183	8.132587255159333e-05
0.34546898707112456	0.00012072923592020166
0.3489236769418358	0.00017824761609314582
0.35241291371125416	0.00023557168557534182
0.3559370428483667	0.0003818711801484858
0.3594964132768504	0.0005583079578715585
0.3630913774096189	0.0008097584977903578
0.3667222911837151	0.001169726765308138
0.37038951409555215	0.0016820578563809146
0.37409340923650775	0.0024090224431884046
0.37783434332887283	0.0034347193463370768
0.38161268676216153	0.004875826599454048
0.38542881362978315	0.006890937348382362
0.389283101766081	0.00969757420704564
0.39317593278374185	0.013571228846312552
0.39710769211157926	0.01896869175790073
0.401078769032695	0.026344855779954556
0.405089556723022	0.03652726641179322
0.4091404522902522	0.050425198462145916
0.4132318568131547	0.06931646781146199
0.4173641753812863	0.09489329623740235
0.42153781713509914	0.1293666322136719
0.4257531953064501	0.17465159039737205
0.43001072725951467	0.23743574382337357
0.43431083453210984	0.31975503683749
0.43865394287743087	0.42893157062848364
0.44304048230620524	0.5732361879069913
0.44747088712926725	0.7633589891326963
0.45194559600055995	1.012940228616899
0.4564650519605655	1.339493364778873
0.4610297024801712	1.7650801020826183
0.4656399995049729	2.3182683774756883
0.47029639950002267	3.0339307259060897
0.47499936349502286	3.957002007243982
0.4797493571299731	5.143204716021427
0.48454685070127285	6.6621926671609275
0.48939231920828563	8.600376229676119
0.4942862424003685	11.065116887812566
0.4992291048243721	14.188021777705215
0.5042213958726158	18.131361951537805
0.509263609831342	23.094577092166002
0.5143562459296555	29.316770692505187
0.519499808388952	37.09444302123749
0.5246948064728415	46.787670871526814
0.52994175453757	58.82279481973431
0.5352411720829456	73.71085827541641
0.5405935838037751	92.07684562833501
0.5459995196418129	114.63411056910618
0.551459514838231	142.38990180667037
0.5569741099866133	176.25593545496986
0.5625438510864794	217.52786641454972
0.5681692895973443	267.64159526292065
0.5738509824933177	328.3575474424506
0.5795894923182509	401.61937732757815
0.5853853872414334	489.18957671724564
0.5912392411138477	550.0881623310535
0.5971516335249862	722.9707024087145
0.6031231498602361	875.1604737703124
0.6091543813588385	1056.4694038280923
0.6152459251724268	1271.8526069199875
0.6213983844241512	1526.712906269709
0.6276123682683926	1827.4517182766315
0.6338884919510765	2181.864157004459
0.6402273768705874	2598.6432385663734
0.6466296506392932	3086.37900462094
0.6530959471456862	3654.0742940143814
0.6596269066171431	4314.704562912782
0.6662231756833145	5088.041238530949
0.6728854074401477	5999.102779486413
0.6796142615145492	7071.859811272528
0.6864104041296946	8327.828007996919
0.6932745081709915	9791.308103394742
0.7002072532527015	11486.713425195592
0.7072093257852285	13436.741488170423
0.7142814190430807	15664.915921487402
0.7214242332335116	18195.006515568737
0.7286384755658467	21058.411340144186
0.7359248603215052	24302.371529376716
0.7432841089247202	27971.52479646559
0.7507169500139675	32121.329778411688
0.7582241195141072	36820.580560218776
0.7658063607092482	41787.71819713854
0.7734644243163408	48177.464503365736
0.781199068559504	55019.2707280603
0.7890110592450992	62796.676231970836
0.7969011698375502	71503.25606070805
0.8048701815359257	81261.13818261403
0.8129188833512849	92108.851685987
0.8210480721847978	104256.12654475178
0.8292585529066457	117733.73880245723
0.8375511384357123	132517.9212933537
0.8459266498200694	148849.4655204172
0.8543859163182701	166716.53388546337
0.8629297754814528	186299.34454580428
0.8715590732362674	207715.75310161043
0.8802746639686301	231105.78821229783
0.8890774106083162	256640.16003350294
0.8979681847143995	284245.1320298492
0.9069478665615435	315037.4003267243
0.9160173452271589	348224.5796449192
0.9251775186794305	384519.8810531487
0.9344292938662249	422621.248330723
0.9437735868048871	467005.7181586271
0.953211322672936	511821.5696800509
0.9627434358996654	563099.553683232
0.9723708702586621	618293.5986721277
0.9820945789612486	677636.0150930275
0.9919155247508612	741079.1307291264
1.0018346799983697	809266.1424057607
1.0118530267983534	882070.890183952
1.021971557066337	960297.4549534398
1.0321912726370004	1043955.5975992878
1.0425131853633705	1133145.442625237
1.0529383172170041	1228891.7807821361
1.0634677003891742	1330841.901553328
1.074102377393066	1439715.8297677783
1.0848434011669965	1556243.7026423623
1.0956918351786664	1679249.5044055458
1.1066487535304532	1793165.750740499
1.1177152410657578	1932945.6024040289
1.1288923934764155	2090969.980094256
1.1401813174111797	2254742.733836878
1.1515831305852913	2427041.211162173
1.1630989618911443	2606317.3712266907
1.1747299515100555	2794705.6895013154
1.1864772510251562	2993616.756129522
1.1983420235354079	3209944.729461075
