#wavelength	surface flux
0.01	7.426162559071949e-94
0.0101	7.939576266859637e-94
0.010201	8.458124111725206e-94
0.010303010000000001	8.981857435039436e-94
0.0104060401	9.510828091586793e-94
0.010510100501000002	1.0045088454699642e-93
0.01061520150601	1.0584691421443605e-93
0.010721353521070101	1.1129690417855017e-93
0.010828567056280802	1.1680139404230534e-93
0.010936852726843608	1.2236092880469801e-93
0.011046221254112046	1.2560299636948851e-93
0.011156683466653166	1.2560299636948851e-93
0.011268250301319697	1.2560299636948851e-93
0.011380932804332895	1.2560299636948851e-93
0.011494742132376225	1.2560299636948851e-93
0.011609689553699986	1.2560299636948851e-93
0.011725786449236988	1.2560299636948851e-93
0.011843044313729357	1.2560299636948851e-93
0.01196147475686665	1.2560299636948851e-93
0.012081089504435316	1.2560299636948851e-93
0.012201900399479671	1.2560299636948851e-93
0.012323919403474468	1.2560299636948851e-93
0.012447158597509212	1.2560299636948851e-93
0.012571630183484304	1.2560299636948851e-93
0.012697346485319148	1.2560299636948851e-93
0.012824319950172339	1.2560299636948851e-93
0.012952563149674063	1.2560299636948851e-93
0.013082088781170804	1.2560299636948851e-93
0.013212909668982512	1.2560299636948851e-93
0.013345038765672336	1.2560299636948851e-93
0.013478489153329061	1.2560299636948851e-93
0.013613274044862352	1.2560299636948851e-93
0.013749406785310975	1.2560299636948851e-93
0.013886900853164083	1.2560299636948851e-93
0.014025769861695726	1.2560299636948851e-93
0.014166027560312683	1.2560299636948851e-93
0.01430768783591581	1.2560299636948851e-93
0.014450764714274969	1.2560299636948851e-93
0.014595272361417718	1.2560299636948851e-93
0.014741225085031895	1.2560299636948851e-93
0.014888637335882214	1.2560299636948851e-93
0.015037523709241036	1.2560299636948851e-93
0.015187898946333447	1.2560299636948851e-93
0.015339777935796781	1.2560299636948851e-93
0.015493175715154751	1.2560299636948851e-93
0.015648107472306296	1.2560299636948851e-93
0.01580458854702936	1.2560299636948851e-93
0.015962634432499654	1.2560299636948851e-93
0.016122260776824653	1.2560299636948851e-93
0.016283483384592897	1.2560299636948851e-93
0.016446318218438827	1.2560299636948851e-93
0.016610781400623217	1.2560299636948851e-93
0.016776889214629446	1.2560299636948851e-93
0.016944658106775742	1.2560299636948851e-93
0.0171141046878435	1.2560299636948851e-93
0.017285245734721934	1.2560299636948851e-93
0.017458098192069154	1.2560299636948851e-93
0.017632679173989845	1.2560299636948851e-93
0.017809005965729745	1.2560299636948851e-93
0.01798709602538704	1.2560299636948851e-93
0.018166966985640912	1.2560299636948851e-93
0.01834863665549732	1.2560299636948851e-93
0.018532123022052295	1.2560299636948851e-93
0.01871744425227282	1.2560299636948851e-93
0.01890461869479555	1.2560299636948851e-93
0.0190936648817435	1.2560299636948851e-93
0.019284601530560937	1.2560299636948851e-93
0.01947744754586655	1.2560299636948851e-93
0.019672222021325212	1.2560299636948851e-93
0.019868944241538466	1.2560299636948851e-93
0.020067633683953853	1.2560299636948851e-93
0.02026831002079339	1.2560299636948851e-93
0.020470993121001323	1.2560299636948851e-93
0.020675703052211336	1.2560299636948851e-93
0.02088246008273345	1.2560299636948851e-93
0.021091284683560786	1.2560299636948851e-93
0.021302197530396395	1.2560299636948851e-93
0.02151521950570036	1.2560299636948851e-93
0.02173037170075736	1.2560299636948851e-93
0.02194767541776493	1.2560299636948851e-93
0.022167152171942584	1.2560299636948851e-93
0.022388823693662012	1.2560299636948851e-93
0.02261271193059863	1.2560299636948851e-93
0.022838839049904615	1.2560299636948851e-93
0.023067227440403664	1.2560299636948851e-93
0.0232978997148077	1.2560299636948851e-93
0.023530878711955777	1.2560299636948851e-93
0.023766187499075334	1.2560299636948851e-93
0.024003849374066088	1.2560299636948851e-93
0.02424388786780675	1.2560299636948851e-93
0.024486326746484814	1.2560299636948851e-93
0.024731190013949664	1.2560299636948851e-93
0.024978501914089166	1.2560299636948851e-93
0.025228286933230055	1.2560299636948851e-93
0.02548056980256236	1.2560299636948851e-93
0.025735375500587982	1.2560299636948851e-93
0.025992729255593858	1.2560299636948851e-93
0.0262526565481498	1.2560299636948851e-93
0.026515183113631293	1.2560299636948851e-93
0.02678033494476761	1.2560299636948851e-93
0.027048138294215287	1.2560299636948851e-93
0.02731861967715744	1.2560299636948851e-93
0.027591805873929013	1.2560299636948851e-93
0.027867723932668304	1.2560299636948851e-93
0.02814640117199499	1.2560299636948851e-93
0.028427865183714936	1.2560299636948851e-93
0.02871214383555209	1.2560299636948851e-93
0.028999265273907608	1.2560299636948851e-93
0.029289257926646682	1.2560299636948851e-93
0.029582150505913153	1.2560299636948851e-93
0.02987797201097228	1.2560299636948851e-93
0.030176751731082006	1.2560299636948851e-93
0.030478519248392826	1.2560299636948851e-93
0.030783304440876753	1.2560299636948851e-93
0.031091137485285525	1.2560299636948851e-93
0.03140204886013838	1.2560299636948851e-93
0.03171606934873976	1.2560299636948851e-93
0.03203323004222716	1.2560299636948851e-93
0.03235356234264943	1.2560299636948851e-93
0.03267709796607593	1.2560299636948851e-93
0.03300386894573669	1.2560299636948851e-93
0.03333390763519405	1.2560299636948851e-93
0.033667246711545994	1.2560299636948851e-93
0.034003919178661454	1.2560299636948851e-93
0.03434395837044807	1.2560299636948851e-93
0.03468739795415255	1.2560299636948851e-93
0.03503427193369407	1.2560299636948851e-93
0.03538461465303102	1.2560299636948851e-93
0.03573846079956133	1.2560299636948851e-93
0.03609584540755694	1.2560299636948851e-93
0.03645680386163251	1.2560299636948851e-93
0.03682137190024883	1.2560299636948851e-93
0.03718958561925133	1.2560299636948851e-93
0.03756148147544384	1.2560299636948851e-93
0.03793709629019828	1.2560299636948851e-93
0.03831646725310026	1.2560299636948851e-93
0.038699631925631264	1.2560299636948851e-93
0.039086628244887574	1.2560299636948851e-93
0.039477494527336454	1.2560299636948851e-93
0.03987226947260982	1.2560299636948851e-93
0.04027099216733592	1.2560299636948851e-93
0.04067370208900927	1.2560299636948851e-93
0.04108043910989937	1.2563871438257569e-93
0.04149124350099836	1.2582112709992055e-93
0.04190615593600835	1.2600536394443885e-93
0.042325217495368425	1.7649149857135518e-93
0.04274846967032212	2.4214211557704777e-93
0.043175954367025336	7.383494295926437e-92
0.04360771391069559	2.4811319335680537e-91
0.04404379104980254	3.9248074938825175e-90
0.04448422896030057	3.9311363732936e-89
0.04492907124990358	7.505178553438025e-89
0.04537836196240262	5.029671258584658e-87
0.04583214558202665	1.0965096602776966e-86
0.04629046703784691	4.9487756766012086e-85
0.046753371708225376	1.2625689099105099e-84
0.04722090542530763	4.17154226665343e-83
0.047693114479560705	1.2731342806655555e-82
0.04817004562435631	2.8628960398891233e-81
0.04865174608059988	1.0454591539319238e-80
0.04913826354140587	1.818508052798295e-79
0.04962964617681994	7.714794487260432e-79
0.05012594263858814	3.4596488386661314e-72
0.05062720206497402	1.722925857795166e-71
0.05113347408562376	2.5543841236706728e-70
0.051644808826479996	1.1287776402097974e-69
0.0521612569147448	9.82587594505793e-69
0.052682869483892246	3.599578217473454e-68
0.05320969817873117	3.36413567674938e-67
0.05374179516051848	1.0583335506800492e-66
0.054279213112123664	1.0807546061721956e-65
0.0548220052432449	2.907905866547985e-65
0.05537022529567735	2.8674109344521375e-64
0.05592392754863413	6.631347311905441e-64
0.056483166824120475	1.1634076499611918e-60
0.057047998492361675	4.696815056784894e-60
0.057618478477285295	3.1910752225055386e-59
0.05819466326205815	1.9047493746338197e-58
0.05877660989467873	6.1009442661252764e-58
0.05936437599362551	9.819752730611452e-57
0.05995801975356178	2.4561759022708804e-56
0.06055759995109739	1.9763155245098077e-55
0.06116317595060837	8.075039137072449e-55
0.061774807710114454	2.5818941147750828e-54
0.062392555787215594	1.3462507504032104e-53
0.06301648134508775	3.289134945340015e-53
0.06364664615853863	1.7065252092730796e-52
0.06428311262012401	7.308614863057887e-52
0.06492594374632525	1.8274670852189047e-51
0.06557520318378851	9.240515884024479e-51
0.0662309552156264	3.5001118157266956e-50
0.06689326476778266	9.344261542982273e-50
0.06756219741546049	4.30781124949651e-49
0.0682378193896151	1.553890093202939e-48
0.06892019758351124	4.0437249305464154e-48
0.06960939955934635	1.7568247443525047e-47
0.07030549355493981	6.357478429408129e-47
0.07100854849048922	1.5463726503203463e-46
0.07171863397539412	6.326467164075642e-46
0.07243582031514804	2.3420871400928396e-45
0.07316017851829953	7.083861269239944e-45
0.07389178030348253	1.975412573678311e-44
0.07463069810651736	7.400198838401473e-44
0.07537700508758254	2.4734540021229763e-43
0.07613077513845835	7.040745013335132e-43
0.07689208288984294	1.9903865613549977e-42
0.07766100371874136	2.4919212004904537e-41
0.07843761375592878	2.583531899746508e-40
0.07922198989348807	9.43045686164818e-40
0.08001420979242296	2.441745535147607e-39
0.08081435189034718	7.953878723085907e-39
0.08162249540925066	2.5550606134616446e-38
0.08243872036334317	7.725396368977183e-38
0.08326310756697661	1.9536568965289582e-37
0.08409573864264637	3.4300761578810642e-37
0.08493669602907282	5.002364062065497e-38
0.08578606298936356	6.508996621981264e-39
0.0866439236192572	2.0315617814523664e-39
0.08751036285544977	1.4149476868493848e-37
0.08838546648400426	1.442548018923128e-36
0.08926932114884432	2.871679247028092e-36
0.09016201436033276	6.009134845495191e-36
0.09106363450393609	3.578378851652467e-35
0.09197427084897544	1.4270716737937613e-34
0.0928940135574652	6.546076739873296e-35
0.09382295369303986	2.956227567541443e-34
0.09476118322997025	3.8264647687795725e-34
0.09570879506226997	2.594955599330457e-33
0.09666588301289265	5.367351205623491e-33
0.09763254184302157	1.387633003486182e-32
0.09860886726145181	6.5077278111861935e-31
0.09959495593406631	7.437572471311051e-30
0.10059090549340699	5.487449713374194e-30
0.10159681454834106	5.891465275918553e-31
0.10261278269382446	3.7760766465421933e-31
0.10363891052076271	9.743737602400792e-31
0.10467529962597034	2.6468814155134664e-30
0.10572205262223004	7.09252892977792e-30
0.10677927314845236	1.8938452164092564e-29
0.10784706587993687	5.060739157021235e-29
0.10892553653873624	1.2762139692581676e-28
0.1100147919041236	4.542537322012925e-28
0.11111493982316484	2.76080618525981e-25
0.1122260892213965	6.972356560537873e-24
0.11334835011361045	1.9045229599785534e-23
0.11448183361474655	4.4843397874923187e-23
0.11562665195089401	2.0160490835593134e-22
0.11678291847040295	4.037462282128566e-22
0.117950747655107	5.291703730203088e-21
0.11913025513165806	1.872119828672113e-20
0.12032155768297464	9.051373519016392e-21
0.1215247732598044	1.675434232659611e-20
0.12274002099240244	1.0171617064681555e-19
0.12396742120232647	2.4178195010775804e-19
0.12520709541434974	3.3845781310359377e-19
0.12645916636849325	2.3791378131127218e-19
0.12772375803217817	4.374665211283731e-19
0.12900099561249995	1.1797890504089303e-18
0.13029100556862497	1.425923315784726e-18
0.1315939156243112	3.6022498685447544e-18
0.1329098547805543	6.140480553395625e-18
0.13423895332835986	1.3072838761502004e-17
0.13558134286164344	2.5644191594700257e-17
0.1369371562902599	2.6371528995065233e-17
0.1383065278531625	9.570001116072985e-17
0.13968959313169413	5.010674644680022e-16
0.14108648906301105	7.8712682193272205e-16
0.1424973539536412	2.1735338411048065e-15
0.14392232749317757	4.766505149044579e-15
0.14536155076810936	2.1318258232383913e-14
0.14681516627579044	3.9494313392451646e-14
0.14828331793854838	6.240888950087258e-14
0.14976615111793384	1.1240490579731199e-13
0.15126381262911318	1.5900526964897974e-13
0.15277645075540433	1.158661792616659e-13
0.15430421526295837	1.17241917457292e-13
0.15584725741558797	2.5393924677220564e-13
0.15740572998974384	4.748526193864885e-13
0.15897978728964127	6.145381406174527e-13
0.1605695851625377	7.217585137050993e-13
0.16217528101416306	2.5803361152296624e-13
0.16379703382430472	5.630509066686018e-13
0.16543500416254772	1.195114844471723e-12
0.16708935420417323	1.0615451296441901e-11
0.16876024774621495	8.279832070797485e-13
0.17044785022367712	8.088999267632209e-11
0.17215232872591388	2.3969411548583366e-11
0.173873852013173	4.02711544678327e-11
0.17561259053330475	1.859605099382225e-10
0.1773687164386378	6.145468132026376e-10
0.1791424036030242	2.620566487008298e-09
0.1809338276390544	1.8296974431649016e-10
0.18274316591544498	7.253709156387494e-09
0.18457059757459943	2.8815232033803616e-09
0.1864163035503454	3.706356581443533e-10
0.18828046658584888	1.423067529172341e-09
0.19016327125170737	3.900747512779879e-09
0.19206490396422443	4.8027284394435604e-08
0.1939855530038667	1.9300885188249607e-07
0.19592540853390536	5.294364331963377e-07
0.19788466261924442	1.2079488931658007e-06
0.19986350924543686	1.1394476655771181e-06
0.2018621443378912	1.5241665801937284e-06
0.20388076578127012	1.7368194064174946e-06
0.20591957343908285	2.635956925155149e-06
0.20797876917347366	1.8931123745923212e-06
0.21005855686520844	4.068274496276383e-06
0.2121591424338605	2.3293250445994267e-06
0.21428073385819912	7.0201104873453205e-06
0.21642354119678112	6.296021990990536e-06
0.2185877766087489	1.2104164183428502e-05
0.2207736543748364	1.261034665889441e-05
0.22298139091858477	4.13415898934931e-05
0.2252112048277706	1.930344375086875e-05
0.22746331687604834	7.635083560252321e-05
0.22973795004480882	0.00010719992583402487
0.23203532954525688	0.0002741495393716777
0.23435568284070946	0.0005188932302230276
0.23669923966911657	0.00031487068784520985
0.2390662320658077	0.0006689355030612181
0.2414568943864658	0.0012098385640711485
0.2438714633303305	0.003429029721562219
0.24631017796363378	0.003291382890157421
0.24877327974327013	0.002183561381828345
0.2512610125407028	0.00534739970807916
0.25377362266610987	0.01595051341570192
0.25631135889277096	0.01952719326957994
0.25887447248169865	0.018524325724661807
0.26146321720651566	0.06660868008132716
0.2640778493785808	0.10094112882024878
0.2667186278723666	0.12087015445319964
0.2693858141510903	0.156200468991548
0.2720796722926012	0.15459690247862826
0.27480046901552724	0.2667816323153569
0.27754847370568253	0.4558289795104298
0.28032395844273933	0.34541495052353455
0.28312719802716674	0.6124970611504996
0.2859584700074384	0.4215006304855773
0.28881805470751276	1.4186804107081266
0.2917062352545879	2.080272782508005
0.2946232976071338	2.288439465472841
0.2975695305832051	2.292490699841665
0.30054522588903715	3.452384925995411
0.3035506781479275	5.348470202681201
0.3065861849294068	8.40310921491288
0.3096520467787009	10.240633601006794
0.3127485672464879	20.06377154365678
0.3158760529189528	28.0853543194245
0.31903481344814233	27.302568223250994
0.3222251615826237	36.00826751157781
0.32544741319844994	57.98023163726504
0.3287018873304345	78.9370345135932
0.33198890620373883	102.61136794640375
0.3353087952657762	132.23423859236613
0.338661883218434	112.97553909642467
0.3420485020506183	140.93976987940513
0.34546898707112456	149.30979473848765
0.3489236769418358	196.4537259179545
0.35241291371125416	234.56275475475258
0.3559370428483667	452.69907332885225
0.3594964132768504	324.5724547105932
0.3630913774096189	765.0535817933796
0.3667222911837151	1025.5004317306125
0.37038951409555215	953.3059619609774
0.37409340923650775	703.2260353139369
0.37783434332887283	1993.5159472720036
0.38161268676216153	1913.0307104149338
0.38542881362978315	1878.3226795881315
0.389283101766081	2175.702962444686
0.39317593278374185	3309.8678283020286
0.39710769211157926	6862.491532445975
0.401078769032695	8934.61514103901
0.405089556723022	9398.91238845052
0.4091404522902522	13388.090852334108
0.4132318568131547	14854.458409314077
0.4173641753812863	15633.01054209488
0.42153781713509914	13337.751126300207
0.4257531953064501	13537.309431917105
0.43001072725951467	23220.003510796076
0.43431083453210984	34149.400106163404
0.43865394287743087	38691.08420767142
0.44304048230620524	54531.23968392669
0.44747088712926725	65994.57675825116
0.45194559600055995	89311.07591300595
0.4564650519605655	110692.09119314607
0.4610297024801712	98518.56035996287
0.4656399995049729	132095.79573545983
0.47029639950002267	169706.83544982952
0.47499936349502286	229972.24373123556
0.4797493571299731	172885.258024648
0.48454685070127285	210176.65418926984
0.48939231920828563	342497.5177249793
0.4942862424003685	581402.3960361812
0.4992291048243721	304611.10548231413
0.5042213958726158	372840.0924990726
0.509263609831342	443790.8679982016
0.5143562459296555	596760.4907408284
0.519499808388952	427497.5273651456
0.5246948064728415	650552.7584549617
0.52994175453757	935244.4955515984
0.5352411720829456	1227841.20951483
0.5405935838037751	1212895.24694371
0.5459995196418129	1002624.2632679967
0.551459514838231	1159301.7796595616
0.5569741099866133	1502457.5599745798
0.5625438510864794	1439515.3369519513
0.5681692895973443	1758273.6515629878
0.5738509824933177	1924056.999142112
0.5795894923182509	1877480.3070558268
0.5853853872414334	1412775.587187776
0.5912392411138477	1069939.030476367
0.5971516335249862	2259284.790882618
0.6031231498602361	3137618.9854967883
0.6091543813588385	3810178.943824123
0.6152459251724268	4019300.454022005
0.6213983844241512	3403862.5589174316
0.6276123682683926	4072910.7515214253
0.6338884919510765	5163352.259371447
0.6402273768705874	5509467.31889297
0.6466296506392932	6909945.333706356
0.6530959471456862	8322764.450274101
0.6596269066171431	8355310.53002058
0.6662231756833145	7659307.393424188
0.6728854074401477	6874609.1459520785
0.6796142615145492	8240700.829958526
0.6864104041296946	9643847.270769754
0.6932745081709915	10451210.428093527
0.7002072532527015	13907111.30765488
0.7072093257852285	11903222.821895152
0.7142814190430807	10957848.321713084
0.7214242332335116	13679638.039410073
0.7286384755658467	20555624.939265445
0.7359248603215052	21052555.3948923
0.7432841089247202	15643933.270362157
0.7507169500139675	17432367.038111147
0.7582241195141072	22096513.227647882
0.7658063607092482	13751132.83675725
0.7734644243163408	22495051.740302447
0.781199068559504	30126493.43096554
0.7890110592450992	29611790.953733437
0.7969011698375502	25532417.493579213
0.8048701815359257	38236704.28919531
0.8129188833512849	89436642.2201977
0.8210480721847978	90415096.39909351
0.8292585529066457	99856064.8410742
0.8375511384357123	108088343.65680043
0.8459266498200694	58637327.98354329
0.8543859163182701	61097250.161711715
0.8629297754814528	58798460.31053623
0.8715590732362674	56800000.78109796
0.8802746639686301	76666073.57723531
0.8890774106083162	82178034.85650131
0.8979681847143995	107258679.8916524
0.9069478665615435	105587234.18614021
0.9160173452271589	132564906.13162386
0.9251775186794305	126461158.91428104
0.9344292938662249	140730823.1191109
0.9437735868048871	176403649.16840303
0.953211322672936	195457094.75300086
0.9627434358996654	135986335.72923562
0.9723708702586621	142443067.46530727
0.9820945789612486	224434278.64979172
0.9919155247508612	140951148.35041007
1.0018346799983697	147897483.69670656
1.0118530267983534	162955076.66353238
1.021971557066337	185754791.99731776
1.0321912726370004	220401986.11933956
1.0425131853633705	264421724.9917033
1.0529383172170041	220108618.69785467
1.0634677003891742	197521142.63330284
1.074102377393066	319920080.8435368
1.0848434011669965	439183639.1673027
1.0956918351786664	496850505.56295663
1.1066487535304532	320081248.46130687
1.1177152410657578	348742161.9508451
1.1288923934764155	394216584.48568004
1.1401813174111797	302658045.42288303
1.1515831305852913	445690257.1632831
1.1630989618911443	416119401.86097604
1.1747299515100555	343587680.0577389
1.1864772510251562	389257717.9651666
1.1983420235354079	336794728.32074744
1.210325443770762	368826275.4776532
1.2224286982084696	431346644.38751984
1.2346529851905543	435997462.1626882
1.2469995150424598	383440620.1951236
1.2594695101928843	467474925.67764497
