#wavelength	surface flux
0.01	7.426162559071949e-94
0.0101	7.939576266859637e-94
0.010201	8.458124111725206e-94
0.010303010000000001	8.981857435039436e-94
0.0104060401	9.510828091586793e-94
0.010510100501000002	1.0045088454699642e-93
0.01061520150601	1.0584691421443605e-93
0.010721353521070101	1.1129690417855017e-93
0.010828567056280802	1.1680139404230534e-93
0.010936852726843608	1.2236092880469801e-93
0.011046221254112046	1.2560299636948851e-93
0.011156683466653166	1.2560299636948851e-93
0.011268250301319697	1.2560299636948851e-93
0.011380932804332895	1.2560299636948851e-93
0.011494742132376225	1.2560299636948851e-93
0.011609689553699986	1.2560299636948851e-93
0.011725786449236988	1.2560299636948851e-93
0.011843044313729357	1.2560299636948851e-93
0.01196147475686665	1.2560299636948851e-93
0.012081089504435316	1.2560299636948851e-93
0.012201900399479671	1.2560299636948851e-93
0.012323919403474468	1.2560299636948851e-93
0.012447158597509212	1.2560299636948851e-93
0.012571630183484304	1.2560299636948851e-93
0.012697346485319148	1.2560299636948851e-93
0.012824319950172339	1.2560299636948851e-93
0.012952563149674063	1.2560299636948851e-93
0.013082088781170804	1.2560299636948851e-93
0.013212909668982512	1.2560299636948851e-93
0.013345038765672336	1.2560299636948851e-93
0.013478489153329061	1.2560299636948851e-93
0.013613274044862352	1.2560299636948851e-93
0.013749406785310975	1.2560299636948851e-93
0.013886900853164083	1.2560299636948851e-93
0.014025769861695726	1.2560299636948851e-93
0.014166027560312683	1.2560299636948851e-93
0.01430768783591581	1.2560299636948851e-93
0.014450764714274969	1.2560299636948851e-93
0.014595272361417718	1.2560299636948851e-93
0.014741225085031895	1.2560299636948851e-93
0.014888637335882214	1.2560299636948851e-93
0.015037523709241036	1.2560299636948851e-93
0.015187898946333447	1.2560299636948851e-93
0.015339777935796781	1.2560299636948851e-93
0.015493175715154751	1.2560299636948851e-93
0.015648107472306296	1.2560299636948851e-93
0.01580458854702936	1.2560299636948851e-93
0.015962634432499654	1.2560299636948851e-93
0.016122260776824653	1.2560299636948851e-93
0.016283483384592897	1.2560299636948851e-93
0.016446318218438827	1.2560299636948851e-93
0.016610781400623217	1.2560299636948851e-93
0.016776889214629446	1.2560299636948851e-93
0.016944658106775742	1.2560299636948851e-93
0.0171141046878435	1.2560299636948851e-93
0.017285245734721934	1.2560299636948851e-93
0.017458098192069154	1.2560299636948851e-93
0.017632679173989845	1.2560299636948851e-93
0.017809005965729745	1.2560299636948851e-93
0.01798709602538704	1.2560299636948851e-93
0.018166966985640912	1.2560299636948851e-93
0.01834863665549732	1.2560299636948851e-93
0.018532123022052295	1.2560299636948851e-93
0.01871744425227282	1.2560299636948851e-93
0.01890461869479555	1.2560299636948851e-93
0.0190936648817435	1.2560299636948851e-93
0.019284601530560937	1.2560299636948851e-93
0.01947744754586655	1.2560299636948851e-93
0.019672222021325212	1.2560299636948851e-93
0.019868944241538466	1.2560299636948851e-93
0.020067633683953853	1.2560299636948851e-93
0.02026831002079339	1.2560299636948851e-93
0.020470993121001323	1.2560299636948851e-93
0.020675703052211336	1.2560299636948851e-93
0.02088246008273345	1.2560299636948851e-93
0.021091284683560786	1.2560299636948851e-93
0.021302197530396395	1.2560299636948851e-93
0.02151521950570036	1.2560299636948851e-93
0.02173037170075736	1.2560299636948851e-93
0.02194767541776493	1.2560299636948851e-93
0.022167152171942584	1.2560299636948851e-93
0.022388823693662012	1.2560299636948851e-93
0.02261271193059863	1.2560299636948851e-93
0.022838839049904615	1.2560299636948851e-93
0.023067227440403664	1.2560299636948851e-93
0.0232978997148077	1.2560299636948851e-93
0.023530878711955777	1.2560299636948851e-93
0.023766187499075334	1.2560299636948851e-93
0.024003849374066088	1.2560299636948851e-93
0.02424388786780675	1.2560299636948851e-93
0.024486326746484814	1.2560299636948851e-93
0.024731190013949664	1.2560299636948851e-93
0.024978501914089166	1.2560299636948851e-93
0.025228286933230055	1.2560299636948851e-93
0.02548056980256236	1.2560299636948851e-93
0.025735375500587982	1.2560299636948851e-93
0.025992729255593858	1.2560299636948851e-93
0.0262526565481498	1.2560299636948851e-93
0.026515183113631293	1.2560299636948851e-93
0.02678033494476761	1.2560299636948851e-93
0.027048138294215287	1.2560299636948851e-93
0.02731861967715744	1.2560299636948851e-93
0.027591805873929013	1.2560299636948851e-93
0.027867723932668304	1.2560299636948851e-93
0.02814640117199499	1.2560299636948851e-93
0.028427865183714936	1.2560299636948851e-93
0.02871214383555209	1.2560299636948851e-93
0.028999265273907608	1.2560299636948851e-93
0.029289257926646682	1.2560299636948851e-93
0.029582150505913153	1.2560299636948851e-93
0.02987797201097228	1.2560299636948851e-93
0.030176751731082006	1.2560299636948851e-93
0.030478519248392826	1.2560299636948851e-93
0.030783304440876753	1.2560299636948851e-93
0.031091137485285525	1.2560299636948851e-93
0.03140204886013838	1.2560299636948851e-93
0.03171606934873976	1.2560299636948851e-93
0.03203323004222716	1.2560299636948851e-93
0.03235356234264943	1.2560299636948851e-93
0.03267709796607593	1.2560299636948851e-93
0.03300386894573669	1.2560299636948851e-93
0.03333390763519405	1.2560299636948851e-93
0.033667246711545994	1.2560299636948851e-93
0.034003919178661454	1.2560299636948851e-93
0.03434395837044807	1.2560299636948851e-93
0.03468739795415255	1.2560299636948851e-93
0.03503427193369407	1.2560299636948851e-93
0.03538461465303102	1.2560299636948851e-93
0.03573846079956133	1.2560299636948851e-93
0.03609584540755694	1.2560299636948851e-93
0.03645680386163251	1.2560299636948851e-93
0.03682137190024883	1.2560299636948851e-93
0.03718958561925133	1.2560299636948851e-93
0.03756148147544384	1.2560299636948851e-93
0.03793709629019828	1.2560299636948851e-93
0.03831646725310026	1.2560299636948851e-93
0.038699631925631264	1.2560299636948851e-93
0.039086628244887574	1.2560299636948851e-93
0.039477494527336454	1.2560299636948851e-93
0.03987226947260982	1.2560299636948851e-93
0.04027099216733592	1.2560299636948851e-93
0.04067370208900927	1.2560299636948851e-93
0.04108043910989937	1.2560299636948851e-93
0.04149124350099836	1.2560299636948851e-93
0.04190615593600835	1.2560299636948851e-93
0.042325217495368425	1.2560299636948851e-93
0.04274846967032212	1.2560299636948851e-93
0.043175954367025336	1.2560299636948851e-93
0.04360771391069559	1.2560299636948851e-93
0.04404379104980254	1.2560299636948851e-93
0.04448422896030057	1.2560299636948851e-93
0.04492907124990358	1.2560299636948851e-93
0.04537836196240262	1.2560299636948851e-93
0.04583214558202665	1.2560299636948851e-93
0.04629046703784691	1.2560299636948851e-93
0.046753371708225376	1.2560299636948851e-93
0.04722090542530763	1.2560299636948851e-93
0.047693114479560705	1.2560299636948851e-93
0.04817004562435631	1.2560299636948851e-93
0.04865174608059988	1.2560299636948851e-93
0.04913826354140587	1.2560299636948851e-93
0.04962964617681994	1.2560299636948851e-93
0.05012594263858814	1.2560299636948851e-93
0.05062720206497402	1.2560299636948851e-93
0.05113347408562376	1.2560299636948851e-93
0.051644808826479996	1.2560299636948851e-93
0.0521612569147448	1.2560495005609003e-93
0.052682869483892246	1.2561126958346744e-93
0.05320969817873117	1.2577961369950247e-93
0.05374179516051848	1.2619702790349651e-93
0.054279213112123664	1.3947953276402557e-93
0.0548220052432449	1.6490704350357549e-93
0.05537022529567735	1.1912220196030554e-92
0.05592392754863413	2.7136895161073208e-92
0.056483166824120475	3.1793771528424114e-87
0.057047998492361675	1.2661479121402358e-86
0.057618478477285295	8.493906812010746e-86
0.05819466326205815	6.155920316119562e-84
0.05877660989467873	2.416063951400467e-83
0.05936437599362551	3.9582465819983295e-79
0.05995801975356178	1.0406541660350361e-78
0.06055759995109739	1.9558552811645392e-77
0.06116317595060837	8.106483878817189e-77
0.061774807710114454	2.5667383961425136e-76
0.062392555787215594	1.150180092117409e-75
0.06301648134508775	2.9065433671460733e-75
0.06364664615853863	2.102205732033703e-74
0.06428311262012401	9.24911355989237e-74
0.06492594374632525	2.3170321935614025e-73
0.06557520318378851	1.273638185697919e-72
0.0662309552156264	5.540803541369102e-72
0.06689326476778266	1.5605053695383958e-71
0.06756219741546049	9.319632578813993e-71
0.0682378193896151	4.4390582232168423e-70
0.06892019758351124	1.2804525880607657e-69
0.06960939955934635	8.213999822147264e-69
0.07030549355493981	4.326113913385096e-68
0.07100854849048922	1.2065429815615383e-67
0.07171863397539412	7.58429173801867e-67
0.07243582031514804	4.3370215553334953e-66
0.07316017851829953	1.8691299849046985e-65
0.07389178030348253	6.4588567223316585e-65
0.07463069810651736	3.830596875704312e-64
0.07537700508758254	1.948564010274532e-63
0.07613077513845835	7.734532215380468e-63
0.07689208288984294	2.8113175758715417e-62
0.07766100371874136	2.2106604775554498e-45
0.07843761375592878	2.9786849980649817e-44
0.07922198989348807	1.016564196003874e-43
0.08001420979242296	2.318273772398739e-43
0.08081435189034718	8.458255976422209e-44
0.08162249540925066	1.7592069696306578e-40
0.08243872036334317	3.162653411817167e-39
0.08326310756697661	1.6184104489658725e-38
0.08409573864264637	3.8584593486434425e-38
0.08493669602907282	5.6507177465899486e-39
0.08578606298936356	6.7851938406958765e-40
0.0866439236192572	1.1720049177587105e-58
0.08751036285544977	4.604262539537563e-56
0.08838546648400426	4.825384778495033e-55
0.08926932114884432	1.482348941198411e-54
0.09016201436033276	9.286122524478091e-54
0.09106363450393609	5.293547446279106e-53
0.09197427084897544	1.7508050229585107e-52
0.0928940135574652	1.337139338308975e-52
0.09382295369303986	1.0941150155875808e-51
0.09476118322997025	4.358586150490773e-51
0.09570879506226997	4.420943257637631e-50
0.09666588301289265	6.037911042928511e-50
0.09763254184302157	1.7107507573718514e-49
0.09860886726145181	6.002894323481909e-47
0.09959495593406631	6.968449180372648e-46
0.10059090549340699	5.118423711271587e-46
0.10159681454834106	4.630135614380263e-47
0.10261278269382446	1.9725548346479793e-47
0.10363891052076271	7.401853440995676e-47
0.10467529962597034	2.880186948362917e-46
0.10572205262223004	1.097420345599324e-45
0.10677927314845236	6.644751056589857e-45
0.10784706587993687	2.385075196861061e-43
0.10892553653873624	2.165876993488475e-42
0.1100147919041236	4.2889840614919845e-43
0.11111493982316484	1.0918864562277195e-38
0.1122260892213965	2.879471927174807e-37
0.11334835011361045	1.3948708771340722e-36
0.11448183361474655	1.5949106396289116e-35
0.11562665195089401	1.1251182099486113e-34
0.11678291847040295	2.002427800004857e-34
0.117950747655107	1.2636603812793954e-33
0.11913025513165806	3.286121786005967e-33
0.12032155768297464	7.962424986484859e-33
0.1215247732598044	2.1761872814790792e-32
0.12274002099240244	1.0705680493481287e-31
0.12396742120232647	3.353382341803784e-31
0.12520709541434974	9.09739914730584e-31
0.12645916636849325	1.2132740666146491e-30
0.12772375803217817	6.165479675583481e-30
0.12900099561249995	1.7899856645788321e-29
0.13029100556862497	4.8825223272893854e-29
0.1315939156243112	1.3453242315622842e-28
0.1329098547805543	3.3348743630631795e-28
0.13423895332835986	8.78019136726377e-28
0.13558134286164344	2.2273879889406444e-27
0.1369371562902599	5.326962308369101e-27
0.1383065278531625	1.361444165758011e-26
0.13968959313169413	3.298160576642092e-26
0.14108648906301105	7.74180350983532e-26
0.1424973539536412	1.9205829235521263e-25
0.14392232749317757	4.391726735635211e-25
0.14536155076810936	1.0575579067503644e-24
0.14681516627579044	2.4041492669299166e-24
0.14828331793854838	5.581807506823229e-24
0.14976615111793384	1.2548369120828422e-23
0.15126381262911318	2.835685155340296e-23
0.15277645075540433	6.240863684455904e-23
0.15430421526295837	1.3889411260652818e-22
0.15584725741558797	2.9929723388480533e-22
0.15740572998974384	6.344646772064646e-22
0.15897978728964127	1.2813990009131201e-21
0.1605695851625377	2.81892875943574e-21
0.16217528101416306	5.1173660423112306e-21
0.16379703382430472	1.2554049394475974e-20
0.16543500416254772	2.6978921404972835e-20
0.16708935420417323	5.449174462117205e-20
0.16876024774621495	1.0979078188962792e-19
0.17044785022367712	2.2423277266522005e-19
0.17215232872591388	4.493277005850712e-19
0.173873852013173	8.918393701092407e-19
0.17561259053330475	1.7754631341998823e-18
0.1773687164386378	3.4779087991968225e-18
0.1791424036030242	6.69614995133961e-18
0.1809338276390544	1.2815997144143281e-17
0.18274316591544498	2.4667002249169022e-17
0.18457059757459943	4.71341065784746e-17
0.1864163035503454	8.526741338072691e-17
0.18828046658584888	1.645491622025756e-16
0.19016327125170737	3.060318629588659e-16
0.19206490396422443	5.605151135250854e-16
0.1939855530038667	1.0224899211768935e-15
0.19592540853390536	1.864365958445504e-15
0.19788466261924442	3.3801153165800224e-15
0.19986350924543686	6.083418313638218e-15
0.2018621443378912	1.0894208931116002e-14
0.20388076578127012	1.958696072836895e-14
0.20591957343908285	3.519132762028234e-14
0.20797876917347366	6.207668798166386e-14
0.21005855686520844	1.1204071573795473e-13
0.2121591424338605	1.8523705950596673e-13
0.21428073385819912	3.498632929063032e-13
0.21642354119678112	6.278490082187851e-13
0.2185877766087489	1.1080661942719233e-12
0.2207736543748364	1.9516850153466e-12
0.22298139091858477	3.3910995561397547e-12
0.2252112048277706	5.978659841794914e-12
0.22746331687604834	1.0406660853329944e-11
0.22973795004480882	1.7364281617722585e-11
0.23203532954525688	3.0910734271842003e-11
0.23435568284070946	5.354421000548729e-11
0.23669923966911657	9.048332370587244e-11
0.2390662320658077	1.5645547110744484e-10
0.2414568943864658	2.076189799787046e-10
0.2438714633303305	4.449602482187237e-10
0.24631017796363378	7.559699459559797e-10
0.24877327974327013	1.189310979172252e-09
0.2512610125407028	2.0615318564660586e-09
0.25377362266610987	3.47135276985238e-09
0.25631135889277096	5.724015971282832e-09
0.25887447248169865	9.430009092361968e-09
0.26146321720651566	1.5394526049400766e-08
0.2640778493785808	2.500164679283154e-08
0.2667186278723666	4.0377664549777175e-08
0.2693858141510903	6.490535197507762e-08
0.2720796722926012	1.0402921892355448e-07
0.27480046901552724	1.6572108361854093e-07
0.27754847370568253	2.6270549678153567e-07
0.28032395844273933	3.994026689517268e-07
0.28312719802716674	6.505245926865606e-07
0.2859584700074384	1.0127695829178422e-06
0.28881805470751276	1.5799781538457458e-06
0.2917062352545879	2.4458745391320874e-06
0.2946232976071338	3.7653561572272565e-06
0.2975695305832051	5.694500210064888e-06
0.30054522588903715	8.821995115989196e-06
0.3035506781479275	1.3411093491110899e-05
0.3065861849294068	2.0283911485305e-05
0.3096520467787009	3.068342334279874e-05
0.3127485672464879	4.60792597141898e-05
0.3158760529189528	6.775564690159524e-05
0.31903481344814233	0.00010308186489716395
0.3222251615826237	0.00015243070108481073
0.32544741319844994	0.00022578587643388664
0.3287018873304345	0.0003343825744894588
0.33198890620373883	0.0004931192250130559
0.3353087952657762	0.0007244393802344337
0.338661883218434	0.0010564776543796808
0.3420485020506183	0.0015213357219501767
0.34546898707112456	0.002199986637668481
0.3489236769418358	0.0032210826532445753
0.35241291371125416	0.0039988560227208845
0.3559370428483667	0.006585487184354989
0.3594964132768504	0.009379116872701687
0.3630913774096189	0.013485723399701811
0.3667222911837151	0.01910476781634882
0.37038951409555215	0.026945016319093264
0.37409340923650775	0.037836739146330796
0.37783434332887283	0.05295604665867965
0.38161268676216153	0.07376671182316123
0.38542881362978315	0.10229319876175433
0.389283101766081	0.14129509985066582
0.39317593278374185	0.19436943347121208
0.39710769211157926	0.2665138435139279
0.401078769032695	0.36256557765209946
0.405089556723022	0.49068916901329834
0.4091404522902522	0.6719867341646167
0.4132318568131547	0.9078101568036934
0.4173641753812863	1.2203456183238817
0.42153781713509914	1.6371409291341925
0.4257531953064501	2.169512576254386
0.43001072725951467	2.902467785307083
0.43431083453210984	3.843882454203602
0.43865394287743087	5.068979464464073
0.44304048230620524	6.659986869121988
0.44747088712926725	8.720943003243441
0.45194559600055995	11.37958909147698
0.4564650519605655	14.800265107596557
0.4610297024801712	19.17462166320858
0.4656399995049729	24.785298796635093
0.47029639950002267	31.913161450229797
0.47499936349502286	40.94891148954686
0.4797493571299731	52.36889914892295
0.48454685070127285	66.75235803907546
0.48939231920828563	84.79611572161083
0.4942862424003685	107.35878169585212
0.4992291048243721	135.46882594635377
0.5042213958726158	170.36670398989475
0.509263609831342	213.54732192226805
0.5143562459296555	266.8092477296905
0.519499808388952	332.2368415457402
0.5246948064728415	412.40373380307113
0.52994175453757	510.2218120933998
0.5352411720829456	629.2823381099938
0.5405935838037751	770.8847516289893
0.5459995196418129	947.3203093778574
0.551459514838231	1157.798945237686
0.5569741099866133	1410.0811422619674
0.5625438510864794	1711.6155644444518
0.5681692895973443	2070.2156387600076
0.5738509824933177	2492.441820022687
0.5795894923182509	2971.638309156871
0.5853853872414334	3298.728620008263
0.5912392411138477	3056.990856174123
0.5971516335249862	5048.964322627803
0.6031231498602361	6122.590478554145
0.6091543813588385	7309.97480256679
0.6152459251724268	8680.708725311033
0.6213983844241512	10269.795944896998
0.6276123682683926	12109.441249023503
0.6338884919510765	14242.173740920238
0.6402273768705874	16715.85419137578
0.6466296506392932	19551.968328195948
0.6530959471456862	22790.833407670052
0.6596269066171431	26497.24222365134
0.6662231756833145	30775.52087885884
0.6728854074401477	35539.12268019165
0.6796142615145492	41565.10632697299
0.6864104041296946	48285.897861616555
0.6932745081709915	56006.43558116262
0.7002072532527015	64833.43065514161
0.7072093257852285	74818.12357544234
0.7142814190430807	86023.94908584096
0.7214242332335116	98500.97894874956
0.7286384755658467	112372.94916529351
0.7359248603215052	127792.74942988814
0.7432841089247202	144912.16426113108
0.7507169500139675	163885.148444184
0.7582241195141072	184446.91380386025
0.7658063607092482	172843.62160949985
0.7734644243163408	228014.10641866163
0.781199068559504	253458.8385544509
0.7890110592450992	299012.8280625081
0.7969011698375502	334930.0799256961
0.8048701815359257	377061.69155602716
0.8129188833512849	421871.687538342
0.8210480721847978	471305.73131053743
0.8292585529066457	525107.5622092233
0.8375511384357123	583271.0990142154
0.8459266498200694	646337.7623250914
0.8543859163182701	713468.1468382959
0.8629297754814528	787308.1492400366
0.8715590732362674	865936.9521522663
0.8802746639686301	950479.8827944193
0.8890774106083162	1041383.3814651762
0.8979681847143995	1138208.0249023456
0.9069478665615435	1244242.5546086458
0.9160173452271589	1357292.1956932552
0.9251775186794305	1479167.2224855812
0.9344292938662249	1605903.1439511534
0.9437735868048871	1750789.883385736
0.953211322672936	1897539.8003047318
0.9627434358996654	2059011.7238011926
0.9723708702586621	2234072.337895126
0.9820945789612486	2417388.805931503
0.9919155247508612	2612625.9881161754
1.0018346799983697	2819453.383494116
1.0118530267983534	3037321.441428426
1.021971557066337	3267316.71957562
1.0321912726370004	3510182.395496072
1.0425131853633705	3767229.850421306
1.0529383172170041	4038639.901452879
1.0634677003891742	4325803.58067117
1.074102377393066	4629939.134546853
1.0848434011669965	4948160.002104599
1.0956918351786664	5278336.367056578
1.1066487535304532	5598627.521635358
1.1177152410657578	5931676.986719975
1.1288923934764155	6368979.796305507
1.1401813174111797	6799017.915240815
1.1515831305852913	7241868.92351034
1.1630989618911443	7692713.624177242
1.1747299515100555	8176291.042364027
1.1864772510251562	8684798.209671658
1.1983420235354079	9233367.52904324
1.210325443770762	9788901.614010274
