#wavelength	surface flux
0.01	7.426162559071949e-94
0.0101	7.939576266859637e-94
0.010201	8.458124111725206e-94
0.010303010000000001	8.981857435039436e-94
0.0104060401	9.510828091586793e-94
0.010510100501000002	1.0045088454699642e-93
0.01061520150601	1.0584691421443605e-93
0.010721353521070101	1.1129690417855017e-93
0.010828567056280802	1.1680139404230534e-93
0.010936852726843608	1.2236092880469801e-93
0.011046221254112046	1.2560299636948851e-93
0.011156683466653166	1.2560299636948851e-93
0.011268250301319697	1.2560299636948851e-93
0.011380932804332895	1.2560299636948851e-93
0.011494742132376225	1.2560299636948851e-93
0.011609689553699986	1.2560299636948851e-93
0.011725786449236988	1.2560299636948851e-93
0.011843044313729357	1.2560299636948851e-93
0.01196147475686665	1.2560299636948851e-93
0.012081089504435316	1.2560299636948851e-93
0.012201900399479671	1.2560299636948851e-93
0.012323919403474468	1.2560299636948851e-93
0.012447158597509212	1.2560299636948851e-93
0.012571630183484304	1.2560299636948851e-93
0.012697346485319148	1.2560299636948851e-93
0.012824319950172339	1.2560299636948851e-93
0.012952563149674063	1.2560299636948851e-93
0.013082088781170804	1.2560299636948851e-93
0.013212909668982512	1.2560299636948851e-93
0.013345038765672336	1.2560299636948851e-93
0.013478489153329061	1.2560299636948851e-93
0.013613274044862352	1.2560299636948851e-93
0.013749406785310975	1.2560299636948851e-93
0.013886900853164083	1.2560299636948851e-93
0.014025769861695726	1.2560299636948851e-93
0.014166027560312683	1.2560299636948851e-93
0.01430768783591581	1.2560299636948851e-93
0.014450764714274969	1.2560299636948851e-93
0.014595272361417718	1.2560299636948851e-93
0.014741225085031895	1.2560299636948851e-93
0.014888637335882214	1.2560299636948851e-93
0.015037523709241036	1.2560299636948851e-93
0.015187898946333447	1.2560299636948851e-93
0.015339777935796781	1.2560299636948851e-93
0.015493175715154751	1.2560299636948851e-93
0.015648107472306296	1.2560299636948851e-93
0.01580458854702936	1.2560299636948851e-93
0.015962634432499654	1.2560299636948851e-93
0.016122260776824653	1.2560299636948851e-93
0.016283483384592897	1.2560299636948851e-93
0.016446318218438827	1.2560299636948851e-93
0.016610781400623217	1.2560299636948851e-93
0.016776889214629446	1.2560299636948851e-93
0.016944658106775742	1.2560299636948851e-93
0.0171141046878435	1.2560299636948851e-93
0.017285245734721934	1.2560299636948851e-93
0.017458098192069154	1.2560299636948851e-93
0.017632679173989845	1.2560299636948851e-93
0.017809005965729745	1.2560299636948851e-93
0.01798709602538704	1.2560299636948851e-93
0.018166966985640912	1.2560299636948851e-93
0.01834863665549732	1.2560299636948851e-93
0.018532123022052295	1.2560299636948851e-93
0.01871744425227282	1.2560299636948851e-93
0.01890461869479555	1.2560299636948851e-93
0.0190936648817435	1.2560299636948851e-93
0.019284601530560937	1.2560299636948851e-93
0.01947744754586655	1.2560299636948851e-93
0.019672222021325212	1.2560299636948851e-93
0.019868944241538466	1.2560299636948851e-93
0.020067633683953853	1.2560299636948851e-93
0.02026831002079339	1.2560299636948851e-93
0.020470993121001323	1.2560299636948851e-93
0.020675703052211336	1.2560299636948851e-93
0.02088246008273345	1.2560299636948851e-93
0.021091284683560786	1.2560299636948851e-93
0.021302197530396395	1.2560299636948851e-93
0.02151521950570036	1.2560299636948851e-93
0.02173037170075736	1.2560299636948851e-93
0.02194767541776493	1.2560299636948851e-93
0.022167152171942584	1.2560299636948851e-93
0.022388823693662012	1.2560299636948851e-93
0.02261271193059863	1.2560299636948851e-93
0.022838839049904615	1.2560299636948851e-93
0.023067227440403664	1.2560299636948851e-93
0.0232978997148077	1.2560299636948851e-93
0.023530878711955777	1.2560299636948851e-93
0.023766187499075334	1.2560299636948851e-93
0.024003849374066088	1.2560299636948851e-93
0.02424388786780675	1.2560299636948851e-93
0.024486326746484814	1.2560299636948851e-93
0.024731190013949664	1.2560299636948851e-93
0.024978501914089166	1.2560299636948851e-93
0.025228286933230055	1.2560299636948851e-93
0.02548056980256236	1.2560299636948851e-93
0.025735375500587982	1.2560299636948851e-93
0.025992729255593858	1.2560299636948851e-93
0.0262526565481498	1.2560299636948851e-93
0.026515183113631293	1.2560299636948851e-93
0.02678033494476761	1.2560299636948851e-93
0.027048138294215287	1.2560299636948851e-93
0.02731861967715744	1.2560299636948851e-93
0.027591805873929013	1.2560299636948851e-93
0.027867723932668304	1.2560299636948851e-93
0.02814640117199499	1.2560299636948851e-93
0.028427865183714936	1.2560299636948851e-93
0.02871214383555209	1.2560299636948851e-93
0.028999265273907608	1.2560299636948851e-93
0.029289257926646682	1.2560299636948851e-93
0.029582150505913153	1.2560299636948851e-93
0.02987797201097228	1.2560299636948851e-93
0.030176751731082006	1.2560299636948851e-93
0.030478519248392826	1.2560299636948851e-93
0.030783304440876753	1.2560299636948851e-93
0.031091137485285525	1.2560299636948851e-93
0.03140204886013838	1.2560299636948851e-93
0.03171606934873976	1.2560299636948851e-93
0.03203323004222716	1.2560299636948851e-93
0.03235356234264943	1.2560299636948851e-93
0.03267709796607593	1.2560299636948851e-93
0.03300386894573669	1.2560299636948851e-93
0.03333390763519405	1.2560299636948851e-93
0.033667246711545994	1.2560299636948851e-93
0.034003919178661454	1.2560299636948851e-93
0.03434395837044807	1.2560299636948851e-93
0.03468739795415255	1.2560299636948851e-93
0.03503427193369407	1.2560299636948851e-93
0.03538461465303102	1.2560299636948851e-93
0.03573846079956133	1.2560299636948851e-93
0.03609584540755694	1.2560299636948851e-93
0.03645680386163251	1.2560299636948851e-93
0.03682137190024883	1.2560299636948851e-93
0.03718958561925133	1.2560299636948851e-93
0.03756148147544384	1.2560299636948851e-93
0.03793709629019828	1.2560299636948851e-93
0.03831646725310026	1.2560299636948851e-93
0.038699631925631264	1.2560299636948851e-93
0.039086628244887574	1.2560299636948851e-93
0.039477494527336454	1.2560299636948851e-93
0.03987226947260982	1.2560299636948851e-93
0.04027099216733592	1.2560299636948851e-93
0.04067370208900927	1.2560299636948851e-93
0.04108043910989937	1.2560299636948851e-93
0.04149124350099836	1.2560299636948851e-93
0.04190615593600835	1.2560299636948851e-93
0.042325217495368425	1.2560299636948851e-93
0.04274846967032212	1.2560299636948851e-93
0.043175954367025336	1.2560299636948851e-93
0.04360771391069559	1.2560299636948851e-93
0.04404379104980254	1.2560299636948851e-93
0.04448422896030057	1.2560299636948851e-93
0.04492907124990358	1.2560299636948851e-93
0.04537836196240262	1.2560299636948851e-93
0.04583214558202665	1.2560299636948851e-93
0.04629046703784691	1.2560299636948851e-93
0.046753371708225376	1.2560299636948851e-93
0.04722090542530763	1.2560299636948851e-93
0.047693114479560705	1.2560299636948851e-93
0.04817004562435631	1.2560299636948851e-93
0.04865174608059988	1.2560299636948851e-93
0.04913826354140587	1.2560299636948851e-93
0.04962964617681994	1.2560299636948851e-93
0.05012594263858814	1.2560299636948851e-93
0.05062720206497402	1.2560299636948851e-93
0.05113347408562376	1.2560299636948851e-93
0.051644808826479996	1.2560299636948851e-93
0.0521612569147448	1.2560299636948851e-93
0.052682869483892246	1.2560299636948851e-93
0.05320969817873117	1.2560299636948851e-93
0.05374179516051848	1.2560299636948851e-93
0.054279213112123664	1.2560299636948851e-93
0.0548220052432449	1.2560299636948851e-93
0.05537022529567735	1.2560299636948851e-93
0.05592392754863413	1.2560299636948851e-93
0.056483166824120475	1.468650081237996e-93
0.057047998492361675	2.0992915560059415e-93
0.057618478477285295	6.8915488373157556e-93
0.05819466326205815	1.4681033399678322e-90
0.05877660989467873	5.826820918759971e-90
0.05936437599362551	6.762234944726219e-88
0.05995801975356178	1.765712218335331e-87
0.06055759995109739	3.2947428538536944e-86
0.06116317595060837	1.7809587358282562e-85
0.061774807710114454	6.296530325374723e-85
0.062392555787215594	4.6911765896071e-84
0.06301648134508775	1.293313093921761e-83
0.06364664615853863	9.760014574525882e-83
0.06428311262012401	6.094001675631458e-82
0.06492594374632525	1.6636881371967842e-81
0.06557520318378851	1.3046542422703712e-80
0.0662309552156264	7.254993724990993e-80
0.06689326476778266	2.193377966347408e-79
0.06756219741546049	1.6012039321048524e-78
0.0682378193896151	8.616837751842651e-78
0.06892019758351124	2.5712054720280167e-77
0.06960939955934635	1.7928399519528773e-76
0.07030549355493981	9.891970622791288e-76
0.07100854849048922	2.7932705766440827e-75
0.07171863397539412	1.805146503096842e-74
0.07243582031514804	1.049354384175395e-73
0.07316017851829953	4.5625073943257633e-73
0.07389178030348253	1.5828884696879118e-72
0.07463069810651736	9.469617002477637e-72
0.07537700508758254	4.858900344455686e-71
0.07613077513845835	1.9453736277710765e-70
0.07689208288984294	7.113363509187042e-70
0.07766100371874136	9.04736365483408e-50
0.07843761375592878	3.21318351071493e-46
0.07922198989348807	3.0397194663963013e-45
0.08001420979242296	1.1260741721572517e-44
0.08081435189034718	1.916703064262873e-44
0.08162249540925066	1.241593999527557e-43
0.08243872036334317	7.255996493355312e-43
0.08326310756697661	2.1680986805858162e-42
0.08409573864264637	3.898058860150505e-42
0.08493669602907282	5.6716561042651445e-43
0.08578606298936356	6.769588327910708e-44
0.0866439236192572	6.103770169868684e-67
0.08751036285544977	4.006459173223035e-64
0.08838546648400426	4.211592066345068e-63
0.08926932114884432	2.5796955254269216e-62
0.09016201436033276	2.676338712131905e-61
0.09106363450393609	1.5478560832261862e-60
0.09197427084897544	5.205502536338123e-60
0.0928940135574652	3.922356766831547e-60
0.09382295369303986	3.2581243759069377e-59
0.09476118322997025	3.217596547807394e-58
0.09570879506226997	3.4148810409646446e-57
0.09666588301289265	3.4914941312200956e-57
0.09763254184302157	1.1681333375613377e-56
0.09860886726145181	3.368515954078368e-53
0.09959495593406631	3.9181451313186736e-52
0.10059090549340699	2.872872835128415e-52
0.10159681454834106	2.319989945335876e-53
0.10261278269382446	1.9465681383610643e-54
0.10363891052076271	8.425663174708498e-54
0.10467529962597034	3.822065430018331e-53
0.10572205262223004	1.6930025565198213e-52
0.10677927314845236	3.684859027068737e-51
0.10784706587993687	1.9599874536425898e-48
0.10892553653873624	2.0686258007863944e-47
0.1100147919041236	2.2771959808254113e-48
0.11111493982316484	3.8207406678720085e-43
0.1122260892213965	1.0330982968915412e-41
0.11334835011361045	5.682084168810718e-41
0.11448183361474655	5.037477755699621e-40
0.11562665195089401	2.673422464159343e-39
0.11678291847040295	6.86699027350695e-39
0.117950747655107	3.092340625109379e-38
0.11913025513165806	7.54149229806818e-38
0.12032155768297464	2.5158255860875733e-37
0.1215247732598044	1.0493795925423806e-36
0.12274002099240244	3.723657870641276e-36
0.12396742120232647	1.1399172635598158e-35
0.12520709541434974	3.4306836644139974e-35
0.12645916636849325	5.093638651108396e-35
0.12772375803217817	2.8995111765272386e-34
0.12900099561249995	9.134511326430533e-34
0.13029100556862497	2.82404992455283e-33
0.1315939156243112	8.410305576047163e-33
0.1329098547805543	2.278702476954564e-32
0.13423895332835986	6.662950768464182e-32
0.13558134286164344	1.8630950616827263e-31
0.1369371562902599	4.8594121933768995e-31
0.1383065278531625	1.3788948744660254e-30
0.13968959313169413	3.658751346767966e-30
0.14108648906301105	9.409734011225964e-30
0.1424973539536412	2.5678364893675417e-29
0.14392232749317757	6.392988852401619e-29
0.14536155076810936	1.70183552568742e-28
0.14681516627579044	4.213940204886903e-28
0.14828331793854838	1.0743844873638707e-27
0.14976615111793384	2.633427101988816e-27
0.15126381262911318	6.526957431697022e-27
0.15277645075540433	1.5658951940467984e-26
0.15430421526295837	3.8114676763473876e-26
0.15584725741558797	8.911925392907951e-26
0.15740572998974384	2.1393147586963656e-25
0.15897978728964127	4.825932026139954e-25
0.1605695851625377	1.1459628704835787e-24
0.16217528101416306	2.5821129137729716e-24
0.16379703382430472	5.855243976863099e-24
0.16543500416254772	1.3364175787333004e-23
0.16708935420417323	2.917099989565613e-23
0.16876024774621495	6.477735674606478e-23
0.17044785022367712	1.4244431687978087e-22
0.17215232872591388	3.0414418580227523e-22
0.173873852013173	6.518766462686497e-22
0.17561259053330475	1.4009224439743042e-21
0.1773687164386378	2.956118154481331e-21
0.1791424036030242	6.114933082089161e-21
0.1809338276390544	1.2604256572366713e-20
0.18274316591544498	2.612678820363298e-20
0.18457059757459943	5.3495562170541505e-20
0.1864163035503454	1.0498072191108732e-19
0.18828046658584888	2.1524992496615602e-19
0.19016327125170737	4.2737750260309986e-19
0.19206490396422443	8.363893241731243e-19
0.1939855530038667	1.628574645161498e-18
0.19592540853390536	3.1711586501769173e-18
0.19788466261924442	6.136243458238429e-18
0.19986350924543686	1.175211391629352e-17
0.2018621443378912	2.2312219140680267e-17
0.20388076578127012	4.264248895132619e-17
0.20591957343908285	8.136171579648958e-17
0.20797876917347366	1.529052786728842e-16
0.21005855686520844	2.918344669891706e-16
0.2121591424338605	5.11660759052324e-16
0.21428073385819912	1.0361221408158944e-15
0.21642354119678112	1.941157573611541e-15
0.2185877766087489	3.621825681852073e-15
0.2207736543748364	6.735412712056388e-15
0.22298139091858477	1.2467758337531445e-14
0.2252112048277706	2.3017237736359904e-14
0.22746331687604834	4.228443298558787e-14
0.22973795004480882	7.716429455402415e-14
0.23203532954525688	1.4085975954441709e-13
0.23435568284070946	2.5555033575187843e-13
0.23669923966911657	4.532276254895017e-13
0.2390662320658077	8.273667116816043e-13
0.2414568943864658	1.1758570520803375e-12
0.2438714633303305	2.6232285951898853e-12
0.24631017796363378	4.6392902990297215e-12
0.24877327974327013	7.743163687355374e-12
0.2512610125407028	1.4196450516855713e-11
0.25377362266610987	2.4737045766182557e-11
0.25631135889277096	4.2772604411795766e-11
0.25887447248169865	7.354602386516157e-11
0.26146321720651566	1.257459018081369e-10
0.2640778493785808	2.137991343217806e-10
0.2667186278723666	3.615109978042979e-10
0.2693858141510903	6.080674270461035e-10
0.2720796722926012	1.0172255220861643e-09
0.27480046901552724	1.6923783492981e-09
0.27754847370568253	2.8010550533738802e-09
0.28032395844273933	4.605987608090102e-09
0.28312719802716674	7.54784304337078e-09
0.2859584700074384	1.2288971589984812e-08
0.28881805470751276	1.990729142116001e-08
0.2917062352545879	3.209107478234884e-08
0.2946232976071338	5.145156802978825e-08
0.2975695305832051	8.089055619952648e-08
0.30054522588903715	1.3034595791162262e-07
0.3035506781479275	2.061486338940071e-07
0.3065861849294068	3.242187941009424e-07
0.3096520467787009	5.081029159680014e-07
0.3127485672464879	7.923428834214655e-07
0.3158760529189528	1.212573381973147e-06
0.31903481344814233	1.9032284702094405e-06
0.3222251615826237	2.929419893883131e-06
0.32544741319844994	4.495791236686703e-06
0.3287018873304345	6.870890907631526e-06
0.33198890620373883	1.0463446149947306e-05
0.3353087952657762	1.5869561026205107e-05
0.338661883218434	2.3949285265295368e-05
0.3420485020506183	3.5930335899319315e-05
0.34546898707112456	5.3892418809133076e-05
0.3489236769418358	8.035514746752167e-05
0.35241291371125416	0.00010695945783723846
0.3559370428483667	0.0001754629274564488
0.3594964132768504	0.0002588497485062287
0.3630913774096189	0.000379073850594796
0.3667222911837151	0.0005526690462647377
0.37038951409555215	0.0008020720572778499
0.37409340923650775	0.0011592506574552817
0.37783434332887283	0.0016680362165629975
0.38161268676216153	0.0023891498352851172
0.38542881362978315	0.00340685055623094
0.389283101766081	0.004837008034354109
0.39317593278374185	0.006836687517329534
0.39710769211157926	0.009628627793420733
0.401078769032695	0.013489996958078697
0.405089556723022	0.018864387408157452
0.4091404522902522	0.026265698835534076
0.4132318568131547	0.03641406730700774
0.4173641753812863	0.05027210515397898
0.42153781713509914	0.06910998902514447
0.4257531953064501	0.09450326891262784
0.43001072725951467	0.12895008060277371
0.43431083453210984	0.17507498651541406
0.43865394287743087	0.23674366961912144
0.44304048230620524	0.31896290582588804
0.44747088712926725	0.4281617268410959
0.45194559600055995	0.5726725993952211
0.4564650519605655	0.7633053595343589
0.4610297024801712	1.0137447607506975
0.4656399995049729	1.3418691435135262
0.47029639950002267	1.7696097643977757
0.47499936349502286	2.325739610147908
0.4797493571299731	3.045782621478702
0.48454685070127285	3.9748291097872572
0.48939231920828563	5.169247352892435
0.4942862424003685	6.69940911466058
0.4992291048243721	8.653044031561711
0.5042213958726158	11.137772299173786
0.509263609831342	14.287701506170203
0.5143562459296555	18.26566847166599
0.519499808388952	23.2744416649802
0.5246948064728415	29.558933094594433
0.52994175453757	37.41414411526063
0.5352411720829456	47.20408403950523
0.5405935838037751	59.35813536168213
0.5459995196418129	74.4060564180599
0.551459514838231	92.98641748387885
0.5569741099866133	115.83047486288913
0.5625438510864794	143.83342883663272
0.5681692895973443	178.0559874362919
0.5738509824933177	219.71583194381162
0.5795894923182509	270.25223591899487
0.5853853872414334	330.38460669538875
0.5912392411138477	372.7480012114916
0.5971516335249862	494.7651798920526
0.6031231498602361	602.5298487745895
0.6091543813588385	731.5674790695778
0.6152459251724268	885.716609812934
0.6213983844241512	1069.1613978086575
0.6276123682683926	1286.5892231033456
0.6338884919510765	1544.0671553391585
0.6402273768705874	1848.1464645709252
0.6466296506392932	2205.4961638278787
0.6530959471456862	2623.282559925007
0.6596269066171431	3112.067305841101
0.6662231756833145	3687.7061131669084
0.6728854074401477	4370.0659682352925
0.6796142615145492	5180.9652703811735
0.6864104041296946	6135.991806125382
0.6932745081709915	7254.948449857307
0.7002072532527015	8558.658804440121
0.7072093257852285	10063.436975421835
0.7142814190430807	11789.009175263263
0.7214242332335116	13755.362490024436
0.7286384755658467	15986.750249846851
0.7359248603215052	18523.18135574619
0.7432841089247202	21403.292119894388
0.7507169500139675	24673.094195179874
0.7582241195141072	28389.993178550965
0.7658063607092482	31955.897393417865
0.7734644243163408	37405.06538609263
0.781199068559504	42777.02471541393
0.7890110592450992	49219.18236383659
0.7969011698375502	56256.980318634494
0.8048701815359257	64182.99261579098
0.8129188833512849	73017.74527103246
0.8210480721847978	82953.88195074319
0.8292585529066457	94011.14649061901
0.8375511384357123	106186.64405881862
0.8459266498200694	119673.31704245228
0.8543859163182701	134471.67852277792
0.8629297754814528	150734.7628930466
0.8715590732362674	168556.5177728243
0.8802746639686301	188075.40402117063
0.8890774106083162	209425.89933790156
0.8979681847143995	232530.82388816818
0.9069478665615435	258430.8400509614
0.9160173452271589	286383.19321998983
0.9251775186794305	317039.02172558475
0.9344292938662249	349215.95545362006
0.9437735868048871	387031.17769321817
0.953211322672936	425164.71416440373
0.9627434358996654	469003.5646722881
0.9723708702586621	516443.71664663317
0.9820945789612486	567488.1983417104
0.9919155247508612	622266.6055485238
1.0018346799983697	681283.6209903698
1.0118530267983534	744378.8103560974
1.021971557066337	812381.092821983
1.0321912726370004	885119.9472038496
1.0425131853633705	963101.6845952008
1.0529383172170041	1046807.6270654825
1.0634677003891742	1136586.4109721405
1.074102377393066	1232368.2275601039
1.0848434011669965	1335094.6434344903
1.0956918351786664	1443847.305893166
1.1066487535304532	1544857.3990921564
1.1177152410657578	1667933.6745674824
1.1288923934764155	1809988.314370931
1.1401813174111797	1957343.3232193699
1.1515831305852913	2111776.1225938583
1.1630989618911443	2273258.850337582
1.1747299515100555	2445355.2261538766
1.1864772510251562	2625068.528973081
