#wavelength	surface flux
0.01	7.426162559071949e-94
0.0101	7.939576266859637e-94
0.010201	8.458124111725206e-94
0.010303010000000001	8.981857435039436e-94
0.0104060401	9.510828091586793e-94
0.010510100501000002	1.0045088454699642e-93
0.01061520150601	1.0584691421443605e-93
0.010721353521070101	1.1129690417855017e-93
0.010828567056280802	1.1680139404230534e-93
0.010936852726843608	1.2236092880469801e-93
0.011046221254112046	1.2560299636948851e-93
0.011156683466653166	1.2560299636948851e-93
0.011268250301319697	1.2560299636948851e-93
0.011380932804332895	1.2560299636948851e-93
0.011494742132376225	1.2560299636948851e-93
0.011609689553699986	1.2560299636948851e-93
0.011725786449236988	1.2560299636948851e-93
0.011843044313729357	1.2560299636948851e-93
0.01196147475686665	1.2560299636948851e-93
0.012081089504435316	1.2560299636948851e-93
0.012201900399479671	1.2560299636948851e-93
0.012323919403474468	1.2560299636948851e-93
0.012447158597509212	1.2560299636948851e-93
0.012571630183484304	1.2560299636948851e-93
0.012697346485319148	1.2560299636948851e-93
0.012824319950172339	1.2560299636948851e-93
0.012952563149674063	1.2560299636948851e-93
0.013082088781170804	1.2560299636948851e-93
0.013212909668982512	1.2560299636948851e-93
0.013345038765672336	1.2560299636948851e-93
0.013478489153329061	1.2560299636948851e-93
0.013613274044862352	1.2560299636948851e-93
0.013749406785310975	1.2560299636948851e-93
0.013886900853164083	1.2560299636948851e-93
0.014025769861695726	1.2560299636948851e-93
0.014166027560312683	1.2560299636948851e-93
0.01430768783591581	1.2560299636948851e-93
0.014450764714274969	1.2560299636948851e-93
0.014595272361417718	1.2560299636948851e-93
0.014741225085031895	1.2560299636948851e-93
0.014888637335882214	1.2560299636948851e-93
0.015037523709241036	1.2560299636948851e-93
0.015187898946333447	1.2560299636948851e-93
0.015339777935796781	1.2560299636948851e-93
0.015493175715154751	1.2560299636948851e-93
0.015648107472306296	1.2560299636948851e-93
0.01580458854702936	1.2560299636948851e-93
0.015962634432499654	1.2560299636948851e-93
0.016122260776824653	1.2560299636948851e-93
0.016283483384592897	1.2560299636948851e-93
0.016446318218438827	1.2560299636948851e-93
0.016610781400623217	1.2560299636948851e-93
0.016776889214629446	1.2560299636948851e-93
0.016944658106775742	1.2560299636948851e-93
0.0171141046878435	1.2560299636948851e-93
0.017285245734721934	1.2560299636948851e-93
0.017458098192069154	1.2560299636948851e-93
0.017632679173989845	1.2560299636948851e-93
0.017809005965729745	1.2560299636948851e-93
0.01798709602538704	1.2560299636948851e-93
0.018166966985640912	1.2560299636948851e-93
0.01834863665549732	1.2560299636948851e-93
0.018532123022052295	1.2560299636948851e-93
0.01871744425227282	1.2560299636948851e-93
0.01890461869479555	1.2560299636948851e-93
0.0190936648817435	1.2560299636948851e-93
0.019284601530560937	1.2560299636948851e-93
0.01947744754586655	1.2560299636948851e-93
0.019672222021325212	1.2560299636948851e-93
0.019868944241538466	1.2560299636948851e-93
0.020067633683953853	1.2560299636948851e-93
0.02026831002079339	1.2560299636948851e-93
0.020470993121001323	1.2560299636948851e-93
0.020675703052211336	1.2560299636948851e-93
0.02088246008273345	1.2560299636948851e-93
0.021091284683560786	1.2560299636948851e-93
0.021302197530396395	1.2560299636948851e-93
0.02151521950570036	1.2560299636948851e-93
0.02173037170075736	1.2560299636948851e-93
0.02194767541776493	1.2560299636948851e-93
0.022167152171942584	1.2560299636948851e-93
0.022388823693662012	1.2560299636948851e-93
0.02261271193059863	1.2560299636948851e-93
0.022838839049904615	1.2560299636948851e-93
0.023067227440403664	1.2560299636948851e-93
0.0232978997148077	1.2560299636948851e-93
0.023530878711955777	1.2560299636948851e-93
0.023766187499075334	1.2560299636948851e-93
0.024003849374066088	1.2560299636948851e-93
0.02424388786780675	1.2560299636948851e-93
0.024486326746484814	1.2560299636948851e-93
0.024731190013949664	1.2560299636948851e-93
0.024978501914089166	1.2560299636948851e-93
0.025228286933230055	1.2560299636948851e-93
0.02548056980256236	1.2560299636948851e-93
0.025735375500587982	1.2560299636948851e-93
0.025992729255593858	1.2560299636948851e-93
0.0262526565481498	1.2560299636948851e-93
0.026515183113631293	1.2560299636948851e-93
0.02678033494476761	1.2560299636948851e-93
0.027048138294215287	1.2560299636948851e-93
0.02731861967715744	1.2560299636948851e-93
0.027591805873929013	1.2560299636948851e-93
0.027867723932668304	1.2560299636948851e-93
0.02814640117199499	1.2560299636948851e-93
0.028427865183714936	1.2560299636948851e-93
0.02871214383555209	1.2560299636948851e-93
0.028999265273907608	1.2560299636948851e-93
0.029289257926646682	1.2560299636948851e-93
0.029582150505913153	1.2560299636948851e-93
0.02987797201097228	1.2560299636948851e-93
0.030176751731082006	1.2560299636948851e-93
0.030478519248392826	1.2560299636948851e-93
0.030783304440876753	1.2560299636948851e-93
0.031091137485285525	1.2560299636948851e-93
0.03140204886013838	1.2560299636948851e-93
0.03171606934873976	1.2560299636948851e-93
0.03203323004222716	1.2560299636948851e-93
0.03235356234264943	1.2560299636948851e-93
0.03267709796607593	1.2560299636948851e-93
0.03300386894573669	1.2560299636948851e-93
0.03333390763519405	1.2560299636948851e-93
0.033667246711545994	1.2560299636948851e-93
0.034003919178661454	1.2560299636948851e-93
0.03434395837044807	1.2560299636948851e-93
0.03468739795415255	1.2560299636948851e-93
0.03503427193369407	1.2560299636948851e-93
0.03538461465303102	1.2560299636948851e-93
0.03573846079956133	1.2560299636948851e-93
0.03609584540755694	1.2560299636948851e-93
0.03645680386163251	1.2560299636948851e-93
0.03682137190024883	1.2560299636948851e-93
0.03718958561925133	1.2560299636948851e-93
0.03756148147544384	1.2560299636948851e-93
0.03793709629019828	1.2560299636948851e-93
0.03831646725310026	1.2560299636948851e-93
0.038699631925631264	1.2560299636948851e-93
0.039086628244887574	1.2560299636948851e-93
0.039477494527336454	1.2560299636948851e-93
0.03987226947260982	1.2560299636948851e-93
0.04027099216733592	1.2560299636948851e-93
0.04067370208900927	1.2560299636948851e-93
0.04108043910989937	1.2560299636948851e-93
0.04149124350099836	1.2560299636948851e-93
0.04190615593600835	1.2560299636948851e-93
0.042325217495368425	1.2560299636948851e-93
0.04274846967032212	1.2560299636948851e-93
0.043175954367025336	1.2560299636948851e-93
0.04360771391069559	1.2560299636948851e-93
0.04404379104980254	1.2560299636948851e-93
0.04448422896030057	1.2560299636948851e-93
0.04492907124990358	1.2560299636948851e-93
0.04537836196240262	1.2560299636948851e-93
0.04583214558202665	1.2560299636948851e-93
0.04629046703784691	1.2560299636948851e-93
0.046753371708225376	1.2560299636948851e-93
0.04722090542530763	1.2560299636948851e-93
0.047693114479560705	1.2560299636948851e-93
0.04817004562435631	1.2560299636948851e-93
0.04865174608059988	1.2560299636948851e-93
0.04913826354140587	1.2560299636948851e-93
0.04962964617681994	1.2560299636948851e-93
0.05012594263858814	1.2560299636948851e-93
0.05062720206497402	1.2560299636948851e-93
0.05113347408562376	1.2560299636948851e-93
0.051644808826479996	1.2560299636948851e-93
0.0521612569147448	1.2560299636948851e-93
0.052682869483892246	1.2560299636948851e-93
0.05320969817873117	1.2560299636948851e-93
0.05374179516051848	1.2560299636948851e-93
0.054279213112123664	1.2560299636948851e-93
0.0548220052432449	1.2560299636948851e-93
0.05537022529567735	1.2560299636948851e-93
0.05592392754863413	1.2560299636948851e-93
0.056483166824120475	1.2560299636948851e-93
0.057047998492361675	1.2560299636948851e-93
0.057618478477285295	1.2560299636948851e-93
0.05819466326205815	1.2560299636948851e-93
0.05877660989467873	1.2560299636948851e-93
0.05936437599362551	1.2560299636948851e-93
0.05995801975356178	1.2560299636948851e-93
0.06055759995109739	1.2560299636948851e-93
0.06116317595060837	1.2560299636948851e-93
0.061774807710114454	1.2560299636948851e-93
0.062392555787215594	1.2560299636948851e-93
0.06301648134508775	1.2560299636948851e-93
0.06364664615853863	1.2560299636948851e-93
0.06428311262012401	1.2560299636948851e-93
0.06492594374632525	1.2560299636948851e-93
0.06557520318378851	1.2560299636948851e-93
0.0662309552156264	1.2560299636948851e-93
0.06689326476778266	1.2560299636948851e-93
0.06756219741546049	1.2560299636948851e-93
0.0682378193896151	1.2560299636948851e-93
0.06892019758351124	1.2560299636948851e-93
0.06960939955934635	1.2560299636948851e-93
0.07030549355493981	1.2560299636948851e-93
0.07100854849048922	1.2560299636948851e-93
0.07171863397539412	1.2560299636948851e-93
0.07243582031514804	1.2560299636948851e-93
0.07316017851829953	1.2560299636948851e-93
0.07389178030348253	1.2560299636948851e-93
0.07463069810651736	1.2560299636948851e-93
0.07537700508758254	1.2560299636948851e-93
0.07613077513845835	1.2560299636948851e-93
0.07689208288984294	1.2560299636948851e-93
0.07766100371874136	1.2754434991410873e-93
0.07843761375592878	1.4538923925894258e-93
0.07922198989348807	1.5851036411206932e-93
0.08001420979242296	1.2856477340582514e-93
0.08081435189034718	1.261607705325739e-93
0.08162249540925066	1.1031545834133631e-86
0.08243872036334317	7.482455691218274e-81
0.08326310756697661	7.421849850649318e-80
0.08409573864264637	2.135760254663845e-79
0.08493669602907282	3.1386156983884957e-80
0.08578606298936356	3.780613311777769e-81
0.0866439236192572	1.2560299636948851e-93
0.08751036285544977	1.2560299636948851e-93
0.08838546648400426	1.2560299636948851e-93
0.08926932114884432	1.2560299636948851e-93
0.09016201436033276	1.2560299636948851e-93
0.09106363450393609	1.2560299636948851e-93
0.09197427084897544	1.2560299636948851e-93
0.0928940135574652	1.2560299636948851e-93
0.09382295369303986	1.2560299636948851e-93
0.09476118322997025	1.2560299636948851e-93
0.09570879506226997	1.2560299636948851e-93
0.09666588301289265	1.2560299636948851e-93
0.09763254184302157	1.2560299636948851e-93
0.09860886726145181	1.1948601258873534e-84
0.09959495593406631	1.3901876289699061e-83
0.10059090549340699	1.0190275868360595e-83
0.10159681454834106	8.036595800432061e-85
0.10261278269382446	1.2560299636948851e-93
0.10363891052076271	1.2560299636948851e-93
0.10467529962597034	1.2560299636948851e-93
0.10572205262223004	1.2560299636948851e-93
0.10677927314845236	1.2560299636948851e-93
0.10784706587993687	1.2560299636948851e-93
0.10892553653873624	1.2560299636948851e-93
0.1100147919041236	1.2560299636948851e-93
0.11111493982316484	1.2560299636948851e-93
0.1122260892213965	1.2560299636948851e-93
0.11334835011361045	1.2560299636948851e-93
0.11448183361474655	3.4340035523573613e-87
0.11562665195089401	4.331727561851148e-86
0.11678291847040295	1.976557172470866e-86
0.117950747655107	3.5742151870169987e-88
0.11913025513165806	1.2560299636948851e-93
0.12032155768297464	1.2560299636948851e-93
0.1215247732598044	1.2560299636948851e-93
0.12274002099240244	1.2560299636948851e-93
0.12396742120232647	1.2560299636948851e-93
0.12520709541434974	1.2560299636948851e-93
0.12645916636849325	1.2560299636948851e-93
0.12772375803217817	1.2560299636948851e-93
0.12900099561249995	1.2560299636948851e-93
0.13029100556862497	4.367723563810144e-90
0.1315939156243112	7.535825140721939e-89
0.1329098547805543	2.4355343801923503e-89
0.13423895332835986	1.2619943498832019e-93
0.13558134286164344	1.290924429489512e-93
0.1369371562902599	1.4354228793898203e-93
0.1383065278531625	3.017448509699634e-93
0.13968959313169413	1.2893849190441076e-92
0.14108648906301105	7.781952113164786e-92
0.1424973539536412	6.695488773540105e-91
0.14392232749317757	4.625889639659771e-90
0.14536155076810936	5.283663473397518e-89
0.14681516627579044	4.113949799299982e-88
0.14828331793854838	4.157973217035034e-87
0.14976615111793384	3.1928542619406394e-86
0.15126381262911318	2.8730697203749387e-85
0.15277645075540433	2.068400334717987e-84
0.15430421526295837	1.7938610109438654e-83
0.15584725741558797	1.2401664001881296e-82
0.15740572998974384	1.0539330146496082e-81
0.15897978728964127	6.274182161257478e-81
0.1605695851625377	5.306205208729477e-80
0.16217528101416306	3.452989967917361e-79
0.16379703382430472	2.1651429342736976e-78
0.16543500416254772	1.4468499482901877e-77
0.16708935420417323	8.092204506018079e-77
0.16876024774621495	4.9814530720560845e-76
0.17044785022367712	3.089344901821231e-75
0.17215232872591388	1.7119943134379499e-74
0.173873852013173	9.466053386071567e-74
0.17561259053330475	5.640319917439952e-73
0.1773687164386378	3.172881495687251e-72
0.1791424036030242	1.6525213984561463e-71
0.1809338276390544	8.444898606700551e-71
0.18274316591544498	4.6598572173341305e-70
0.18457059757459943	2.465376728136202e-69
0.1864163035503454	1.2553408705088516e-68
0.18828046658584888	6.150622131765404e-68
0.19016327125170737	2.8993762439605004e-67
0.19206490396422443	1.3288514227475227e-66
0.1939855530038667	6.053304094941781e-66
0.19592540853390536	2.8224970022539862e-65
0.19788466261924442	1.2976565175290156e-64
0.19986350924543686	5.744779922886607e-64
0.2018621443378912	2.5183583275545645e-63
0.20388076578127012	1.1568778358469848e-62
0.20591957343908285	5.313461152338719e-62
0.20797876917347366	2.434010286107986e-61
0.21005855686520844	1.1251140600060537e-60
0.2121591424338605	5.147682133352329e-60
0.21428073385819912	2.3433938365748274e-59
0.21642354119678112	1.0877992178922829e-58
0.2185877766087489	4.969013801220419e-58
0.2207736543748364	2.2670514468873856e-57
0.22298139091858477	1.0308546677824034e-56
0.2252112048277706	4.660011766931201e-56
0.22746331687604834	2.0906191954639675e-55
0.22973795004480882	9.347423550917577e-55
0.23203532954525688	4.1213158151694445e-54
0.23435568284070946	1.8069860058079558e-53
0.23669923966911657	7.2405739445432415e-53
0.2390662320658077	3.3295687490663482e-52
0.2414568943864658	1.4005782400742198e-51
0.2438714633303305	5.808327273594211e-51
0.24631017796363378	2.3706542297608945e-50
0.24877327974327013	9.49794999825116e-50
0.2512610125407028	3.7582790210142225e-49
0.25377362266610987	1.4557017541907663e-48
0.25631135889277096	5.569947459627811e-48
0.25887447248169865	2.0889827821394481e-47
0.26146321720651566	7.691798917288299e-47
0.2640778493785808	2.7797585013696098e-46
0.2667186278723666	9.850097526621248e-46
0.2693858141510903	3.429561305381681e-45
0.2720796722926012	1.171890015547233e-44
0.27480046901552724	3.9199491531501087e-44
0.27754847370568253	1.2866065580392493e-43
0.28032395844273933	4.137789431111647e-43
0.28312719802716674	1.3034580877883979e-42
0.2859584700074384	4.020543160712723e-42
0.28881805470751276	1.2128998949536715e-41
0.2917062352545879	3.5943451918514747e-41
0.2946232976071338	1.0405619594675133e-40
0.2975695305832051	2.9568065007431403e-40
0.30054522588903715	8.22719803248289e-40
0.3035506781479275	2.2483374991394752e-39
0.3065861849294068	6.0865719398254e-39
0.3096520467787009	1.6527620473544708e-38
0.3127485672464879	4.5320420638749386e-38
0.3158760529189528	1.2753787454396732e-37
0.31903481344814233	3.707343683111948e-37
0.3222251615826237	1.1292278678741204e-36
0.32544741319844994	3.651284225786646e-36
0.3287018873304345	1.2548390086180864e-35
0.33198890620373883	4.529800898615407e-35
0.3353087952657762	1.683872872338942e-34
0.338661883218434	6.336383224675828e-34
0.3420485020506183	2.3684143353777166e-33
0.34546898707112456	8.63044976440868e-33
0.3489236769418358	3.009620706698858e-32
0.35241291371125416	9.830649117793838e-32
0.3559370428483667	2.9490989929797146e-31
0.3594964132768504	8.05869421652594e-31
0.3630913774096189	2.0499645291315145e-30
0.3667222911837151	4.951716728107718e-30
0.37038951409555215	1.165908009726826e-29
0.37409340923650775	2.7353230980444146e-29
0.37783434332887283	6.3984286620111e-29
0.38161268676216153	1.4934088224365117e-28
0.38542881362978315	3.4762985638939556e-28
0.389283101766081	8.0686302369742935e-28
0.39317593278374185	1.8649153841508672e-27
0.39710769211157926	4.285542994383014e-27
0.401078769032695	9.767694210590519e-27
0.405089556723022	2.197679915122705e-26
0.4091404522902522	4.932240420330267e-26
0.4132318568131547	1.097869494995631e-25
0.4173641753812863	2.4344164137090524e-25
0.42153781713509914	5.392787647840726e-25
0.4257531953064501	1.1994394032489752e-24
0.43001072725951467	2.6823892077523828e-24
0.43431083453210984	6.063913399091649e-24
0.43865394287743087	1.38543116056284e-23
0.44304048230620524	3.1920831934233865e-23
0.44747088712926725	7.384572157007179e-23
0.45194559600055995	1.7071093243573958e-22
0.4564650519605655	3.9293259296985266e-22
0.4610297024801712	8.949794566715919e-22
0.4656399995049729	2.010497953691247e-21
0.47029639950002267	4.432157926932215e-21
0.47499936349502286	9.625908757642619e-21
0.4797493571299731	2.0630794100511175e-20
0.48454685070127285	4.3783411374179125e-20
0.48939231920828563	9.236010324530154e-20
0.4942862424003685	1.9407671413591958e-19
0.4992291048243721	4.079258869808465e-19
0.5042213958726158	8.587367992948337e-19
0.509263609831342	1.810898841761463e-18
0.5143562459296555	3.8185384602822646e-18
0.519499808388952	8.030777286985575e-18
0.5246948064728415	1.6806739673047702e-17
0.52994175453757	3.4940112589101296e-17
0.5352411720829456	7.196083613032615e-17
0.5405935838037751	1.4650922430352462e-16
0.5459995196418129	2.9428825748458533e-16
0.551459514838231	5.827968540894733e-16
0.5569741099866133	1.1312526517285756e-15
0.5625438510864794	2.1498506871486748e-15
0.5681692895973443	3.980947011527959e-15
0.5738509824933177	7.20010011360724e-15
0.5795894923182509	1.2820319068496018e-14
0.5853853872414334	2.2694408553328493e-14
0.5912392411138477	4.0343759560974426e-14
0.5971516335249862	7.278786970187898e-14
0.6031231498602361	1.3463253926544615e-13
0.6091543813588385	2.542740476623071e-13
0.6152459251724268	4.825592965507377e-13
0.6213983844241512	9.051893192270793e-13
0.6276123682683926	1.649413911842546e-12
0.6338884919510765	2.870377028786501e-12
0.6402273768705874	4.743352095113427e-12
0.6466296506392932	7.60905862876873e-12
0.6530959471456862	1.2189586144295978e-11
0.6596269066171431	2.0092381098652972e-11
0.6662231756833145	3.515723393019876e-11
0.6728854074401477	6.656720969003786e-11
0.6796142615145492	1.3316135274891618e-10
0.6864104041296946	2.7190977110535107e-10
0.6932745081709915	5.464929747602174e-10
0.7002072532527015	1.0439627656362644e-09
0.7072093257852285	1.8504751264797694e-09
0.7142814190430807	3.0687116256976693e-09
0.7214242332335116	4.836931455438612e-09
0.7286384755658467	7.357070009717461e-09
0.7359248603215052	1.0996936049499886e-08
0.7432841089247202	1.638582568315811e-08
0.7507169500139675	2.4748934051512022e-08
0.7582241195141072	3.853194878556999e-08
0.7658063607092482	6.244974160638106e-08
0.7734644243163408	1.0333209110226377e-07
0.781199068559504	1.640985776630898e-07
0.7890110592450992	2.66811956904759e-07
0.7969011698375502	3.961188914133194e-07
0.8048701815359257	5.666018825249165e-07
0.8129188833512849	7.993661044018947e-07
0.8210480721847978	1.1551751788350232e-06
0.8292585529066457	1.7206590077107773e-06
0.8375511384357123	2.617789465872177e-06
0.8459266498200694	4.037505051470135e-06
0.8543859163182701	6.2403654551864186e-06
0.8629297754814528	9.590546244341527e-06
0.8715590732362674	1.4523925350754902e-05
0.8802746639686301	2.1618915107458515e-05
0.8890774106083162	3.1745986071119094e-05
0.8979681847143995	4.579809157633401e-05
0.9069478665615435	6.591189172123781e-05
0.9160173452271589	9.287075736216898e-05
0.9251775186794305	0.00012966843740294927
0.9344292938662249	0.00017486621781599723
0.9437735868048871	0.0002509192567918661
0.953211322672936	0.0003450514053388561
0.9627434358996654	0.0004973946740794728
0.9723708702586621	0.0007170320040636704
0.9820945789612486	0.0010433442132266283
0.9919155247508612	0.0015243670967430363
1.0018346799983697	0.0022168055806785973
1.0118530267983534	0.003172687515191385
1.021971557066337	0.004464922071591418
1.0321912726370004	0.006185496813591402
1.0425131853633705	0.008443378253071869
1.0529383172170041	0.011382324047018798
1.0634677003891742	0.015189363122009195
