#wavelength	surface flux
0.01	7.426162559071949e-94
0.0101	7.939576266859637e-94
0.010201	8.458124111725206e-94
0.010303010000000001	8.981857435039436e-94
0.0104060401	9.510828091586793e-94
0.010510100501000002	1.0045088454699642e-93
0.01061520150601	1.0584691421443605e-93
0.010721353521070101	1.1129690417855017e-93
0.010828567056280802	1.1680139404230534e-93
0.010936852726843608	1.2236092880469801e-93
0.011046221254112046	1.2560299636948851e-93
0.011156683466653166	1.2560299636948851e-93
0.011268250301319697	1.2560299636948851e-93
0.011380932804332895	1.2560299636948851e-93
0.011494742132376225	1.2560299636948851e-93
0.011609689553699986	1.2560299636948851e-93
0.011725786449236988	1.2560299636948851e-93
0.011843044313729357	1.2560299636948851e-93
0.01196147475686665	1.2560299636948851e-93
0.012081089504435316	1.2560299636948851e-93
0.012201900399479671	1.2560299636948851e-93
0.012323919403474468	1.2560299636948851e-93
0.012447158597509212	1.2560299636948851e-93
0.012571630183484304	1.2560299636948851e-93
0.012697346485319148	1.2560299636948851e-93
0.012824319950172339	1.2560299636948851e-93
0.012952563149674063	1.2560299636948851e-93
0.013082088781170804	1.2560299636948851e-93
0.013212909668982512	1.2560299636948851e-93
0.013345038765672336	1.2560299636948851e-93
0.013478489153329061	1.2560299636948851e-93
0.013613274044862352	1.2560299636948851e-93
0.013749406785310975	1.2560299636948851e-93
0.013886900853164083	1.2560299636948851e-93
0.014025769861695726	1.2560299636948851e-93
0.014166027560312683	1.2560299636948851e-93
0.01430768783591581	1.2560299636948851e-93
0.014450764714274969	1.2560299636948851e-93
0.014595272361417718	1.2560299636948851e-93
0.014741225085031895	1.2560299636948851e-93
0.014888637335882214	1.2560299636948851e-93
0.015037523709241036	1.2560299636948851e-93
0.015187898946333447	1.2560299636948851e-93
0.015339777935796781	1.2560299636948851e-93
0.015493175715154751	1.2560299636948851e-93
0.015648107472306296	1.2560299636948851e-93
0.01580458854702936	1.2560299636948851e-93
0.015962634432499654	1.2560299636948851e-93
0.016122260776824653	1.2560299636948851e-93
0.016283483384592897	1.2560299636948851e-93
0.016446318218438827	1.2560299636948851e-93
0.016610781400623217	1.2560299636948851e-93
0.016776889214629446	1.2560299636948851e-93
0.016944658106775742	1.2560299636948851e-93
0.0171141046878435	1.2560299636948851e-93
0.017285245734721934	1.2560299636948851e-93
0.017458098192069154	1.2560299636948851e-93
0.017632679173989845	1.2560299636948851e-93
0.017809005965729745	1.2560299636948851e-93
0.01798709602538704	1.2560299636948851e-93
0.018166966985640912	1.2560299636948851e-93
0.01834863665549732	1.2560299636948851e-93
0.018532123022052295	1.2560299636948851e-93
0.01871744425227282	1.2560299636948851e-93
0.01890461869479555	1.2560299636948851e-93
0.0190936648817435	1.2560299636948851e-93
0.019284601530560937	1.2560299636948851e-93
0.01947744754586655	1.2560299636948851e-93
0.019672222021325212	1.2560299636948851e-93
0.019868944241538466	1.2560299636948851e-93
0.020067633683953853	1.2560299636948851e-93
0.02026831002079339	1.2560299636948851e-93
0.020470993121001323	1.2560299636948851e-93
0.020675703052211336	1.2560299636948851e-93
0.02088246008273345	1.2560299636948851e-93
0.021091284683560786	1.2560299636948851e-93
0.021302197530396395	1.2560299636948851e-93
0.02151521950570036	1.2560299636948851e-93
0.02173037170075736	1.2560299636948851e-93
0.02194767541776493	1.2560299636948851e-93
0.022167152171942584	1.2560299636948851e-93
0.022388823693662012	1.2560299636948851e-93
0.02261271193059863	1.2560299636948851e-93
0.022838839049904615	1.2560299636948851e-93
0.023067227440403664	1.2560299636948851e-93
0.0232978997148077	1.2560299636948851e-93
0.023530878711955777	1.2560299636948851e-93
0.023766187499075334	1.2560299636948851e-93
0.024003849374066088	1.2560299636948851e-93
0.02424388786780675	1.2560299636948851e-93
0.024486326746484814	1.2560299636948851e-93
0.024731190013949664	1.2560299636948851e-93
0.024978501914089166	1.2560299636948851e-93
0.025228286933230055	1.2560299636948851e-93
0.02548056980256236	1.2560299636948851e-93
0.025735375500587982	1.2560299636948851e-93
0.025992729255593858	1.2560299636948851e-93
0.0262526565481498	1.2560299636948851e-93
0.026515183113631293	1.2560299636948851e-93
0.02678033494476761	1.2560299636948851e-93
0.027048138294215287	1.2560299636948851e-93
0.02731861967715744	1.2560299636948851e-93
0.027591805873929013	1.2560299636948851e-93
0.027867723932668304	1.2560299636948851e-93
0.02814640117199499	1.2560299636948851e-93
0.028427865183714936	1.2560299636948851e-93
0.02871214383555209	1.2560299636948851e-93
0.028999265273907608	1.2560299636948851e-93
0.029289257926646682	1.2560299636948851e-93
0.029582150505913153	1.2560299636948851e-93
0.02987797201097228	1.2560299636948851e-93
0.030176751731082006	1.2560299636948851e-93
0.030478519248392826	1.2560299636948851e-93
0.030783304440876753	1.2560299636948851e-93
0.031091137485285525	1.2560299636948851e-93
0.03140204886013838	1.2560299636948851e-93
0.03171606934873976	1.2560299636948851e-93
0.03203323004222716	1.2560299636948851e-93
0.03235356234264943	1.2560299636948851e-93
0.03267709796607593	1.2560299636948851e-93
0.03300386894573669	1.2560299636948851e-93
0.03333390763519405	1.2560299636948851e-93
0.033667246711545994	1.2560299636948851e-93
0.034003919178661454	1.2560299636948851e-93
0.03434395837044807	1.2560299636948851e-93
0.03468739795415255	1.2560299636948851e-93
0.03503427193369407	1.2560299636948851e-93
0.03538461465303102	1.2560299636948851e-93
0.03573846079956133	1.2560299636948851e-93
0.03609584540755694	1.2560299636948851e-93
0.03645680386163251	1.2560299636948851e-93
0.03682137190024883	1.2560299636948851e-93
0.03718958561925133	1.2560299636948851e-93
0.03756148147544384	1.2560299636948851e-93
0.03793709629019828	1.2560299636948851e-93
0.03831646725310026	1.2560299636948851e-93
0.038699631925631264	1.2560299636948851e-93
0.039086628244887574	1.2560379212699338e-93
0.039477494527336454	1.2560738258156242e-93
0.03987226947260982	1.2561100894067712e-93
0.04027099216733592	1.2632488651158642e-93
0.04067370208900927	1.273840059557743e-93
0.04108043910989937	2.0259598387359046e-93
0.04149124350099836	5.8232266210106306e-93
0.04190615593600835	9.658466071108221e-93
0.042325217495368425	8.416500323149341e-91
0.04274846967032212	1.9233110629442111e-90
0.043175954367025336	1.0203803154046621e-88
0.04360771391069559	3.4612374296848946e-88
0.04404379104980254	4.792124059345929e-87
0.04448422896030057	4.727822715324278e-86
0.04492907124990358	9.018919127807886e-86
0.04537836196240262	5.2247317122222165e-84
0.04583214558202665	1.1374574253628367e-83
0.04629046703784691	4.469132243312004e-82
0.046753371708225376	1.1373869169912918e-81
0.04722090542530763	3.2929282434568217e-80
0.047693114479560705	1.0010150199995862e-79
0.04817004562435631	1.990018489998681e-78
0.04865174608059988	7.2200580875374025e-78
0.04913826354140587	1.1182434041832598e-76
0.04962964617681994	4.7014538341446235e-76
0.05012594263858814	1.8494051918217873e-69
0.05062720206497402	9.210148344119227e-69
0.05113347408562376	1.2846506517195403e-67
0.051644808826479996	5.643545943545872e-67
0.0521612569147448	4.487586578392465e-66
0.052682869483892246	1.6198532676234982e-65
0.05320969817873117	1.3644785650107498e-64
0.05374179516051848	4.2350688055093815e-64
0.054279213112123664	3.954513753564157e-63
0.0548220052432449	1.0548018226868523e-62
0.05537022529567735	9.483791219113813e-62
0.05592392754863413	2.1766664904445286e-61
0.056483166824120475	2.257353137957297e-58
0.057047998492361675	9.099686339724807e-58
0.057618478477285295	6.175426424803978e-57
0.05819466326205815	3.2428547350872455e-56
0.05877660989467873	1.0038513611170803e-55
0.05936437599362551	1.5923298984720488e-54
0.05995801975356178	3.980516138439404e-54
0.06055759995109739	3.119869778562613e-53
0.06116317595060837	1.2156315718535942e-52
0.061774807710114454	3.798339975351167e-52
0.062392555787215594	1.8654382060473885e-51
0.06301648134508775	4.477713614143219e-51
0.06364664615853863	2.2088124115778104e-50
0.06428311262012401	9.022402040397718e-50
0.06492594374632525	2.2251092564393204e-49
0.06557520318378851	1.0689057433177812e-48
0.0662309552156264	3.878086569722356e-48
0.06689326476778266	1.0173712227395723e-47
0.06756219741546049	4.461175697462258e-47
0.0682378193896151	1.543190544293979e-46
0.06892019758351124	3.944210966295463e-46
0.06960939955934635	1.629487133938317e-45
0.07030549355493981	5.642256462838695e-45
0.07100854849048922	1.3475426931177284e-44
0.07171863397539412	5.24612535990917e-44
0.07243582031514804	1.850253055117996e-43
0.07316017851829953	5.392612505411239e-43
0.07389178030348253	1.4647394220985678e-42
0.07463069810651736	5.221084516595359e-42
0.07537700508758254	1.6695910358255088e-41
0.07613077513845835	4.590175516910349e-41
0.07689208288984294	1.2592450795472396e-40
0.07766100371874136	1.3078174988806518e-39
0.07843761375592878	1.283201458666059e-38
0.07922198989348807	4.5475568849051985e-38
0.08001420979242296	1.1504064591444353e-37
0.08081435189034718	3.605351090610424e-37
0.08162249540925066	1.1130523394386102e-36
0.08243872036334317	3.2429771427022324e-36
0.08326310756697661	7.964202494172216e-36
0.08409573864264637	1.3731390799532466e-35
0.08493669602907282	2.0023542387711836e-36
0.08578606298936356	2.623125925999696e-37
0.0866439236192572	8.494265373409751e-38
0.08751036285544977	6.928320577571431e-36
0.08838546648400426	7.104553505332727e-35
0.08926932114884432	1.4076230353822337e-34
0.09016201436033276	2.813266322786023e-34
0.09106363450393609	1.6452253537976873e-33
0.09197427084897544	6.324408899319189e-33
0.0928940135574652	3.012049020569236e-33
0.09382295369303986	1.2500625497952226e-32
0.09476118322997025	1.4946613799103543e-32
0.09570879506226997	9.718904572515725e-32
0.09666588301289265	1.9615166835006772e-31
0.09763254184302157	5.487344315355192e-31
0.09860886726145181	1.6271189879117882e-29
0.09959495593406631	1.842885033226401e-28
0.10059090549340699	1.3600127703300826e-28
0.10159681454834106	1.5090874403658843e-29
0.10261278269382446	9.306525090266156e-30
0.10363891052076271	2.2294422989136907e-29
0.10467529962597034	5.857960066555345e-29
0.10572205262223004	1.5225724926828083e-28
0.10677927314845236	3.946144452383479e-28
0.10784706587993687	1.0216215047028545e-27
0.10892553653873624	2.505133792386741e-27
0.1100147919041236	1.0718670989850467e-26
0.11111493982316484	3.758336823639152e-24
0.1122260892213965	9.423855804099173e-23
0.11334835011361045	2.526407640168312e-22
0.11448183361474655	4.809823160889769e-22
0.11562665195089401	1.845981677989922e-21
0.11678291847040295	4.2201721029612914e-21
0.117950747655107	7.784407414095457e-20
0.11913025513165806	3.667628056288433e-19
0.12032155768297464	1.0038304694389878e-19
0.1215247732598044	1.834118708257459e-19
0.12274002099240244	1.4103660645633737e-18
0.12396742120232647	3.598014705372794e-18
0.12520709541434974	4.748276658607862e-18
0.12645916636849325	3.1287055443689552e-18
0.12772375803217817	5.556178172827647e-18
0.12900099561249995	1.5121268779766032e-17
0.13029100556862497	1.789001109179716e-17
0.1315939156243112	4.417536346011005e-17
0.1329098547805543	7.273359533089458e-17
0.13423895332835986	1.5071023774912463e-16
0.13558134286164344	2.798222353313609e-16
0.1369371562902599	2.823881618056296e-16
0.1383065278531625	1.0298295589626906e-15
0.13968959313169413	5.444077085316062e-15
0.14108648906301105	9.009630192764291e-15
0.1424973539536412	2.456223508261388e-14
0.14392232749317757	4.841033886128912e-14
0.14536155076810936	2.2316680587788464e-13
0.14681516627579044	3.9888762016164124e-13
0.14828331793854838	6.009970843390076e-13
0.14976615111793384	1.0393230067955224e-12
0.15126381262911318	1.4104722885009698e-12
0.15277645075540433	9.503779667420424e-13
0.15430421526295837	9.13774136055242e-13
0.15584725741558797	1.7932664608254388e-12
0.15740572998974384	3.0168095448991525e-12
0.15897978728964127	3.838786521449265e-12
0.1605695851625377	4.716221888854511e-12
0.16217528101416306	1.8338233181849598e-12
0.16379703382430472	3.767300522459187e-12
0.16543500416254772	6.771621046901304e-12
0.16708935420417323	5.750957475301708e-11
0.16876024774621495	5.010544565869536e-12
0.17044785022367712	4.956275510363357e-10
0.17215232872591388	1.465597247837153e-10
0.173873852013173	2.097388663730535e-10
0.17561259053330475	9.894940370350307e-10
0.1773687164386378	3.5035225931128726e-09
0.1791424036030242	1.5706506597330272e-08
0.1809338276390544	9.452867784785935e-10
0.18274316591544498	3.474803604198218e-08
0.18457059757459943	1.3368472811107157e-08
0.1864163035503454	1.7638783859495503e-09
0.18828046658584888	6.319383233621603e-09
0.19016327125170737	1.726272161318173e-08
0.19206490396422443	2.4174805927288824e-07
0.1939855530038667	1.013576564436422e-06
0.19592540853390536	2.707794213737508e-06
0.19788466261924442	7.051358305783365e-06
0.19986350924543686	6.729827140202262e-06
0.2018621443378912	7.856494349606224e-06
0.20388076578127012	8.947196815499192e-06
0.20591957343908285	1.4618088741280716e-05
0.20797876917347366	8.791162198588412e-06
0.21005855686520844	1.856007742790865e-05
0.2121591424338605	1.0039068062237697e-05
0.21428073385819912	2.908176504168205e-05
0.21642354119678112	2.5240748295183808e-05
0.2185877766087489	5.08897241123442e-05
0.2207736543748364	5.128743929342515e-05
0.22298139091858477	0.0001696896660120855
0.2252112048277706	7.363820872773715e-05
0.22746331687604834	0.00027112554347508036
0.22973795004480882	0.0004280351833143474
0.23203532954525688	0.0009954665083771075
0.23435568284070946	0.00235534224629067
0.23669923966911657	0.0011941262270698267
0.2390662320658077	0.002792989458310178
0.2414568943864658	0.0052892522139610515
0.2438714633303305	0.014931659701111771
0.24631017796363378	0.012897959254660729
0.24877327974327013	0.00723861598590535
0.2512610125407028	0.018987907655816077
0.25377362266610987	0.05919750532010025
0.25631135889277096	0.08251600184165639
0.25887447248169865	0.07261145324554615
0.26146321720651566	0.2825014320844657
0.2640778493785808	0.4371692157303012
0.2667186278723666	0.49962605139355026
0.2693858141510903	0.6304969603467414
0.2720796722926012	0.524943326356974
0.27480046901552724	0.9095781744189693
0.27754847370568253	1.7048010144683474
0.28032395844273933	1.1109296446620522
0.28312719802716674	1.8285015477861604
0.2859584700074384	1.0480516807922142
0.28881805470751276	4.519118375397952
0.2917062352545879	7.029473998516042
0.2946232976071338	7.056189309228319
0.2975695305832051	6.869537966849161
0.30054522588903715	10.017514033924746
0.3035506781479275	16.236356148000418
0.3065861849294068	26.428010967412472
0.3096520467787009	32.4591039724337
0.3127485672464879	62.84301184950709
0.3158760529189528	86.01828186552156
0.31903481344814233	81.11169369718733
0.3222251615826237	104.86401930251104
0.32544741319844994	166.72586483330855
0.3287018873304345	221.69775879719737
0.33198890620373883	284.408030031172
0.3353087952657762	360.14233883751564
0.338661883218434	303.8042516555051
0.3420485020506183	372.11039773888035
0.34546898707112456	372.6732595203856
0.3489236769418358	501.48969462732066
0.35241291371125416	579.9193375351933
0.3559370428483667	1127.4302982659776
0.3594964132768504	775.860650166046
0.3630913774096189	1825.471489902062
0.3667222911837151	2406.1469141904554
0.37038951409555215	2247.8084337206415
0.37409340923650775	1541.4985764788175
0.37783434332887283	4460.163729834487
0.38161268676216153	4258.987844345451
0.38542881362978315	4126.381412549951
0.389283101766081	4804.367646799931
0.39317593278374185	7100.059751247949
0.39710769211157926	13952.399125104444
0.401078769032695	17485.584617567365
0.405089556723022	18383.73191064314
0.4091404522902522	25737.247693297148
0.4132318568131547	28728.69900412995
0.4173641753812863	30792.806333403474
0.42153781713509914	26857.234890593012
0.4257531953064501	26833.09895600008
0.43001072725951467	44249.06776571646
0.43431083453210984	62536.138416184585
0.43865394287743087	69329.26738272126
0.44304048230620524	97548.79437426133
0.44747088712926725	119742.53965093552
0.45194559600055995	164149.98329313842
0.4564650519605655	197672.00166234563
0.4610297024801712	180385.16456027213
0.4656399995049729	241077.6660207942
0.47029639950002267	320550.6617625107
0.47499936349502286	465362.91192321124
0.4797493571299731	319623.6449108395
0.48454685070127285	388099.04475579486
0.48939231920828563	685392.520066643
0.4942862424003685	1114153.912209285
0.4992291048243721	524169.36107070243
0.5042213958726158	638255.6124641239
0.509263609831342	738629.5211352644
0.5143562459296555	1014555.5883746534
0.519499808388952	715210.8885088166
0.5246948064728415	1093402.9017776786
0.52994175453757	1673441.3324436927
0.5352411720829456	2202897.1091630934
0.5405935838037751	1923090.7787102524
0.5459995196418129	1611222.8606368504
0.551459514838231	1876838.0127283658
0.5569741099866133	2418188.1742945616
0.5625438510864794	2303186.7118201475
0.5681692895973443	2714299.327864277
0.5738509824933177	2836157.8465897986
0.5795894923182509	2679339.9953874596
0.5853853872414334	2098572.718526542
0.5912392411138477	1618080.5184679688
0.5971516335249862	3264949.0022836616
0.6031231498602361	4475169.859032231
0.6091543813588385	5529207.717247655
0.6152459251724268	5938074.421049036
0.6213983844241512	5198236.2852365775
0.6276123682683926	6124035.226841015
0.6338884919510765	7529253.049822892
0.6402273768705874	8069359.324272833
0.6466296506392932	10623408.853913773
0.6530959471456862	13257801.049411492
0.6596269066171431	13182150.44012265
0.6662231756833145	11376983.808131112
0.6728854074401477	10026459.260345718
0.6796142615145492	11924914.14624809
0.6864104041296946	13698077.184250375
0.6932745081709915	14484881.533613529
0.7002072532527015	19142155.78642172
0.7072093257852285	18299996.09419235
0.7142814190430807	15700634.01339627
0.7214242332335116	19593102.283472683
0.7286384755658467	30645738.990991198
0.7359248603215052	35453189.486469954
0.7432841089247202	25075746.04801242
0.7507169500139675	26604331.37200464
0.7582241195141072	30425410.18520083
0.7658063607092482	17961577.278701615
0.7734644243163408	28652077.061688963
0.781199068559504	40326557.99320855
0.7890110592450992	44758841.040343
0.7969011698375502	38915012.31010263
0.8048701815359257	65312889.92441669
0.8129188833512849	148988723.34306234
0.8210480721847978	133788992.22786172
0.8292585529066457	182602139.57297835
0.8375511384357123	186847679.37187624
0.8459266498200694	92261745.5069078
0.8543859163182701	100711528.5966722
0.8629297754814528	101878209.79813145
0.8715590732362674	85457794.39942507
0.8802746639686301	112023144.47776419
0.8890774106083162	121837045.74498361
0.8979681847143995	158037741.4147209
0.9069478665615435	140827732.0831416
0.9160173452271589	175257341.7321875
0.9251775186794305	178821638.5886154
0.9344292938662249	204932899.32621452
0.9437735868048871	259107471.8789076
0.953211322672936	292881524.9474497
0.9627434358996654	225714058.67244798
0.9723708702586621	233823209.7971644
0.9820945789612486	354318435.7453222
0.9919155247508612	191792568.71956158
1.0018346799983697	190443625.59017062
1.0118530267983534	211674321.55762476
1.021971557066337	242343723.2348803
1.0321912726370004	288759048.87969995
1.0425131853633705	349356908.4939389
1.0529383172170041	323471313.81639874
1.0634677003891742	310085952.55284786
1.074102377393066	466620885.2584797
1.0848434011669965	604194379.7498906
1.0956918351786664	727999604.9655205
1.1066487535304532	509946892.69784486
1.1177152410657578	532759461.7194594
1.1288923934764155	608068222.8128643
1.1401813174111797	399052889.85570014
1.1515831305852913	671086844.6622708
1.1630989618911443	600162159.3037474
1.1747299515100555	450339997.3597433
1.1864772510251562	587028156.6120068
1.1983420235354079	456309682.89709955
1.210325443770762	492610486.2809302
1.2224286982084696	575167241.7244318
1.2346529851905543	574420920.1760354
1.2469995150424598	482926359.4880071
1.2594695101928843	609837365.7899616
