#wavelength	surface flux
0.01	7.426162559071949e-94
0.0101	7.939576266859637e-94
0.010201	8.458124111725206e-94
0.010303010000000001	8.981857435039436e-94
0.0104060401	9.510828091586793e-94
0.010510100501000002	1.0045088454699642e-93
0.01061520150601	1.0584691421443605e-93
0.010721353521070101	1.1129690417855017e-93
0.010828567056280802	1.1680139404230534e-93
0.010936852726843608	1.2236092880469801e-93
0.011046221254112046	1.2560299636948851e-93
0.011156683466653166	1.2560299636948851e-93
0.011268250301319697	1.2560299636948851e-93
0.011380932804332895	1.2560299636948851e-93
0.011494742132376225	1.2560299636948851e-93
0.011609689553699986	1.2560299636948851e-93
0.011725786449236988	1.2560299636948851e-93
0.011843044313729357	1.2560299636948851e-93
0.01196147475686665	1.2560299636948851e-93
0.012081089504435316	1.2560299636948851e-93
0.012201900399479671	1.2560299636948851e-93
0.012323919403474468	1.2560299636948851e-93
0.012447158597509212	1.2560299636948851e-93
0.012571630183484304	1.2560299636948851e-93
0.012697346485319148	1.2560299636948851e-93
0.012824319950172339	1.2560299636948851e-93
0.012952563149674063	1.2560299636948851e-93
0.013082088781170804	1.2560299636948851e-93
0.013212909668982512	1.2560299636948851e-93
0.013345038765672336	1.2560299636948851e-93
0.013478489153329061	1.2560299636948851e-93
0.013613274044862352	1.2560299636948851e-93
0.013749406785310975	1.2560299636948851e-93
0.013886900853164083	1.2560299636948851e-93
0.014025769861695726	1.2560299636948851e-93
0.014166027560312683	1.2560299636948851e-93
0.01430768783591581	1.2560299636948851e-93
0.014450764714274969	1.2560299636948851e-93
0.014595272361417718	1.2560299636948851e-93
0.014741225085031895	1.2560299636948851e-93
0.014888637335882214	1.2560299636948851e-93
0.015037523709241036	1.2560299636948851e-93
0.015187898946333447	1.2560299636948851e-93
0.015339777935796781	1.2560299636948851e-93
0.015493175715154751	1.2560299636948851e-93
0.015648107472306296	1.2560299636948851e-93
0.01580458854702936	1.2560299636948851e-93
0.015962634432499654	1.2560299636948851e-93
0.016122260776824653	1.2560299636948851e-93
0.016283483384592897	1.2560299636948851e-93
0.016446318218438827	1.2560299636948851e-93
0.016610781400623217	1.2560299636948851e-93
0.016776889214629446	1.2560299636948851e-93
0.016944658106775742	1.2560299636948851e-93
0.0171141046878435	1.2560299636948851e-93
0.017285245734721934	1.2560299636948851e-93
0.017458098192069154	1.2560299636948851e-93
0.017632679173989845	1.2560299636948851e-93
0.017809005965729745	1.2560299636948851e-93
0.01798709602538704	1.2560299636948851e-93
0.018166966985640912	1.2560299636948851e-93
0.01834863665549732	1.2560299636948851e-93
0.018532123022052295	1.2560299636948851e-93
0.01871744425227282	1.2560299636948851e-93
0.01890461869479555	1.2560299636948851e-93
0.0190936648817435	1.2560299636948851e-93
0.019284601530560937	1.2560299636948851e-93
0.01947744754586655	1.2560299636948851e-93
0.019672222021325212	1.2560299636948851e-93
0.019868944241538466	1.2560299636948851e-93
0.020067633683953853	1.2560299636948851e-93
0.02026831002079339	1.2560299636948851e-93
0.020470993121001323	1.2560299636948851e-93
0.020675703052211336	1.2560299636948851e-93
0.02088246008273345	1.2560299636948851e-93
0.021091284683560786	1.2560299636948851e-93
0.021302197530396395	1.2560299636948851e-93
0.02151521950570036	1.2560299636948851e-93
0.02173037170075736	1.2560299636948851e-93
0.02194767541776493	1.2560299636948851e-93
0.022167152171942584	1.2560299636948851e-93
0.022388823693662012	1.2560299636948851e-93
0.02261271193059863	1.2560299636948851e-93
0.022838839049904615	1.2560299636948851e-93
0.023067227440403664	1.2560299636948851e-93
0.0232978997148077	1.2560299636948851e-93
0.023530878711955777	1.2560299636948851e-93
0.023766187499075334	1.2560299636948851e-93
0.024003849374066088	1.2560299636948851e-93
0.02424388786780675	1.2560299636948851e-93
0.024486326746484814	1.2560299636948851e-93
0.024731190013949664	1.2560299636948851e-93
0.024978501914089166	1.2560299636948851e-93
0.025228286933230055	1.2560299636948851e-93
0.02548056980256236	1.2560299636948851e-93
0.025735375500587982	1.2560299636948851e-93
0.025992729255593858	1.2560299636948851e-93
0.0262526565481498	1.2560299636948851e-93
0.026515183113631293	1.2560299636948851e-93
0.02678033494476761	1.2560299636948851e-93
0.027048138294215287	1.2560299636948851e-93
0.02731861967715744	1.2560299636948851e-93
0.027591805873929013	1.2560299636948851e-93
0.027867723932668304	1.2560299636948851e-93
0.02814640117199499	1.2560299636948851e-93
0.028427865183714936	1.2560299636948851e-93
0.02871214383555209	1.2560299636948851e-93
0.028999265273907608	1.2560299636948851e-93
0.029289257926646682	1.2560299636948851e-93
0.029582150505913153	1.2560299636948851e-93
0.02987797201097228	1.2560299636948851e-93
0.030176751731082006	1.2560299636948851e-93
0.030478519248392826	1.2560299636948851e-93
0.030783304440876753	1.2560299636948851e-93
0.031091137485285525	1.2560299636948851e-93
0.03140204886013838	1.2560299636948851e-93
0.03171606934873976	1.2560299636948851e-93
0.03203323004222716	1.2560299636948851e-93
0.03235356234264943	1.2560299636948851e-93
0.03267709796607593	1.2560299636948851e-93
0.03300386894573669	1.2560299636948851e-93
0.03333390763519405	1.2560299636948851e-93
0.033667246711545994	1.2560299636948851e-93
0.034003919178661454	1.2560299636948851e-93
0.03434395837044807	1.2560299636948851e-93
0.03468739795415255	1.2560299636948851e-93
0.03503427193369407	1.2560299636948851e-93
0.03538461465303102	1.2560299636948851e-93
0.03573846079956133	1.2560299636948851e-93
0.03609584540755694	1.2560299636948851e-93
0.03645680386163251	1.2560299636948851e-93
0.03682137190024883	1.2560299636948851e-93
0.03718958561925133	1.2560299636948851e-93
0.03756148147544384	1.2560299636948851e-93
0.03793709629019828	1.2560299636948851e-93
0.03831646725310026	1.2560299636948851e-93
0.038699631925631264	1.2560299636948851e-93
0.039086628244887574	1.2560299636948851e-93
0.039477494527336454	1.2560299636948851e-93
0.03987226947260982	1.2560299636948851e-93
0.04027099216733592	1.2560299636948851e-93
0.04067370208900927	1.2560299636948851e-93
0.04108043910989937	1.2560299636948851e-93
0.04149124350099836	1.2560299636948851e-93
0.04190615593600835	1.2560299636948851e-93
0.042325217495368425	1.2560299636948851e-93
0.04274846967032212	1.2560299636948851e-93
0.043175954367025336	1.2562466561242915e-93
0.04360771391069559	1.2567783793546894e-93
0.04404379104980254	1.27229068091526e-93
0.04448422896030057	1.4234500040705483e-93
0.04492907124990358	1.5761209204573904e-93
0.04537836196240262	2.8915902519905197e-92
0.04583214558202665	6.167632737847222e-92
0.04629046703784691	3.481777369462047e-90
0.046753371708225376	8.91293143656095e-90
0.04722090542530763	3.707699070509443e-88
0.047693114479560705	1.1380925758859798e-87
0.04817004562435631	3.178003666584717e-86
0.04865174608059988	1.1716903232136473e-85
0.04913826354140587	2.5050472188789648e-84
0.04962964617681994	1.0772064666659825e-83
0.05012594263858814	3.7328275958043814e-78
0.05062720206497402	1.8589642710883724e-77
0.05113347408562376	3.1597671029476117e-76
0.051644808826479996	1.4129268995234275e-75
0.0521612569147448	1.48561373945881e-74
0.052682869483892246	5.5875705741044025e-74
0.05320969817873117	6.431437004629303e-73
0.05374179516051848	2.0700206548969018e-72
0.054279213112123664	2.5473247411673187e-71
0.0548220052432449	6.96232349403098e-71
0.05537022529567735	8.347779980437993e-70
0.05592392754863413	1.9574767968041618e-69
0.056483166824120475	1.995311138482245e-66
0.057047998492361675	8.301294999901425e-66
0.057618478477285295	5.79096682020309e-65
0.05819466326205815	4.425056753730142e-64
0.05877660989467873	1.493075059338422e-63
0.05936437599362551	2.4270998295962123e-62
0.05995801975356178	6.072391565599398e-62
0.06055759995109739	5.592866116297825e-61
0.06116317595060837	2.6952085968434467e-60
0.061774807710114454	9.22626709231026e-60
0.062392555787215594	5.895799356666336e-59
0.06301648134508775	1.5278708669289337e-58
0.06364664615853863	9.402271402593478e-58
0.06428311262012401	4.7876880675281676e-57
0.06492594374632525	1.2521112131176263e-56
0.06557520318378851	7.631307977253919e-56
0.0662309552156264	3.360146471561651e-55
0.06689326476778266	9.475456376969563e-55
0.06756219741546049	5.1744377835198357e-54
0.0682378193896151	2.1399319904920443e-53
0.06892019758351124	5.872908019343196e-53
0.06960939955934635	2.982814432139041e-52
0.07030549355493981	1.2316826736198942e-51
0.07100854849048922	3.151431427444464e-51
0.07171863397539412	1.4819253393946877e-50
0.07243582031514804	6.247377363417694e-50
0.07316017851829953	2.0912833525213102e-49
0.07389178030348253	6.245329764268851e-49
0.07463069810651736	2.6622588137529633e-48
0.07537700508758254	9.97422134555421e-48
0.07613077513845835	3.1058608862854e-47
0.07689208288984294	9.459296479935154e-47
0.07766100371874136	8.84388466161624e-46
0.07843761375592878	8.235814743727311e-45
0.07922198989348807	3.163952179801282e-44
0.08001420979242296	8.638278619606813e-44
0.08081435189034718	3.1314970870298843e-43
0.08162249540925066	1.1225425982590738e-42
0.08243872036334317	3.753122762528862e-42
0.08326310756697661	1.0208677067784157e-41
0.08409573864264637	1.8708595110791523e-41
0.08493669602907282	2.905861274332352e-42
0.08578606298936356	1.0950468781691037e-42
0.0866439236192572	3.009711054295591e-42
0.08751036285544977	4.790018715462632e-41
0.08838546648400426	4.272014321388035e-40
0.08926932114884432	9.649823467815388e-40
0.09016201436033276	3.3829877682216815e-39
0.09106363450393609	2.083909015104801e-38
0.09197427084897544	9.166301625701057e-38
0.0928940135574652	6.868304933126922e-38
0.09382295369303986	3.7776817204529445e-37
0.09476118322997025	6.1813557405891185e-37
0.09570879506226997	4.245989831540825e-36
0.09666588301289265	1.0124616218073735e-35
0.09763254184302157	2.496765070151198e-35
0.09860886726145181	7.1696870541436355e-34
0.09959495593406631	8.055867203375134e-33
0.10059090549340699	6.03555226417677e-33
0.10159681454834106	1.0427052735685521e-33
0.10261278269382446	1.4987366541561405e-33
0.10363891052076271	4.153260190533044e-33
0.10467529962597034	1.1896795457173953e-32
0.10572205262223004	3.3621107441503784e-32
0.10677927314845236	9.506786219025778e-32
0.10784706587993687	2.7183412986702233e-31
0.10892553653873624	7.171506756800304e-31
0.1100147919041236	2.2619187923607096e-30
0.11111493982316484	1.0458670134787134e-27
0.1122260892213965	2.642270438174692e-26
0.11334835011361045	7.474428470814879e-26
0.11448183361474655	2.5142235694587043e-25
0.11562665195089401	1.4391141253287731e-24
0.11678291847040295	2.418043074061503e-24
0.117950747655107	2.3373678537560358e-23
0.11913025513165806	5.481828321092172e-23
0.12032155768297464	6.523430519047201e-23
0.1215247732598044	1.0939143646063593e-22
0.12274002099240244	3.935843700353785e-22
0.12396742120232647	7.524529778057416e-22
0.12520709541434974	9.529064529757646e-22
0.12645916636849325	6.088940972263089e-22
0.12772375803217817	1.0289790010860184e-21
0.12900099561249995	2.918122271653731e-21
0.13029100556862497	3.745517667485184e-21
0.1315939156243112	9.348301560540337e-21
0.1329098547805543	1.6490559262709533e-20
0.13423895332835986	3.747852840814377e-20
0.13558134286164344	8.052960205916147e-20
0.1369371562902599	8.591447431979635e-20
0.1383065278531625	3.7647824897523127e-19
0.13968959313169413	2.3087434157702387e-18
0.14108648906301105	5.233543653068976e-18
0.1424973539536412	1.4375454570017587e-17
0.14392232749317757	3.133238945992525e-17
0.14536155076810936	1.857662454808248e-16
0.14681516627579044	3.630590412810505e-16
0.14828331793854838	5.85489829491303e-16
0.14976615111793384	1.0970680564921474e-15
0.15126381262911318	1.482601242075301e-15
0.15277645075540433	8.071889558861098e-16
0.15430421526295837	7.963402674031679e-16
0.15584725741558797	2.167141498455514e-15
0.15740572998974384	5.243280661276545e-15
0.15897978728964127	6.948891112683396e-15
0.1605695851625377	7.726688187315463e-15
0.16217528101416306	2.48497313617202e-15
0.16379703382430472	5.743432506025274e-15
0.16543500416254772	1.959578336010849e-14
0.16708935420417323	1.8641457410712946e-13
0.16876024774621495	1.432775387384026e-14
0.17044785022367712	2.3344512229707526e-12
0.17215232872591388	6.839998834388245e-13
0.173873852013173	9.904850834276157e-13
0.17561259053330475	4.54117556169049e-12
0.1773687164386378	2.2203968863545205e-11
0.1791424036030242	1.5327281745645216e-10
0.1809338276390544	5.451882864466372e-12
0.18274316591544498	6.390226291682327e-10
0.18457059757459943	1.2846973757895443e-10
0.1864163035503454	1.1156334012077726e-11
0.18828046658584888	4.1066613804331244e-11
0.19016327125170737	1.1586172490835114e-10
0.19206490396422443	3.689841131017009e-09
0.1939855530038667	1.7623578473103686e-08
0.19592540853390536	1.030043532624859e-07
0.19788466261924442	5.38335788403606e-07
0.19986350924543686	2.962746841596007e-07
0.2018621443378912	5.578263409608956e-07
0.20388076578127012	3.899243536165552e-07
0.20591957343908285	6.342461527188949e-07
0.20797876917347366	1.4700856093997624e-07
0.21005855686520844	3.6421274730163194e-07
0.2121591424338605	1.3810494965991835e-07
0.21428073385819912	1.1190505792739618e-06
0.21642354119678112	6.137414730586006e-07
0.2185877766087489	2.038169642978738e-06
0.2207736543748364	7.959346905042312e-07
0.22298139091858477	1.4642220531354535e-05
0.2252112048277706	1.0012376927621977e-06
0.22746331687604834	2.14569091044169e-05
0.22973795004480882	3.453492175531842e-05
0.23203532954525688	9.86400139540069e-05
0.23435568284070946	0.00019798302877309121
0.23669923966911657	4.831879896508656e-05
0.2390662320658077	0.0002175509895316619
0.2414568943864658	0.0005249611291741392
0.2438714633303305	0.001971219660772352
0.24631017796363378	0.0016714034830553018
0.24877327974327013	0.0005644274851241305
0.2512610125407028	0.0013679594697207967
0.25377362266610987	0.010108584343844372
0.25631135889277096	0.009469476731673976
0.25887447248169865	0.01304143241226032
0.26146321720651566	0.128285588838767
0.2640778493785808	0.14282047583661592
0.2667186278723666	0.1719571141087164
0.2693858141510903	0.17635433964156214
0.2720796722926012	0.1392081606079244
0.27480046901552724	0.23384474714909104
0.27754847370568253	0.7342513883850506
0.28032395844273933	0.308153763153245
0.28312719802716674	0.5937324573913665
0.2859584700074384	0.285482596645797
0.28881805470751276	2.09125643223105
0.2917062352545879	5.002242412367911
0.2946232976071338	3.087177708076455
0.2975695305832051	2.862951347398038
0.30054522588903715	4.172735539577752
0.3035506781479275	8.240609771461905
0.3065861849294068	35.33159618637355
0.3096520467787009	32.92190841878994
0.3127485672464879	634.5964702755306
0.3158760529189528	2452.732068951506
0.31903481344814233	1086.275110282913
0.3222251615826237	1432.812274791512
0.32544741319844994	7075.235531753036
0.3287018873304345	14689.916265693773
0.33198890620373883	17449.033681877703
0.3353087952657762	22695.231089847122
0.338661883218434	3936.192561160319
0.3420485020506183	1584.7643800467445
0.34546898707112456	531.2087370840118
0.3489236769418358	1256.9542581511419
0.35241291371125416	4125.563836785259
0.3559370428483667	14651.667924922132
0.3594964132768504	826.1779631167151
0.3630913774096189	27627.403514968406
0.3667222911837151	61316.9254226533
0.37038951409555215	12754.28414176952
0.37409340923650775	1367.9497053038274
0.37783434332887283	82797.68304609082
0.38161268676216153	43086.73481422818
0.38542881362978315	14554.24604364956
0.389283101766081	6405.544771041087
0.39317593278374185	17373.09353304279
0.39710769211157926	87865.00556506927
0.401078769032695	511119.9155499514
0.405089556723022	411961.0086355089
0.4091404522902522	614683.6187979375
0.4132318568131547	351863.23697966716
0.4173641753812863	131309.06405032804
0.42153781713509914	19873.81331928502
0.4257531953064501	34465.09593331933
0.43001072725951467	146108.7394908285
0.43431083453210984	332363.788700058
0.43865394287743087	397118.5537235952
0.44304048230620524	253275.28774640095
0.44747088712926725	451911.5826984674
0.45194559600055995	526413.9656647163
0.4564650519605655	942068.6699812703
0.4610297024801712	343131.91927180544
0.4656399995049729	427484.2260542925
0.47029639950002267	566083.4971014
0.47499936349502286	1345417.8833836645
0.4797493571299731	251488.81019567826
0.48454685070127285	459448.35562478635
0.48939231920828563	1175636.7084532161
0.4942862424003685	5342770.08402532
0.4992291048243721	733464.2051827464
0.5042213958726158	828743.6253357455
0.509263609831342	1424240.4446354045
0.5143562459296555	3957334.3223609542
0.519499808388952	819598.2901575584
0.5246948064728415	2027608.3221778146
0.52994175453757	2760867.402796554
0.5352411720829456	4144575.439778255
0.5405935838037751	4520147.379136746
0.5459995196418129	1838138.8697273263
0.551459514838231	2028163.235582934
0.5569741099866133	3205959.656585145
0.5625438510864794	1617269.9190428935
0.5681692895973443	2658855.4146322496
0.5738509824933177	4264306.9394917665
0.5795894923182509	4359525.48198367
0.5853853872414334	2994152.313314976
0.5912392411138477	1441478.034142521
0.5971516335249862	2829245.584772088
0.6031231498602361	5326604.089413605
0.6091543813588385	8520392.315102018
0.6152459251724268	8392822.685090328
0.6213983844241512	2965851.655029359
0.6276123682683926	3843676.4836914632
0.6338884919510765	7436887.77321735
0.6402273768705874	8757277.75864345
0.6466296506392932	10381598.909393271
0.6530959471456862	12243111.159832899
0.6596269066171431	11783420.401863268
0.6662231756833145	9082403.72142648
0.6728854074401477	6583046.616669018
0.6796142615145492	7941199.731031825
0.6864104041296946	10796411.88457367
0.6932745081709915	13661447.064759329
0.7002072532527015	31088863.435558233
0.7072093257852285	14801721.913700266
0.7142814190430807	9618081.895980254
0.7214242332335116	13051785.841602942
0.7286384755658467	39808386.185168765
0.7359248603215052	38690846.74321677
0.7432841089247202	18961605.796971098
0.7507169500139675	22642681.67590721
0.7582241195141072	43611518.27721035
0.7658063607092482	26788921.46799604
0.7734644243163408	39680062.03103625
0.781199068559504	72388566.69332907
0.7890110592450992	41198425.07131829
0.7969011698375502	29531802.19749114
0.8048701815359257	62275641.24241431
0.8129188833512849	228701258.82931593
0.8210480721847978	283356436.0347594
0.8292585529066457	212283936.97795662
0.8375511384357123	249927878.3050596
0.8459266498200694	83449315.71541499
0.8543859163182701	103530426.05240193
0.8629297754814528	84187383.50842291
0.8715590732362674	91788849.05151759
0.8802746639686301	179303552.14539003
0.8890774106083162	191030666.61968827
0.8979681847143995	250780391.89267743
0.9069478665615435	332101111.2982145
0.9160173452271589	485506511.3050789
0.9251775186794305	346526402.10168266
0.9344292938662249	343896470.3104301
0.9437735868048871	443418860.09907156
0.953211322672936	442773937.99944156
0.9627434358996654	243028016.60324153
0.9723708702586621	258434029.70863372
0.9820945789612486	454514948.0905286
0.9919155247508612	340939967.791622
1.0018346799983697	444892296.60948735
1.0118530267983534	492779246.05404073
1.021971557066337	548998232.620867
1.0321912726370004	639534189.6074146
1.0425131853633705	730888905.9243414
1.0529383172170041	466893623.36776596
1.0634677003891742	350396701.9079061
1.074102377393066	642511455.3844063
1.0848434011669965	839812079.8116752
1.0956918351786664	832519722.3074509
1.1066487535304532	553116137.3852712
1.1177152410657578	594334058.9777864
1.1288923934764155	645162679.798203
1.1401813174111797	586648377.808836
1.1515831305852913	702272398.0095274
1.1630989618911443	767064401.069844
1.1747299515100555	685879017.4002753
1.1864772510251562	574386311.7372606
1.1983420235354079	674789988.948463
1.210325443770762	709459669.4302218
1.2224286982084696	814862621.3705322
1.2346529851905543	818099663.6996503
1.2469995150424598	796415602.5219547
1.2594695101928843	836366002.8339921
1.2720642052948132	831356567.4566356
