#wavelength	surface flux
0.6450077295303345	6616.766354660953
0.6472567915916443	10273.703214625077
0.6494921445846558	13096.400584836316
0.6517150402069092	14654.953129435216
0.6539263725280762	16210.766610711109
0.6561272740364075	17837.486955412896
0.6583186388015747	19559.95322184175
0.6605015397071838	21416.31660803042
0.6626768708229065	23397.395529485864
0.6648455858230591	25469.11410430366
0.6670085787773132	27278.216521824193
0.6691668033599854	28100.852241085187
0.6713210344314575	29485.045818114682
0.6734722256660461	33165.50784874086
0.6756211519241333	37082.530292611445
0.6777685880661011	39997.03141021545
0.6799154281616211	42731.159034042386
0.6820623278617859	45500.51369598727
0.6842101216316223	48299.38881620838
0.6863595843315125	51099.28154308971
0.688511312007904	53748.414643482036
0.6906660795211792	55800.94023248316
0.6928245425224304	57543.63369145918
0.6949873566627502	60213.47893382443
0.6971551775932312	63588.54695397842
0.6993286609649658	66307.69987431275
0.7015084028244019	68243.59454638888
0.7036949396133423	70213.26271643864
0.7058889269828796	72294.50203935934
0.7080909013748169	74024.90307436732
0.710301399230957	75353.74587644958
0.712520956993103	76092.14904645996
0.7147500514984131	75433.22423621464
0.7169892191886902	73181.80655545162
0.7192389369010925	71413.48949347966
0.7214996814727783	71012.5249909096
0.723771870136261	69858.1474985622
0.7260559797286987	67395.6131178073
0.7283523678779602	64559.14214580673
0.7306615710258484	61643.79985037529
0.7329838871955872	58938.650851033446
0.7353196740150452	55864.77097403937
0.7376693487167358	51887.48938441588
0.7400332689285278	47638.555812833765
0.7424117922782898	43233.383060648535
0.7448052167892456	38537.66093484713
0.7472138404846191	33758.30981558967
0.7496379613876343	28930.1637109681
0.7520779371261597	24119.241848400467
0.7545340061187744	19455.249826920863
0.7570064663887024	15015.021315417434
0.7594954967498779	10842.528102035074
0.7620013952255249	6950.277372085089
0.7645244002342224	3575.436441420678
0.7670646905899048	1539.070601071654
0.7696225643157959	1613.9396281969966
0.7721980810165405	4268.787163013111
0.7747915983200073	9155.7460351993
0.7774031162261963	14789.635395549993
0.7800329327583313	21194.05081413909
0.7826811671257019	30483.087914215103
0.7853479981422424	42327.15481736595
0.7880334854125977	54749.697242244896
0.7907378077507019	62814.279211626075
0.7934610247612	63139.65514610396
0.7962033748626709	77435.00455915197
0.7989648580551147	112971.4958824546
0.801745593547821	146052.83464100515
0.8045456409454346	172445.52896962134
0.8073651194572449	197229.14851661443
0.8102040886878967	218499.03081367412
0.8130625486373901	241603.7614526755
0.8159406185150146	275982.48680984974
0.8188382983207703	318952.2628593463
0.8217556476593018	362694.5478385792
0.8246926665306091	409069.4557387778
0.8276493549346924	459674.3451210715
0.8306257724761963	510794.59376203426
0.8336219191551208	561536.7294243405
0.8366377949714661	615161.7397409867
0.8396733403205872	677833.2633906761
0.8427285552024841	754250.8237802229
0.8458034992218018	839443.6678041244
0.8488980531692505	890059.209061657
0.8520121574401855	921533.2469261334
0.8551458716392517	1054093.9468766425
0.8582990765571594	1245676.183984427
0.8614717125892639	1388448.660418367
0.8646637797355652	1512289.5991534898
0.8678751587867737	1648600.829890974
0.8711057901382446	1797816.8535177538
0.8743556141853333	1949886.5337334666
0.87762451171875	2090622.352675372
0.8809124231338501	2202966.64986342
0.8842192888259888	2289511.7429771675
0.8875449895858765	2327329.392334966
0.8908893465995789	2196122.139539198
0.894252359867096	2041689.066979469
0.8976338505744934	2322890.545597793
0.9010337591171265	2933679.065916532
0.9044519662857056	3419425.1677861568
0.9078882932662964	3685700.9475693423
0.9113426208496094	3848318.5516038053
0.914814829826355	3926831.915423481
0.9183048605918884	3967945.4841405824
0.9218124747276306	4006027.593926991
0.925337553024292	3321721.5542742363
0.9288799166679382	1984584.970810378
0.9324395060539246	1362860.7488965283
0.9360161423683167	1716412.5660313
0.9396095871925354	2184956.99141869
0.943219780921936	1939844.5851099954
0.9468464851379395	1413952.0199973301
0.9504896402359009	1523792.1235741335
0.9541489481925964	2086643.3535630382
0.9578243494033813	2313546.3241310297
0.9615156054496765	1979845.0252610743
0.9652225375175476	1891589.073659927
0.9689450263977051	2696996.2496318063
0.9726828336715698	4081121.536955237
0.9764357805252075	4955234.077058536
0.9802037477493286	5213345.692233704
0.983986496925354	5802786.230161599
0.9877838492393494	6880075.987934959
0.9915955662727356	8078533.84739853
0.9954215884208679	9225848.346066833
0.9992615580558777	10243732.175801681
1.0031154155731201	11256091.631080367
1.0069829225540161	12530071.127221383
1.0108637809753418	14075799.837283954
1.0147579908370972	15711684.532678235
1.018665075302124	17104615.053075038
1.022585153579712	18092932.936906286
1.0265177488327026	18997514.85825389
1.0304628610610962	20311540.190309055
1.0344202518463135	22060811.45223088
1.0383895635604858	23738934.25744388
1.0423706769943237	25115285.016630944
1.0463634729385376	26282900.30221412
1.0503677129745483	27443963.831229296
1.0543830394744873	28884086.19672603
1.058409333229065	30484866.321209665
1.0624464750289917	31866039.623029843
1.0664942264556885	32740403.106073055
1.0705522298812866	33400401.934076767
1.0746204853057861	34555819.49692594
1.0786986351013184	35856413.472881824
1.0827864408493042	36060871.778667174
1.086883783340454	33113895.47636926
1.0909905433654785	25938644.128520567
1.0951062440872192	17630717.542954784
1.0992310047149658	10933754.103065014
1.10336434841156	5914588.61010073
1.1075061559677124	3536036.8714101864
1.1116561889648438	2707942.5936411307
1.115814208984375	1884021.421652682
1.1199802160263062	1309960.2888132543
1.124153733253479	1000019.3970491093
1.1283347606658936	1145364.3887597562
1.1325229406356812	1403213.3844833986
1.1367181539535522	2084954.5292441354
1.1409201622009277	2697794.989565316
1.145128846168518	2513996.3497338663
1.1493438482284546	2127256.815263681
1.1535650491714478	1474183.9658593
1.1577922105789185	1017710.9248515462
1.1620250940322876	1219284.0400772747
1.1662636995315552	1635508.7683510524
1.170507550239563	2181266.0946467696
1.174756646156311	3423509.1825071336
1.1790107488632202	5806645.4541376615
1.1832695007324219	9071254.137500921
1.1875330209732056	11982617.117369903
1.191800832748413	15345062.351028128
1.1960728168487549	19669979.02410582
1.2003488540649414	23516562.1983131
1.2046287059783936	27309094.12575407
1.2089121341705322	29949363.114058062
1.2131990194320679	32278123.904095717
1.2174891233444214	36887674.46122012
1.2217823266983032	42355226.833267294
1.2260783910751343	46813013.20648988
1.230377197265625	49906299.77028694
1.2346785068511963	52488302.211043544
1.238982081413269	54163160.5156087
1.2432878017425537	54655643.760006376
1.2475954294204712	55105611.7008673
1.2519049644470215	55742820.22755898
1.256216049194336	59378074.64688388
1.2605286836624146	63187310.70822667
1.2648425102233887	62749974.00737338
1.2691574096679688	61213385.91071246
1.2734732627868652	59876574.503474906
1.2777899503707886	56685109.699878424
1.2821072340011597	50788219.510141335
1.2864248752593994	44156241.09191385
1.2907428741455078	37729325.415664166
1.2950609922409058	33508332.002361767
1.2993791103363037	31777628.586157624
1.303696870803833	30940668.54456707
1.3080145120620728	30303339.987939738
1.3123314380645752	28124434.588977255
1.3166478872299194	25985536.659874454
1.3209635019302368	22919260.63627614
1.3252781629562378	16320765.002022535
1.3295916318893433	8946274.096219344
1.3339040279388428	3578480.3421089095
1.3382149934768677	914590.469806844
1.3425244092941284	233596.22171415438
1.3468321561813354	121486.75806125122
1.3511382341384888	71275.23063060458
1.3554422855377197	38199.44252272798
1.3597444295883179	38403.79819350165
1.3640443086624146	32852.09685601974
1.3683418035507202	35164.151803270965
1.3726370334625244	51739.5777108741
1.3769296407699585	52360.99452206961
1.381219506263733	26680.712454747303
1.3855066299438477	11694.813169965451
1.3897908926010132	21953.790867089992
1.3940720558166504	44262.70372133293
1.3983501195907593	78741.82694638013
1.4026249647140503	140238.71810053076
1.4068963527679443	173091.87865960432
1.4111642837524414	114922.32530128227
1.4154287576675415	53533.03586349271
1.419689416885376	50428.4026919875
1.4239463806152344	74776.93167142505
1.4281994104385376	117474.91869294879
1.4324485063552856	138403.3517349052
1.436693549156189	152831.7905582753
1.440934419631958	244794.55811581973
1.4451709985733032	385136.8874786634
1.449403166770935	526841.2469337517
1.453631043434143	690843.0056595977
1.4578542709350586	935743.6663651689
1.4620729684829712	1104159.6265023747
1.4662868976593018	1083713.9453407393
1.4704961776733398	1111256.5421354987
1.4747005701065063	1186745.0332697134
1.4788999557495117	1164814.2023824959
1.4830944538116455	1188939.588110536
1.4872838258743286	1232650.9238805652
1.491468071937561	1264913.852136969
1.4956470727920532	1527530.7429733747
1.4998208284378052	2212533.2291574427
1.5039892196655273	3000005.817389231
1.5081522464752197	3352396.6847365117
1.5123097896575928	3892382.5561455325
1.5164618492126465	5023878.594450409
1.5206083059310913	6360226.62734618
1.5247491598129272	7598867.705650912
1.5288842916488647	8608203.443007914
1.5330137014389038	9812501.161986949
1.5371372699737549	11046618.672810711
1.541254997253418	12172097.950923515
1.545366883277893	13715934.28058078
1.5494728088378906	15368552.165374778
1.5535727739334106	16639707.289594455
1.5576666593551636	18151843.600410603
1.561754584312439	20671559.602140572
1.5658363103866577	23389521.87229659
1.5699119567871094	24858364.50475808
1.5739814043045044	25118887.934087344
1.5780447721481323	25581285.922214337
1.582101821899414	27102833.216670472
1.5861525535583496	28605745.39567533
1.5901970863342285	28431212.317181073
1.5942351818084717	27346954.321172275
1.5982669591903687	26651995.378895283
1.6022924184799194	25229323.507859487
1.606311559677124	23022753.594174046
1.6103241443634033	21373232.154184125
1.6143304109573364	19648905.934274856
1.6183301210403442	16913012.599079534
1.6223233938217163	13865412.73674181
1.6263102293014526	11499938.747051729
1.6302905082702637	10408313.867643075
1.634264349937439	12358793.17731334
1.638231635093689	16735202.508493476
1.6421923637390137	16956212.575092465
1.646146535873413	11805209.512422433
1.6500942707061768	9793108.997533754
1.6540353298187256	12698305.965571804
1.6579699516296387	14382894.01715456
1.661897897720337	12905236.454725936
1.6658192873001099	8654112.118820727
1.6697341203689575	5365616.592974634
1.6736423969268799	6131792.939740588
1.677544116973877	7030246.587923637
1.6814392805099487	6699296.182714928
1.6853278875350952	6177472.758606505
1.6892099380493164	5059806.124152052
1.6930854320526123	3681270.7592851883
1.696954369544983	2630091.6906157886
1.7008168697357178	2456879.5083756777
1.7046726942062378	2929734.7032842217
1.708522081375122	3845173.5344161796
1.712364912033081	5104659.785301007
1.7162011861801147	6328614.541832078
1.7200311422348022	7033632.327502144
1.723854422569275	6699092.397676595
1.7276713848114014	5858690.050801587
1.731481909751892	5224016.135846798
1.7352858781814575	4784685.992315013
1.7390835285186768	4477785.2454907475
1.7428747415542603	4154670.633387926
1.7466596364974976	3834215.984553236
1.7504380941390991	3415589.3753514853
1.7542102336883545	2674862.381055854
1.7579760551452637	2137550.7111000805
1.7617355585098267	2022535.038067123
1.7654887437820435	1761532.0054060752
1.7692357301712036	1348655.8820493761
1.7729763984680176	1029657.3993901165
1.776710867881775	751899.5082619194
1.7804391384124756	597401.2100551008
1.7841613292694092	554140.5207649507
1.7878772020339966	423343.5148960804
1.7915871143341064	293441.4850469691
1.7952908277511597	289260.9495288291
1.7989884614944458	303609.8116982979
1.8026801347732544	202145.52629214767
1.806365728378296	91041.21851735233
1.8100452423095703	57891.59136975547
1.8137187957763672	43579.74311532277
1.817386507987976	37068.22929356106
1.8210482597351074	36512.65603070454
1.8247040510177612	33607.670569220056
1.828354001045227	27752.277831564337
1.8319982290267944	26030.22893065117
1.8356364965438843	28142.67653863452
1.8392690420150757	55327.37824095506
1.8428958654403687	145985.03721044734
1.8465168476104736	219876.77379288324
1.8501322269439697	174876.59636664737
1.8537418842315674	107829.19653023583
1.8573459386825562	119576.53794523723
1.860944390296936	124537.2215531195
1.864537239074707	89377.26143194236
1.8681244850158691	72198.96957664366
1.871706247329712	66086.7599291513
1.8752825260162354	135461.7322047064
1.8788533210754395	335992.24205986736
1.8824186325073242	430996.4884963047
1.8859784603118896	321440.7444967633
1.8895330429077148	293617.7954445648
1.8930821418762207	547126.8426762812
1.8966259956359863	683899.6907813824
1.9001644849777222	374138.172561576
1.9036977291107178	124158.35611241395
1.9072256088256836	162665.2933879577
1.9107483625411987	162332.79793410792
1.9142658710479736	79080.46556442918
1.9177782535552979	37177.00997950533
1.9212853908538818	29201.749235922107
1.9247875213623047	31523.349859238748
1.9282845258712769	42471.58174902672
1.9317764043807983	57075.06912759635
1.9352631568908691	81400.1786522636
1.9387450218200684	115323.80502799554
1.942221760749817	147522.47116608988
1.9456936120986938	165856.53578606187
1.9491604566574097	204600.6165337901
1.952622413635254	211061.18371283988
1.956079363822937	150409.7302881568
1.959531545639038	145972.52678518902
1.962978720664978	252683.5444603978
1.966421127319336	477679.7335890652
1.9698586463928223	716951.5057160549
1.9732913970947266	738057.6873870408
1.9767193794250488	615494.8885307835
1.9801424741744995	697088.5058708225
1.9835609197616577	1126380.5800575959
1.9869745969772339	1418172.2215287234
1.990383505821228	1224745.2209708418
1.9937876462936401	1072800.9240769441
1.9971871376037598	1320390.668820704
2.000581979751587	1625717.0986135467
2.003972291946411	1641180.4764016392
2.007357597351074	1930457.1369341896
2.0107386112213135	2817279.630925109
2.0141148567199707	3237317.6099911844
2.017486572265625	3060220.821362152
2.0208535194396973	3255799.8428589907
2.0242159366607666	3634460.9158731718
2.027573823928833	3886189.9363744087
2.0309269428253174	4218168.59150432
2.034275770187378	4606401.04066152
2.0376198291778564	5081566.757397307
2.040959596633911	5650823.333275934
2.044294595718384	6637557.306133475
2.0476250648498535	7939529.680837643
2.0509510040283203	8181080.208224277
2.054272413253784	7784749.911294676
2.057589530944824	8458756.4415248
2.0609018802642822	9408162.024780847
2.0642096996307373	9698074.670259207
2.0675129890441895	9990032.480301395
2.0708119869232178	10283213.229076264
2.074106216430664	10130907.344407821
2.0773961544036865	9865270.73962545
2.080681324005127	9831020.893751262
2.0839622020721436	9909472.668677395
2.087238311767578	10057176.55483306
2.090510129928589	10190623.905365992
2.0937774181365967	10142689.234211227
2.0970399379730225	10009856.096015958
2.1002981662750244	9761005.181405364
2.1035518646240234	9345979.371982282
2.1068007946014404	8934399.140339898
2.1100454330444336	8739086.691678682
2.1132853031158447	8734916.33283238
2.116520881652832	8631894.589696322
2.1197516918182373	8429039.784594433
2.1229779720306396	8296329.460454892
2.12619948387146	8174674.483496905
2.1294167041778564	7999007.265936521
2.132629156112671	7828359.314763749
2.1358368396759033	7529888.257436781
2.139039993286133	7118641.882176326
2.1422386169433594	6595885.288307192
2.145432472229004	6066308.362990027
2.1486217975616455	5770556.809321312
2.151806354522705	5445114.46600113
2.1549863815307617	5261280.610320123
2.1581614017486572	5214458.039293487
2.16133189201355	4963389.279887124
2.1644976139068604	4745927.9843112
2.167658567428589	4580391.567558509
2.1708147525787354	4385333.875017653
2.173966407775879	4193323.6291656736
2.1771130561828613	3947159.8635828514
2.1802549362182617	3642812.76528234
2.183391809463501	3343981.609330725
2.1865241527557373	3043382.540966609
2.1896514892578125	2610678.5777686094
2.1927738189697266	1960641.7443750005
2.1958916187286377	1291407.4315343301
2.1990041732788086	824194.277075609
2.2021119594573975	557773.8173694579
2.2052149772644043	493601.8294628451
2.208312749862671	625125.6630422687
2.2114057540893555	833513.4877901318
2.214493751525879	958751.6286337337
2.217576742172241	931300.163290801
2.2206547260284424	809055.5804784868
2.2237277030944824	696673.8143163701
2.2267956733703613	616435.0434148326
2.2298583984375	558018.80082224
2.2329163551330566	514820.7658815081
2.235969066619873	469935.6456149492
2.2390167713165283	424632.16993965633
2.2420592308044434	349307.63234036946
2.2450966835021973	244843.41127363863
2.248128890991211	218583.76851517323
2.2511560916900635	281086.6690260371
2.254178285598755	306783.4709179178
2.257194995880127	292862.89639544254
2.260206699371338	284581.5477487662
2.2632133960723877	263299.69127629313
2.266214609146118	255904.49056461465
2.2692108154296875	293688.02127989486
2.2722020149230957	358694.215325695
2.2751877307891846	399535.9334434293
2.278168201446533	381698.9141175457
2.2811436653137207	332301.5699415663
2.284113883972168	291335.7421900652
2.287078857421875	264079.2378324265
2.290038824081421	240889.30185058314
2.2929933071136475	232640.72203235867
2.295942783355713	236772.41226237538
2.298887014389038	230332.08849453114
2.301826238632202	237634.97242762518
2.304760217666626	338196.57776948134
2.3076889514923096	568825.8013548353
2.310612440109253	825643.4427179033
2.3135311603546143	845204.8464127112
2.3164443969726562	538641.1230173062
2.319352865219116	249275.6513254111
2.322256088256836	194186.41560155372
2.3251543045043945	217392.716468399
2.328047275543213	210530.0146548375
2.330935478210449	203974.6802763971
2.3338186740875244	205716.2190576255
2.3366971015930176	193784.76655307296
2.3395702838897705	172392.67588819517
2.3424389362335205	148985.6053064515
2.3453025817871094	132769.30967786617
2.348161458969116	138077.95224225963
2.351015567779541	171345.0361376575
2.353865146636963	224273.78995977284
2.3567099571228027	286715.5352686045
2.3595502376556396	369238.50545901
2.3623859882354736	446693.1033369748
2.3652172088623047	423771.6042235038
2.368043899536133	281466.00171713624
2.370866537094116	144319.19171182194
2.3736846446990967	110536.5993376564
2.3764986991882324	153548.67633955352
2.3793084621429443	208318.9101912679
2.3821144104003906	238293.44356050095
2.384916305541992	253757.37270373423
2.387714147567749	280521.26562600554
2.3905084133148193	308717.35435855575
2.393299102783203	318789.71980688523
2.3960859775543213	318964.9169826738
2.398869514465332	336612.33965017146
2.4016497135162354	353695.1271127444
2.4044265747070312	346186.7132283436
2.407200336456299	364946.89589000284
2.409970998764038	454048.0644939477
2.4127390384674072	549161.8278022474
2.415503978729248	561601.341007184
2.418266534805298	531441.7306172326
2.4210267066955566	538661.9272514695
2.4237842559814453	561503.7110724448
2.426539897918701	600811.9575134218
2.429293394088745	730818.2825768758
2.4320452213287354	872228.930829369
2.4347951412200928	861670.730061141
2.4375438690185547	829068.4700160557
2.440291166305542	962801.2525016492
2.443037271499634	1028772.8835221684
2.445782423019409	850623.6341422226
2.4485268592834473	671542.5190387227
2.451270818710327	668966.2570651725
2.454014539718628	786534.7114754935
2.4567582607269287	899426.921518413
2.4595019817352295	924576.4658966738
2.4622461795806885	914920.3808528828
2.4649908542633057	875809.7368894696
2.4677364826202393	763074.8209596296
2.4704833030700684	639810.8570080423
2.473231554031372	543480.5884291385
2.4759814739227295	472386.0411242754
2.4787333011627197	449556.85923084733
2.481487512588501	479628.29250527616
