#wavelength	surface flux
0.6450077295303345	9369.918748275895
0.6472567915916443	14891.274452231557
0.6494921445846558	19745.999105332245
0.6517150402069092	23111.654607195604
0.6539263725280762	26711.765636790395
0.6561272740364075	30668.31054924741
0.6583186388015747	34990.01002875252
0.6605015397071838	39667.38314271313
0.6626768708229065	44657.05714105787
0.6648455858230591	49714.93118721908
0.6670085787773132	52698.93802803224
0.6691668033599854	49877.64314111015
0.6713210344314575	49867.760543401695
0.6734722256660461	63245.25624927593
0.6756211519241333	79352.90617364358
0.6777685880661011	89673.50634313324
0.6799154281616211	98044.68471427451
0.6820623278617859	106216.32865835272
0.6842101216316223	114360.56626589
0.6863595843315125	122442.75858069821
0.688511312007904	130321.20533514384
0.6906660795211792	137633.52404854717
0.6928245425224304	144497.45583315552
0.6949873566627502	151624.59150111987
0.6971551775932312	158738.06845801527
0.6993286609649658	164863.18165373954
0.7015084028244019	169801.3913764713
0.7036949396133423	173926.38488874142
0.7058889269828796	177177.8553722015
0.7080909013748169	179189.62380280276
0.710301399230957	179851.47073636038
0.712520956993103	178944.58374897172
0.7147500514984131	175909.72227714703
0.7169892191886902	170691.65721482283
0.7192389369010925	164602.1130302616
0.7214996814727783	158092.10705825296
0.723771870136261	149911.64538498063
0.7260559797286987	139957.3753480549
0.7283523678779602	128984.52267155245
0.7306615710258484	117288.35907614218
0.7329838871955872	105192.16150327289
0.7353196740150452	92677.54425310671
0.7376693487167358	79849.69576809567
0.7400332689285278	67314.76425982949
0.7424117922782898	55402.76955939515
0.7448052167892456	44351.09368122535
0.7472138404846191	34475.82820348075
0.7496379613876343	25952.251616449754
0.7520779371261597	18876.71804774558
0.7545340061187744	13242.5711080496
0.7570064663887024	8913.201955668908
0.7594954967498779	5674.898206939411
0.7620013952255249	3268.537221457075
0.7645244002342224	1547.2046039752775
0.7670646905899048	630.5551458919814
0.7696225643157959	674.0901918454798
0.7721980810165405	1900.9162031874857
0.7747915983200073	4407.885844629616
0.7774031162261963	7755.0123838988075
0.7800329327583313	12544.654029673282
0.7826811671257019	21105.912273022568
0.7853479981422424	33896.09917665421
0.7880334854125977	49639.698965475865
0.7907378077507019	62010.549189304
0.7934610247612	66687.8879722394
0.7962033748626709	93508.15871891787
0.7989648580551147	154746.46864464786
0.801745593547821	219274.7574325028
0.8045456409454346	280273.4153987504
0.8073651194572449	346804.4400474116
0.8102040886878967	419565.10916997114
0.8130625486373901	502066.7899114773
0.8159406185150146	599969.3479664467
0.8188382983207703	713009.3641068018
0.8217556476593018	838334.1848009463
0.8246926665306091	977573.5469381945
0.8276493549346924	1131626.8192249436
0.8306257724761963	1299275.623542048
0.8336219191551208	1480949.8955121483
0.8366377949714661	1678910.799128535
0.8396733403205872	1897562.004921764
0.8427285552024841	2139088.8399812747
0.8458034992218018	2369273.851413651
0.8488980531692505	2432913.9468540386
0.8520121574401855	2446106.6617361233
0.8551458716392517	2901714.4147068528
0.8582990765571594	3598796.676083812
0.8614717125892639	4071187.982458013
0.8646637797355652	4461075.223880541
0.8678751587867737	4923256.3972680895
0.8711057901382446	5428728.5391031355
0.8743556141853333	5956748.168398541
0.87762451171875	6510963.26940029
0.8809124231338501	7070404.572198061
0.8842192888259888	7626429.605740312
0.8875449895858765	8047578.258634562
0.8908893465995789	7846795.871457101
0.894252359867096	7510331.611392084
0.8976338505744934	8663199.208403569
0.9010337591171265	10745724.718427371
0.9044519662857056	12261241.074471157
0.9078882932662964	13301524.307002485
0.9113426208496094	14212345.88494646
0.914814829826355	15041035.625685202
0.9183048605918884	15865417.783952544
0.9218124747276306	16518031.530883618
0.925337553024292	15435203.000685796
0.9288799166679382	12764428.52553654
0.9324395060539246	12001809.14580516
0.9360161423683167	14043021.907511128
0.9396095871925354	16168196.624690276
0.943219780921936	16094361.09552414
0.9468464851379395	15238441.103273178
0.9504896402359009	16061189.601743089
0.9541489481925964	17928903.533415236
0.9578243494033813	18858814.561232213
0.9615156054496765	18471469.837011803
0.9652225375175476	18687986.226063937
0.9689450263977051	20837291.954631884
0.9726828336715698	24045244.52837886
0.9764357805252075	26219610.05621883
0.9802037477493286	27160444.881899595
0.983986496925354	28439407.987835947
0.9877838492393494	30134932.954026442
0.9915955662727356	31343210.29355008
0.9954215884208679	31622828.310112007
0.9992615580558777	31180328.160257056
1.0031154155731201	31133218.5027729
1.0069829225540161	32193383.565142017
1.0108637809753418	33737324.48111153
1.0147579908370972	34963476.52485793
1.018665075302124	35529795.91044101
1.022585153579712	35519066.040695325
1.0265177488327026	35346939.074307896
1.0304628610610962	35551792.54019727
1.0344202518463135	36145944.79901278
1.0383895635604858	36518952.30029826
1.0423706769943237	36445239.1336207
1.0463634729385376	36178844.815154746
1.0503677129745483	35907254.2195273
1.0543830394744873	35797679.158229336
1.058409333229065	35911361.2789905
1.0624464750289917	35933320.97832045
1.0664942264556885	35516321.27111698
1.0705522298812866	34837072.2864284
1.0746204853057861	34262183.75128481
1.0786986351013184	33835515.377312735
1.0827864408493042	33451644.217368737
1.086883783340454	32732117.17696832
1.0909905433654785	31042409.06932285
1.0951062440872192	28357699.37949289
1.0992310047149658	24552463.257303823
1.10336434841156	20018508.674305286
1.1075061559677124	16717966.120881781
1.1116561889648438	14289911.466880463
1.115814208984375	12304520.526425432
1.1199802160263062	11239174.405286927
1.124153733253479	11087335.933909895
1.1283347606658936	12069268.674172418
1.1325229406356812	12015739.580072517
1.1367181539535522	13234449.828813342
1.1409201622009277	16276534.533414364
1.145128846168518	17143342.104391027
1.1493438482284546	16145421.190536158
1.1535650491714478	14007053.478755886
1.1577922105789185	12914859.53710421
1.1620250940322876	13919142.913723012
1.1662636995315552	15365898.888077347
1.170507550239563	16829337.433063574
1.174756646156311	19155282.1141569
1.1790107488632202	22876793.30962088
1.1832695007324219	27206964.063997544
1.1875330209732056	30456151.207108773
1.191800832748413	32725390.15923173
1.1960728168487549	34928826.27271534
1.2003488540649414	36427461.74862841
1.2046287059783936	37475530.0439642
1.2089121341705322	38245533.79675853
1.2131990194320679	38927265.76996443
1.2174891233444214	40064808.21354972
1.2217823266983032	41337975.52939707
1.2260783910751343	42487697.414673276
1.230377197265625	43589803.56214094
1.2346785068511963	44781835.59385707
1.238982081413269	46039730.679774046
1.2432878017425537	47185541.95178509
1.2475954294204712	48136425.802393936
1.2519049644470215	49093897.48550058
1.256216049194336	50794088.55817954
1.2605286836624146	52970363.030542344
1.2648425102233887	54840427.2480939
1.2691574096679688	56555500.78724737
1.2734732627868652	58134239.47569983
1.2777899503707886	59149387.91456992
1.2821072340011597	59337210.44251593
1.2864248752593994	58810566.599418916
1.2907428741455078	57852434.00452604
1.2950609922409058	57372476.14021917
1.2993791103363037	57476135.597906396
1.303696870803833	57826934.77185295
1.3080145120620728	58311895.43242229
1.3123314380645752	58286123.861227274
1.3166478872299194	57991920.098658755
1.3209635019302368	55802236.07374191
1.3252781629562378	48569333.58351567
1.3295916318893433	35038276.692637905
1.3339040279388428	18529655.61636083
1.3382149934768677	6719299.247365178
1.3425244092941284	2194866.561790276
1.3468321561813354	1200093.260028908
1.3511382341384888	736777.7538571598
1.3554422855377197	507790.29479290947
1.3597444295883179	633563.1126999947
1.3640443086624146	765836.9070988565
1.3683418035507202	985004.5476175324
1.3726370334625244	1380354.2234303933
1.3769296407699585	1446119.9476870592
1.381219506263733	838833.2250341652
1.3855066299438477	361446.4320584411
1.3897908926010132	452546.45200843614
1.3940720558166504	729134.4382117724
1.3983501195907593	1084656.5012891826
1.4026249647140503	1712127.4367796662
1.4068963527679443	2015974.6369814079
1.4111642837524414	1403689.4873636372
1.4154287576675415	841307.6569086502
1.419689416885376	866995.2958142516
1.4239463806152344	1094868.068893883
1.4281994104385376	1455089.3806841334
1.4324485063552856	1652073.5674628841
1.436693549156189	1811053.716668239
1.440934419631958	2514140.244164763
1.4451709985733032	3592029.1825124603
1.449403166770935	4778223.104434758
1.453631043434143	5987396.107143758
1.4578542709350586	7340656.725219809
1.4620729684829712	8466190.091433877
1.4662868976593018	8747096.811369084
1.4704961776733398	8736726.523536874
1.4747005701065063	8929206.689161567
1.4788999557495117	8950056.276358284
1.4830944538116455	8940709.677715832
1.4872838258743286	8811103.198577998
1.491468071937561	8592534.872686598
1.4956470727920532	9541120.449877612
1.4998208284378052	12114150.713831117
1.5039892196655273	14479108.236935908
1.5081522464752197	14835215.332462631
1.5123097896575928	15058724.704165254
1.5164618492126465	16945428.115438756
1.5206083059310913	19438538.225849
1.5247491598129272	21462810.04976906
1.5288842916488647	22935304.28643057
1.5330137014389038	24180402.1394386
1.5371372699737549	25389523.032254763
1.541254997253418	26488435.88417069
1.545366883277893	27455660.507231917
1.5494728088378906	28436246.273212068
1.5535727739334106	29378647.205039795
1.5576666593551636	30248884.940572105
1.561754584312439	31117854.780994296
1.5658363103866577	31650915.64563147
1.5699119567871094	31539591.3371955
1.5739814043045044	31084402.040948305
1.5780447721481323	30762258.544565473
1.582101821899414	30701283.24495437
1.5861525535583496	30598292.103923537
1.5901970863342285	30039810.28031041
1.5942351818084717	29134464.532994658
1.5982669591903687	28221871.914250903
1.6022924184799194	27140096.874642834
1.606311559677124	25909284.411192324
1.6103241443634033	24829500.523136027
1.6143304109573364	23713664.09323121
1.6183301210403442	22296818.190292895
1.6223233938217163	20719568.22291941
1.6263102293014526	19271694.31959222
1.6302905082702637	18272745.524604812
1.634264349937439	18388547.049426746
1.638231635093689	19339927.95626242
1.6421923637390137	18987981.115764506
1.646146535873413	16937578.51408344
1.6500942707061768	16061863.074990157
1.6540353298187256	16946271.86736251
1.6579699516296387	17279649.977975853
1.661897897720337	15882538.220478533
1.6658192873001099	12689807.79599384
1.6697341203689575	10935125.182542553
1.6736423969268799	12210733.4021285
1.677544116973877	13001265.57179666
1.6814392805099487	12548706.619181246
1.6853278875350952	11925670.210634109
1.6892099380493164	11036791.707657745
1.6930854320526123	9798149.288432162
1.696954369544983	8689280.453123262
1.7008168697357178	8415104.606625495
1.7046726942062378	8657760.90223513
1.708522081375122	9157666.32050639
1.712364912033081	9780164.235147601
1.7162011861801147	10264346.181858229
1.7200311422348022	10419185.153762326
1.723854422569275	10070562.812552325
1.7276713848114014	9522063.292133523
1.731481909751892	9058649.776715139
1.7352858781814575	8695280.077160506
1.7390835285186768	8394272.621149948
1.7428747415542603	8061822.165870802
1.7466596364974976	7688209.607524605
1.7504380941390991	7150474.4500568155
1.7542102336883545	6327087.064721571
1.7579760551452637	5752684.368166471
1.7617355585098267	5562813.65865435
1.7654887437820435	5106110.810727531
1.7692357301712036	4414317.929235954
1.7729763984680176	3781176.2264079694
1.776710867881775	3107872.092168897
1.7804391384124756	2661154.745841218
1.7841613292694092	2423931.8905139132
1.7878772020339966	2014047.7295231372
1.7915871143341064	1650889.750641138
1.7952908277511597	1551034.291793039
1.7989884614944458	1444754.259863799
1.8026801347732544	1048644.0510800935
1.806365728378296	672942.8302782199
1.8100452423095703	526322.4321337705
1.8137187957763672	438963.9475736478
1.817386507987976	400610.2850615766
1.8210482597351074	397650.0679312039
1.8247040510177612	380237.6781254068
1.828354001045227	353092.82090595114
1.8319982290267944	359509.6505323701
1.8356364965438843	377096.78464255336
1.8392690420150757	540074.5680861132
1.8428958654403687	974047.3547149093
1.8465168476104736	1233692.6407673615
1.8501322269439697	1016546.0878555186
1.8537418842315674	721929.8681739119
1.8573459386825562	699803.8334751214
1.860944390296936	703793.8178373532
1.864537239074707	613141.7777329887
1.8681244850158691	596476.1732306136
1.871706247329712	589573.8442647622
1.8752825260162354	832890.4653449776
1.8788533210754395	1442864.5584919306
1.8824186325073242	1766611.0079720833
1.8859784603118896	1593283.9297639122
1.8895330429077148	1484129.4752324459
1.8930821418762207	1780649.4729841196
1.8966259956359863	1884719.3808659124
1.9001644849777222	1225494.323035797
1.9036977291107178	711252.1392156186
1.9072256088256836	885084.8634382557
1.9107483625411987	918524.8335602612
1.9142658710479736	609425.7718348581
1.9177782535552979	408738.8526972561
1.9212853908538818	326691.3779228208
1.9247875213623047	323724.1456121349
1.9282845258712769	392096.19079234666
1.9317764043807983	459492.47372948844
1.9352631568908691	543977.2593560839
1.9387450218200684	639504.2946784971
1.942221760749817	722631.3098260508
1.9456936120986938	759656.7164370974
1.9491604566574097	832748.4309372101
1.952622413635254	831330.0943472642
1.956079363822937	672070.0592527605
1.959531545639038	689192.8383237428
1.962978720664978	982846.2964755512
1.966421127319336	1348494.7848402981
1.9698586463928223	1596836.2000064233
1.9732913970947266	1631312.3052092006
1.9767193794250488	1530112.9982800118
1.9801424741744995	1531392.123360091
1.9835609197616577	1861523.8035707907
1.9869745969772339	2208145.5699467217
1.990383505821228	2194026.93258349
1.9937876462936401	2107564.0643730294
1.9971871376037598	2257748.050583371
2.000581979751587	2476324.0726926057
2.003972291946411	2409039.707307492
2.007357597351074	2398886.6153004738
2.0107386112213135	2746608.5287528257
2.0141148567199707	2884923.8044679738
2.017486572265625	2785912.3321417156
2.0208535194396973	2804643.660235939
2.0242159366607666	2822069.6557715503
2.027573823928833	2878368.73431416
2.0309269428253174	2998967.8129242565
2.034275770187378	3074503.653499377
2.0376198291778564	3186013.074464067
2.040959596633911	3311248.855933239
2.044294595718384	3453443.362368074
2.0476250648498535	3632101.296006742
2.0509510040283203	3693800.6002638456
2.054272413253784	3653354.444305225
2.057589530944824	3682844.0363430814
2.0609018802642822	3759704.556523031
2.0642096996307373	3783546.089260491
2.0675129890441895	3773903.752742356
2.0708119869232178	3759682.269389517
2.074106216430664	3736251.3764711963
2.0773961544036865	3713799.0733097233
2.080681324005127	3695355.7804637603
2.0839622020721436	3684289.208232418
2.087238311767578	3682479.173848151
2.090510129928589	3674365.571495236
2.0937774181365967	3653374.754674353
2.0970399379730225	3629301.935096048
2.1002981662750244	3602772.2399135786
2.1035518646240234	3571887.3818669217
2.1068007946014404	3540632.227993748
2.1100454330444336	3516343.5984705333
2.1132853031158447	3499810.369252544
2.116520881652832	3480259.5831537703
2.1197516918182373	3456679.086681084
2.1229779720306396	3436330.26050911
2.12619948387146	3417843.243543056
2.1294167041778564	3397956.347836181
2.132629156112671	3376968.6027523302
2.1358368396759033	3346756.2886627857
2.139039993286133	3310198.3884534845
2.1422386169433594	3265652.422090465
2.145432472229004	3224680.815893529
2.1486217975616455	3195049.1924068
2.151806354522705	3147355.58790211
2.1549863815307617	3114751.5155625823
2.1581614017486572	3102592.9675021097
2.16133189201355	3068163.3509288086
2.1644976139068604	3023586.68881167
2.167658567428589	2982747.879446243
2.1708147525787354	2957679.5169553044
2.173966407775879	2934632.456785948
2.1771130561828613	2871991.630036202
2.1802549362182617	2779030.389139039
2.183391809463501	2700968.212067447
2.1865241527557373	2610602.074360915
2.1896514892578125	2420976.193943941
2.1927738189697266	2141263.359692421
2.1958916187286377	1899510.9445070135
2.1990041732788086	1718866.4267515116
2.2021119594573975	1545059.2763333838
2.2052149772644043	1431735.5594015464
2.208312749862671	1467541.609140541
2.2114057540893555	1625516.4602937463
2.214493751525879	1762863.1167335592
2.217576742172241	1785674.2193831876
2.2206547260284424	1729510.8486724964
2.2237277030944824	1662770.470398709
2.2267956733703613	1585464.5381223168
2.2298583984375	1515295.5413412722
2.2329163551330566	1484151.3221662592
2.235969066619873	1456846.8483816439
2.2390167713165283	1394469.0417553436
2.2420592308044434	1260245.8690165393
2.2450966835021973	1062876.0051676906
2.248128890991211	987256.1566508398
2.2511560916900635	1088198.4082531708
2.254178285598755	1140832.3093227837
2.257194995880127	1119524.1274357506
2.260206699371338	1122543.8901274707
2.2632133960723877	1112858.2729054245
2.266214609146118	1115386.0740701838
2.2692108154296875	1181315.142943631
2.2722020149230957	1270102.9251636376
2.2751877307891846	1304956.7215635139
2.278168201446533	1256804.6819659132
2.2811436653137207	1173980.8019435871
2.284113883972168	1112465.594552946
2.287078857421875	1072134.4591428707
2.290038824081421	1037133.9208731913
2.2929933071136475	1028147.9401567066
2.295942783355713	1038780.6000034959
2.298887014389038	1039248.5086578978
2.301826238632202	1068828.1067889193
2.304760217666626	1203783.2015162648
2.3076889514923096	1419983.9014341193
2.310612440109253	1585275.9477593373
2.3135311603546143	1521573.866615716
2.3164443969726562	1176912.7837102136
2.319352865219116	873475.3122568105
2.322256088256836	862928.8493528909
2.3251543045043945	922447.0123784131
2.328047275543213	884690.4933690971
2.330935478210449	869435.5008371165
2.3338186740875244	891704.8543673016
2.3366971015930176	873796.5883429329
2.3395702838897705	836216.182556175
2.3424389362335205	798467.5400385156
2.3453025817871094	769767.1971159013
2.348161458969116	794167.0720794366
2.351015567779541	894709.5837677262
2.353865146636963	1036986.2243158146
2.3567099571228027	1171596.4705158046
2.3595502376556396	1301180.2963268554
2.3623859882354736	1402099.1124423877
2.3652172088623047	1339862.2051600812
2.368043899536133	1051076.7262555016
2.370866537094116	735705.3288876975
2.3736846446990967	662889.9605322251
2.3764986991882324	805738.5826243378
2.3793084621429443	955704.8073336474
2.3821144104003906	1025124.2016326233
2.384916305541992	1071008.3656941922
2.387714147567749	1151798.5396060722
2.3905084133148193	1224356.693835835
2.393299102783203	1246103.7717453626
2.3960859775543213	1246283.7697300545
2.398869514465332	1282154.0849536331
2.4016497135162354	1318583.2452307246
2.4044265747070312	1304838.941368048
2.407200336456299	1325367.9001295515
2.409970998764038	1450005.2941571656
2.4127390384674072	1583634.054947299
2.415503978729248	1604575.4342996085
2.418266534805298	1563156.3976261292
2.4210267066955566	1573061.9192993725
2.4237842559814453	1619866.093876434
2.426539897918701	1678487.3519758978
2.429293394088745	1808315.3339008247
2.4320452213287354	1944961.8009996046
2.4347951412200928	1935533.9685903965
2.4375438690185547	1894592.602487996
2.440291166305542	2010690.2072765045
2.443037271499634	2079787.6223856888
2.445782423019409	1925362.5219364981
2.4485268592834473	1769804.1963672854
2.451270818710327	1776541.9767861152
2.454014539718628	1886987.7185570411
2.4567582607269287	1991409.934675692
2.4595019817352295	2009992.3034111615
2.4622461795806885	2007248.8868153102
2.4649908542633057	1979808.0286432945
2.4677364826202393	1857876.6838757112
2.4704833030700684	1700435.3430017019
2.473231554031372	1537321.2282149864
2.4759814739227295	1387063.9572970434
2.4787333011627197	1331978.3752864858
