#wavelength	surface flux
0.6450077295303345	1899.7013653115773
0.6472567915916443	2944.0027177128272
0.6494921445846558	3739.1602278373753
0.6517150402069092	4167.283242252657
0.6539263725280762	4594.524247121431
0.6561272740364075	5042.879965688643
0.6583186388015747	5519.623360578028
0.6605015397071838	6033.536086751115
0.6626768708229065	6581.878207774345
0.6648455858230591	7157.866936213813
0.6670085787773132	7686.8387229699965
0.6691668033599854	8013.994220652688
0.6713210344314575	8471.042937949818
0.6734722256660461	9427.300510329489
0.6756211519241333	10440.566873195876
0.6777685880661011	11247.744552433816
0.6799154281616211	12025.480093148586
0.6820623278617859	12820.477508439542
0.6842101216316223	13630.293612890908
0.6863595843315125	14444.983322921104
0.688511312007904	15232.309225182315
0.6906660795211792	15899.88521194399
0.6928245425224304	16496.193804364546
0.6949873566627502	17281.76610881795
0.6971551775932312	18225.78681249092
0.6993286609649658	19026.74758571409
0.7015084028244019	19650.229655179104
0.7036949396133423	20277.53983067218
0.7058889269828796	20912.89002998735
0.7080909013748169	21455.928047104357
0.710301399230957	21895.55537801786
0.712520956993103	22180.1688791255
0.7147500514984131	22117.814780460623
0.7169892191886902	21652.16921118928
0.7192389369010925	21275.40899205467
0.7214996814727783	21200.86638498115
0.723771870136261	20900.762172615046
0.7260559797286987	20261.432815443874
0.7283523678779602	19538.4525779649
0.7306615710258484	18795.181469842966
0.7329838871955872	18092.20866368127
0.7353196740150452	17269.06002627253
0.7376693487167358	16192.041262369212
0.7400332689285278	15019.118370315817
0.7424117922782898	13779.331167096187
0.7448052167892456	12442.941025754617
0.7472138404846191	11052.183133800592
0.7496379613876343	9612.162918996622
0.7520779371261597	8144.303514926282
0.7545340061187744	6685.164215279404
0.7570064663887024	5259.750978506482
0.7594954967498779	3883.0142974306787
0.7620013952255249	2550.673259645627
0.7645244002342224	1350.123525974061
0.7670646905899048	613.1878780197832
0.7696225643157959	652.7608252050096
0.7721980810165405	1637.1292574743643
0.7747915983200073	3418.191281007941
0.7774031162261963	5451.97301764155
0.7800329327583313	7724.532231038799
0.7826811671257019	10911.688855618379
0.7853479981422424	14900.000118968157
0.7880334854125977	19079.896387966186
0.7907378077507019	22141.59044630152
0.7934610247612	23116.3114832967
0.7962033748626709	27905.055182940065
0.7989648580551147	38688.58755587382
0.801745593547821	49004.11631856281
0.8045456409454346	57619.89384331994
0.8073651194572449	66050.4344663807
0.8102040886878967	73818.03604713964
0.8130625486373901	82190.08096213377
0.8159406185150146	93707.79112305037
0.8188382983207703	108049.39631657152
0.8217556476593018	123205.70574962495
0.8246926665306091	139424.79533708887
0.8276493549346924	157156.22860830015
0.8306257724761963	175596.53969527103
0.8336219191551208	194858.1425471921
0.8366377949714661	216016.96555236215
0.8396733403205872	240503.3275716378
0.8427285552024841	269316.0406470063
0.8458034992218018	300287.35298217
0.8488980531692505	320021.1809299395
0.8520121574401855	335139.8555952272
0.8551458716392517	384350.16335602314
0.8582990765571594	453905.7228725233
0.8614717125892639	509453.11506341427
0.8646637797355652	560465.6590018928
0.8678751587867737	617063.2560493206
0.8711057901382446	679416.8487241581
0.8743556141853333	744932.9383194026
0.87762451171875	809146.2007343733
0.8809124231338501	865138.0954650283
0.8842192888259888	914575.8099105713
0.8875449895858765	952286.701076331
0.8908893465995789	930829.2773575039
0.894252359867096	896270.3645749656
0.8976338505744934	1024034.9229232683
0.9010337591171265	1278932.8708534203
0.9044519662857056	1488010.5585942422
0.9078882932662964	1619686.2080286504
0.9113426208496094	1721719.6353427565
0.914814829826355	1805395.6818681366
0.9183048605918884	1885914.8960691202
0.9218124747276306	1956451.8379821267
0.925337553024292	1709638.765144877
0.9288799166679382	1139279.6961394914
0.9324395060539246	868721.2647965717
0.9360161423683167	1110888.3610616701
0.9396095871925354	1416156.5763480673
0.943219780921936	1306434.6393548416
0.9468464851379395	1048087.2623454776
0.9504896402359009	1142243.6791405536
0.9541489481925964	1463977.5384154017
0.9578243494033813	1617283.7853986348
0.9615156054496765	1510887.6417607283
0.9652225375175476	1551470.8321767338
0.9689450263977051	2056293.141312777
0.9726828336715698	2813945.723503284
0.9764357805252075	3306729.460563548
0.9802037477493286	3520760.3477827646
0.983986496925354	3877581.879114262
0.9877838492393494	4442482.104625423
0.9915955662727356	5041018.937842826
0.9954215884208679	5587713.114914962
0.9992615580558777	6057188.225181111
1.0031154155731201	6499923.2101344755
1.0069829225540161	7009419.0647693975
1.0108637809753418	7575016.110657541
1.0147579908370972	8127519.6986848395
1.018665075302124	8570505.78497498
1.022585153579712	8863061.504554663
1.0265177488327026	9103343.548058588
1.0304628610610962	9436223.521396616
1.0344202518463135	9875280.536210611
1.0383895635604858	10266577.291665332
1.0423706769943237	10533048.497076862
1.0463634729385376	10719950.80121899
1.0503677129745483	10891661.31082487
1.0543830394744873	11109591.630949384
1.058409333229065	11357952.783337781
1.0624464750289917	11537128.074996043
1.0664942264556885	11552811.918847034
1.0705522298812866	11480144.214744268
1.0746204853057861	11489175.661103966
1.0786986351013184	11539062.041542929
1.0827864408493042	11476990.965305008
1.086883783340454	11014393.599554231
1.0909905433654785	9807121.463623317
1.0951062440872192	8026686.528330182
1.0992310047149658	5899562.970211842
1.10336434841156	3753452.6641378966
1.1075061559677124	2441074.070018629
1.1116561889648438	1727240.3290133711
1.115814208984375	1150204.3310795075
1.1199802160263062	839454.6127606198
1.124153733253479	757748.1430879637
1.1283347606658936	946657.685693785
1.1325229406356812	1116285.9330447915
1.1367181539535522	1560641.4668433464
1.1409201622009277	2063034.6928622855
1.145128846168518	1966126.695979489
1.1493438482284546	1608406.9415631625
1.1535650491714478	1138004.718540789
1.1577922105789185	889827.8172081667
1.1620250940322876	1102678.8466759531
1.1662636995315552	1500713.7577758334
1.170507550239563	2043652.5365876865
1.174756646156311	3043383.334274738
1.1790107488632202	4582466.4377307305
1.1832695007324219	6359993.7806419935
1.1875330209732056	7874371.467311178
1.191800832748413	9370153.339882454
1.1960728168487549	11063594.86846917
1.2003488540649414	12377301.692593396
1.2046287059783936	13430229.422548614
1.2089121341705322	14189551.722964441
1.2131990194320679	14788149.38341248
1.2174891233444214	15722784.53765611
1.2217823266983032	16767728.833013918
1.2260783910751343	17683411.389337882
1.230377197265625	18479972.488241993
1.2346785068511963	19304514.90063374
1.238982081413269	20245533.02329612
1.2432878017425537	21130583.388167262
1.2475954294204712	21857905.348505396
1.2519049644470215	22547321.716050554
1.256216049194336	23462905.853150148
1.2605286836624146	24357353.796732374
1.2648425102233887	24938591.134581085
1.2691574096679688	25419155.660173487
1.2734732627868652	25774500.92520527
1.2777899503707886	25581020.32381682
1.2821072340011597	24644685.70536273
1.2864248752593994	23233725.309948813
1.2907428741455078	21562664.19727435
1.2950609922409058	20346648.793181513
1.2993791103363037	19718974.482897718
1.303696870803833	19437699.18984867
1.3080145120620728	19292631.771995585
1.3123314380645752	18681102.95192204
1.3166478872299194	18205859.26340867
1.3209635019302368	16850252.930129725
1.3252781629562378	12953366.362631317
1.3295916318893433	7683518.952437077
1.3339040279388428	3178257.29888954
1.3382149934768677	835370.2333239951
1.3425244092941284	192735.9098986546
1.3468321561813354	75495.90677132878
1.3511382341384888	41076.90053598086
1.3554422855377197	20141.13291979641
1.3597444295883179	19704.146720267927
1.3640443086624146	17526.06917832359
1.3683418035507202	20064.278916086896
1.3726370334625244	31331.929952598042
1.3769296407699585	32312.359246183034
1.381219506263733	16176.553951928958
1.3855066299438477	6665.886874871495
1.3897908926010132	12575.159586509186
1.3940720558166504	26255.017824266244
1.3983501195907593	49923.09149421635
1.4026249647140503	88644.58801162355
1.4068963527679443	105598.6276522192
1.4111642837524414	68939.84890637673
1.4154287576675415	33283.4323877121
1.419689416885376	32814.57537471571
1.4239463806152344	47930.53104475621
1.4281994104385376	73879.54682331358
1.4324485063552856	90594.11777248573
1.436693549156189	108856.83193642898
1.440934419631958	182142.4823180807
1.4451709985733032	295161.1005031582
1.449403166770935	423037.835320214
1.453631043434143	574244.3500362261
1.4578542709350586	776192.1129620539
1.4620729684829712	907639.4955670742
1.4662868976593018	870604.0655431622
1.4704961776733398	811845.3799365857
1.4747005701065063	786386.5868228141
1.4788999557495117	733935.1650903664
1.4830944538116455	689433.6018415443
1.4872838258743286	620750.8714753039
1.491468071937561	536510.7761328389
1.4956470727920532	640336.8770069969
1.4998208284378052	1067747.8580642524
1.5039892196655273	1530115.080415297
1.5081522464752197	1605624.500607682
1.5123097896575928	1662638.3610560582
1.5164618492126465	2154466.807396364
1.5206083059310913	2869878.9815058536
1.5247491598129272	3603457.2599213133
1.5288842916488647	4337720.022902085
1.5330137014389038	4981322.151051994
1.5371372699737549	5757557.9900161
1.541254997253418	6713665.65624011
1.545366883277893	7571022.6580081275
1.5494728088378906	8571831.786411189
1.5535727739334106	9872042.136447327
1.5576666593551636	11271281.229922866
1.561754584312439	12768530.534946416
1.5658363103866577	14045264.827499343
1.5699119567871094	14518001.919165203
1.5739814043045044	14362687.364227973
1.5780447721481323	14213916.166311074
1.582101821899414	14371418.562159898
1.5861525535583496	14567633.993782187
1.5901970863342285	14308113.911874862
1.5942351818084717	13726418.784668535
1.5982669591903687	13180660.68997425
1.6022924184799194	12395080.034320407
1.606311559677124	11402260.422418933
1.6103241443634033	10593664.949570913
1.6143304109573364	9731841.152127303
1.6183301210403442	8516883.307029912
1.6223233938217163	7155534.015250888
1.6263102293014526	6002147.558622084
1.6302905082702637	5345171.585098085
1.634264349937439	5811915.425680741
1.638231635093689	7143399.03429179
1.6421923637390137	7064861.422836485
1.646146535873413	5154771.601818707
1.6500942707061768	4448194.349014177
1.6540353298187256	5582849.475197637
1.6579699516296387	6241024.959769433
1.661897897720337	5582463.578823883
1.6658192873001099	3801268.054869934
1.6697341203689575	2601277.8918652064
1.6736423969268799	3053645.207408183
1.677544116973877	3375468.362286433
1.6814392805099487	3158066.2987092147
1.6853278875350952	2928985.166593344
1.6892099380493164	2507605.177026115
1.6930854320526123	1939555.881618641
1.696954369544983	1461320.4336374297
1.7008168697357178	1368439.6350790136
1.7046726942062378	1542172.3111574312
1.708522081375122	1908968.7723877782
1.712364912033081	2448068.1609196765
1.7162011861801147	2980733.231456634
1.7200311422348022	3285279.5740399724
1.723854422569275	3156836.8071937733
1.7276713848114014	2832485.2036655825
1.731481909751892	2605875.095339314
1.7352858781814575	2487516.0021734885
1.7390835285186768	2443296.763042618
1.7428747415542603	2372938.590810967
1.7466596364974976	2244673.4857412656
1.7504380941390991	2035541.057352118
1.7542102336883545	1684987.2611329444
1.7579760551452637	1426867.9296894507
1.7617355585098267	1331811.999489192
1.7654887437820435	1142012.8846603564
1.7692357301712036	899134.2592527635
1.7729763984680176	713940.0960745707
1.776710867881775	535339.3932268416
1.7804391384124756	428755.9451236737
1.7841613292694092	390102.01381992095
1.7878772020339966	297769.4115374234
1.7915871143341064	207921.4229814671
1.7952908277511597	200442.99539097538
1.7989884614944458	206736.2290325818
1.8026801347732544	135584.15148623774
1.806365728378296	59037.051251852405
1.8100452423095703	36096.181931055275
1.8137187957763672	25673.29869768924
1.817386507987976	20560.584297857094
1.8210482597351074	19655.129992391838
1.8247040510177612	17519.14049933169
1.828354001045227	13646.135366659384
1.8319982290267944	12283.515157244294
1.8356364965438843	13374.535349799053
1.8392690420150757	28948.829784631675
1.8428958654403687	81880.27006935146
1.8465168476104736	126007.04286746916
1.8501322269439697	101547.2304839664
1.8537418842315674	64577.772102494455
1.8573459386825562	75203.16482403346
1.860944390296936	78846.12437708792
1.864537239074707	52853.086115650505
1.8681244850158691	38143.71794376789
1.871706247329712	33479.48775489598
1.8752825260162354	75559.63159591015
1.8788533210754395	198346.0998728287
1.8824186325073242	257349.40413420304
1.8859784603118896	187487.20320092456
1.8895330429077148	156401.65920576148
1.8930821418762207	271750.3541117298
1.8966259956359863	334155.1258064837
1.9001644849777222	182037.70566931315
1.9036977291107178	58250.24234229591
1.9072256088256836	75014.79737548747
1.9107483625411987	75927.97891534503
1.9142658710479736	37254.95371589498
1.9177782535552979	17268.68434387624
1.9212853908538818	13321.169573325416
1.9247875213623047	14630.142445241308
1.9282845258712769	19932.663974944455
1.9317764043807983	25507.916541770493
1.9352631568908691	33676.154219503595
1.9387450218200684	44538.34222032078
1.942221760749817	54581.12414167851
1.9456936120986938	63808.613572245
1.9491604566574097	84356.55799075589
1.952622413635254	88997.67714435038
1.956079363822937	62306.256768426174
1.959531545639038	64003.99139002783
1.962978720664978	119227.5464625801
1.966421127319336	184579.91312875293
1.9698586463928223	224558.8158132567
1.9732913970947266	232617.91314576907
1.9767193794250488	204460.81461945275
1.9801424741744995	199088.9200939788
1.9835609197616577	300526.50507169
1.9869745969772339	409443.0079644635
1.990383505821228	402062.11423978995
1.9937876462936401	353208.78169506113
1.9971871376037598	429015.6197426132
2.000581979751587	586730.3677419778
2.003972291946411	564948.6426465622
2.007357597351074	533970.8598796172
2.0107386112213135	704356.567844695
2.0141148567199707	755674.0270057166
2.017486572265625	684848.5125795086
2.0208535194396973	694063.409067292
2.0242159366607666	693067.6549008465
2.027573823928833	743839.5942832988
2.0309269428253174	842435.0244151468
2.034275770187378	902622.3288575399
2.0376198291778564	1015824.4787054737
2.040959596633911	1151331.6899153416
2.044294595718384	1315836.51088037
2.0476250648498535	1528035.277859359
2.0509510040283203	1615299.1376021076
2.054272413253784	1593908.4676838235
2.057589530944824	1658610.9508815475
2.0609018802642822	1781523.122859994
2.0642096996307373	1835216.652948085
2.0675129890441895	1841895.8778722764
2.0708119869232178	1842458.8050479342
2.074106216430664	1834471.6462475094
2.0773961544036865	1828132.3329476926
2.080681324005127	1822881.249960367
2.0839622020721436	1828417.2069638316
2.087238311767578	1848909.6096505043
2.090510129928589	1857383.4265494782
2.0937774181365967	1845184.122641509
2.0970399379730225	1826991.3830772673
2.1002981662750244	1803346.4111927433
2.1035518646240234	1774268.000207538
2.1068007946014404	1744686.730631461
2.1100454330444336	1722219.8476918887
2.1132853031158447	1709245.359218819
2.116520881652832	1692126.8620369558
2.1197516918182373	1668333.5926988255
2.1229779720306396	1648158.3480080832
2.12619948387146	1630582.065487689
2.1294167041778564	1610827.4410429865
2.132629156112671	1589678.9027068221
2.1358368396759033	1556367.7616390693
2.139039993286133	1516174.046139155
2.1422386169433594	1465515.2156166248
2.145432472229004	1418030.4737371667
2.1486217975616455	1384315.2293659332
2.151806354522705	1323714.9503103807
2.1549863815307617	1283248.6620218316
2.1581614017486572	1275536.3172756666
2.16133189201355	1242598.9224843744
2.1644976139068604	1198387.022751753
2.167658567428589	1159153.7846958651
2.1708147525787354	1140100.2637133142
2.173966407775879	1129986.7855707605
2.1771130561828613	1075892.195933448
2.1802549362182617	984544.1351858393
2.183391809463501	914666.9129216335
2.1865241527557373	847515.9854183942
2.1896514892578125	708220.0350014768
2.1927738189697266	514573.715205945
2.1958916187286377	368175.6624487542
2.1990041732788086	285044.9428875706
2.2021119594573975	223707.79851895716
2.2052149772644043	196694.2163589488
2.208312749862671	216567.00095162579
2.2114057540893555	270233.4754648386
2.214493751525879	319817.9094825806
2.217576742172241	327809.7308271372
2.2206547260284424	302036.8668805908
2.2237277030944824	270518.87813807855
2.2267956733703613	240361.9952892541
2.2298583984375	218725.9215704662
2.2329163551330566	211925.36797656928
2.235969066619873	206338.52161136095
2.2390167713165283	189443.24548318272
2.2420592308044434	153607.69719725862
2.2450966835021973	104811.8377721042
2.248128890991211	87277.07392194995
2.2511560916900635	110331.5780310633
2.254178285598755	121191.98971382093
2.257194995880127	115589.82764402282
2.260206699371338	116583.205530702
2.2632133960723877	115936.79625464624
2.266214609146118	119055.98755321567
2.2692108154296875	137327.6896490162
2.2722020149230957	162478.74963022675
2.2751877307891846	173780.32600690532
2.278168201446533	161315.95993710138
2.2811436653137207	139103.25695873817
2.284113883972168	124373.14117709149
2.287078857421875	116618.63805974464
2.290038824081421	108566.62243819868
2.2929933071136475	105172.25278721916
2.295942783355713	105052.04279777649
2.298887014389038	99481.4898336475
2.301826238632202	100911.09488705052
2.304760217666626	137394.58971671696
2.3076889514923096	210075.24681071658
2.310612440109253	282220.96710357425
2.3135311603546143	281112.19192071486
2.3164443969726562	179275.5856894227
2.319352865219116	91109.04083339122
2.322256088256836	89783.68255447768
2.3251543045043945	106624.57112285016
2.328047275543213	98279.0406282945
2.330935478210449	92696.09481698665
2.3338186740875244	96099.63240519552
2.3366971015930176	89729.66077415252
2.3395702838897705	78295.93302749096
2.3424389362335205	68410.38312471949
2.3453025817871094	61395.85042282193
2.348161458969116	63667.02730603073
2.351015567779541	80902.16462314784
2.353865146636963	109833.5929103713
2.3567099571228027	144708.59080854454
2.3595502376556396	189986.92562547358
2.3623859882354736	230546.39418154352
2.3652172088623047	215895.36697325905
2.368043899536133	138950.9782350243
2.370866537094116	67539.70756230553
2.3736846446990967	52328.07654118578
2.3764986991882324	79168.22470023483
2.3793084621429443	113083.61686436199
2.3821144104003906	129891.39539896506
2.384916305541992	135393.77969167312
2.387714147567749	149340.42121219778
2.3905084133148193	166549.56967403105
2.393299102783203	172296.54535284734
2.3960859775543213	170397.65824308788
2.398869514465332	179593.53668521548
2.4016497135162354	191321.83927335206
2.4044265747070312	189277.50000732762
2.407200336456299	200908.81750254188
2.409970998764038	252881.66487260905
2.4127390384674072	309450.30892377184
2.415503978729248	318216.5770702876
2.418266534805298	299849.53650630976
2.4210267066955566	302700.5669336496
2.4237842559814453	318866.2103065452
2.426539897918701	345271.893531523
2.429293394088745	416519.5962566698
2.4320452213287354	490488.7951022375
2.4347951412200928	485795.0440788533
2.4375438690185547	473596.9206176591
2.440291166305542	550706.4785694769
2.443037271499634	592826.0901456856
2.445782423019409	501216.4688994664
2.4485268592834473	406549.1116295325
2.451270818710327	416851.0127195122
2.454014539718628	494781.1620058213
2.4567582607269287	562841.7035523935
2.4595019817352295	585997.8317955378
2.4622461795806885	587159.2613828636
2.4649908542633057	564111.0540203082
2.4677364826202393	500792.4341578428
2.4704833030700684	429821.8503816891
2.473231554031372	373684.2090613439
2.4759814739227295	334518.84629569115
2.4787333011627197	323899.9713810594
