#wavelength	surface flux
0.6450077295303345	227.98484545764794
0.6472567915916443	244.43540141174148
0.6494921445846558	261.87260385270145
0.6517150402069092	280.1996757362045
0.6539263725280762	299.6089694317594
0.6561272740364075	320.0442746076128
0.6583186388015747	341.6557398512421
0.6605015397071838	364.4822070151494
0.6626768708229065	388.5341056180679
0.6648455858230591	413.9245743350039
0.6670085787773132	440.67984521742187
0.6691668033599854	468.86366096821735
0.6713210344314575	498.383502661346
0.6734722256660461	529.9771325361322
0.6756211519241333	563.004232039904
0.6777685880661011	597.7413691970269
0.6799154281616211	634.4303281689882
0.6820623278617859	673.1022419007013
0.6842101216316223	713.8505373082305
0.6863595843315125	756.7780864079814
0.688511312007904	801.978039762703
0.6906660795211792	849.4755542608601
0.6928245425224304	898.6606291388732
0.6949873566627502	952.3403405283602
0.6971551775932312	1008.3615671704353
0.6993286609649658	1066.5777598730363
0.7015084028244019	1128.827059165123
0.7036949396133423	1193.9741232926035
0.7058889269828796	1262.9372783015551
0.7080909013748169	1335.0989493718976
0.710301399230957	1411.1595444959523
0.712520956993103	1491.7217454276363
0.7147500514984131	1576.1179493292875
0.7169892191886902	1657.7676487105862
0.7192389369010925	1757.5054900689072
0.7214996814727783	1857.791689555152
0.723771870136261	1961.7506334078723
0.7260559797286987	2071.8349555902832
0.7283523678779602	2188.9394273619764
0.7306615710258484	2307.697787835778
0.7329838871955872	2440.1950097629724
0.7353196740150452	2572.9628328747767
0.7376693487167358	2718.4676212830705
0.7400332689285278	2869.553769761179
0.7424117922782898	3027.6311899265165
0.7448052167892456	3194.4825153016623
0.7472138404846191	3371.3461270135513
0.7496379613876343	3556.4096167509233
0.7520779371261597	3747.2378610511155
0.7545340061187744	3944.7144365275944
0.7570064663887024	4142.494310274369
0.7594954967498779	4326.033407021953
0.7620013952255249	4448.339768158574
0.7645244002342224	4322.93083202048
0.7670646905899048	4033.2267242013327
0.7696225643157959	4336.767501553897
0.7721980810165405	5190.87561676499
0.7747915983200073	5879.777053760643
0.7774031162261963	6327.085865050908
0.7800329327583313	6431.24819510249
0.7826811671257019	7129.726048155374
0.7853479981422424	7547.802018990327
0.7880334854125977	7974.8822356656265
0.7907378077507019	8421.877029694419
0.7934610247612	8822.58614091878
0.7962033748626709	9272.934298966176
0.7989648580551147	9899.640784661888
0.801745593547821	10446.116311054497
0.8045456409454346	11022.237754082314
0.8073651194572449	11625.487221654028
0.8102040886878967	12236.4251000286
0.8130625486373901	12879.188331783676
0.8159406185150146	13602.697605420626
0.8188382983207703	14340.149730709429
0.8217556476593018	15136.891405624938
0.8246926665306091	15954.327383949829
0.8276493549346924	16824.63916987235
0.8306257724761963	17732.668390960705
0.8336219191551208	18705.81888156656
0.8366377949714661	19698.7189780588
0.8396733403205872	20771.40531661486
0.8427285552024841	21908.898297442203
0.8458034992218018	23073.793731712172
0.8488980531692505	24315.34038937649
0.8520121574401855	25622.223697846413
0.8551458716392517	26988.54339004728
0.8582990765571594	28424.048733541164
0.8614717125892639	29793.09134728022
0.8646637797355652	31332.11604287461
0.8678751587867737	33097.23916673692
0.8711057901382446	34828.340190166185
0.8743556141853333	36676.56633382452
0.87762451171875	38611.989385634326
0.8809124231338501	40628.842482264736
0.8842192888259888	42760.62260212557
0.8875449895858765	44973.96832497765
0.8908893465995789	47187.704443959155
0.894252359867096	49540.377643497806
0.8976338505744934	51652.990880364494
0.9010337591171265	54704.256572048624
0.9044519662857056	57701.41855718304
0.9078882932662964	60521.34617083017
0.9113426208496094	63500.91811865814
0.914814829826355	66729.72751954354
0.9183048605918884	69936.30843177628
0.9218124747276306	73554.94576087619
0.925337553024292	76664.25263438941
0.9288799166679382	77818.57744213924
0.9324395060539246	78234.43753643401
0.9360161423683167	85021.7754899381
0.9396095871925354	92312.14161971753
0.943219780921936	96456.41974499654
0.9468464851379395	98517.40569071783
0.9504896402359009	103138.94896947025
0.9541489481925964	109509.53366640036
0.9578243494033813	115363.15007860628
0.9615156054496765	120535.6366669333
0.9652225375175476	127150.3087747458
0.9689450263977051	134854.93192881747
0.9726828336715698	139452.38393583448
0.9764357805252075	147753.0805013168
0.9802037477493286	154319.85991318495
0.983986496925354	162301.3904472319
0.9877838492393494	170155.3109248622
0.9915955662727356	178144.07306927562
0.9954215884208679	186429.07388973967
0.9992615580558777	194720.43897560347
1.0031154155731201	203147.25338364043
1.0069829225540161	212033.63775305095
1.0108637809753418	221241.07871894084
1.0147579908370972	230750.65084637716
1.018665075302124	240576.80463411927
1.022585153579712	250768.84171593137
1.0265177488327026	261304.87090215762
1.0304628610610962	272207.4691151603
1.0344202518463135	283492.7241043906
1.0383895635604858	295125.87843974034
1.0423706769943237	307193.7160810428
1.0463634729385376	319597.04127241037
1.0503677129745483	332459.6930629339
1.0543830394744873	345748.793312075
1.058409333229065	359384.99192639126
1.0624464750289917	374319.1241640724
1.0664942264556885	389230.3587818466
1.0705522298812866	404394.5604834203
1.0746204853057861	420113.70166304003
1.0786986351013184	435892.7005437645
1.0827864408493042	452628.01038348954
1.086883783340454	469063.4528970777
1.0909905433654785	485821.36050440057
1.0951062440872192	502059.93402167864
1.0992310047149658	515342.78369329585
1.10336434841156	525807.908565387
1.1075061559677124	537705.0893582747
1.1116561889648438	537306.0736891908
1.115814208984375	499730.80974217074
1.1199802160263062	557684.3162728813
1.124153733253479	523441.4863060324
1.1283347606658936	623553.7206971548
1.1325229406356812	628347.2314826754
1.1367181539535522	664388.117657905
1.1409201622009277	722569.5046284652
1.145128846168518	707995.1853912723
1.1493438482284546	704417.0373521079
1.1535650491714478	764423.2171045796
1.1577922105789185	811065.5416639805
1.1620250940322876	829517.8379614622
1.1662636995315552	864889.0961251121
1.170507550239563	892548.1102604783
1.174756646156311	927453.921767073
1.1790107488632202	972262.7211949972
1.1832695007324219	1008625.7272245162
1.1875330209732056	1042004.444817122
1.191800832748413	1079139.3407148377
1.1960728168487549	1113512.8992720607
1.2003488540649414	1147703.1056070526
1.2046287059783936	1186456.1159854387
1.2089121341705322	1219768.6029715233
1.2131990194320679	1255851.8845937736
1.2174891233444214	1296482.391985905
1.2217823266983032	1334207.0867937042
1.2260783910751343	1373611.8852591556
1.230377197265625	1413578.1019398847
1.2346785068511963	1454941.4067889615
1.238982081413269	1497013.8127441467
1.2432878017425537	1538602.512431543
1.2475954294204712	1581161.8462438777
1.2519049644470215	1624592.1495401908
1.256216049194336	1669808.7679937372
1.2605286836624146	1714888.2881126055
1.2648425102233887	1759667.9150786072
1.2691574096679688	1806402.5944218463
1.2734732627868652	1851071.0230561327
1.2777899503707886	1899922.3131392316
1.2821072340011597	1944957.0079188347
1.2864248752593994	1990774.0513622575
1.2907428741455078	2039019.4163108894
1.2950609922409058	2067803.1203169848
1.2993791103363037	2127529.624831006
1.303696870803833	2182105.83967601
1.3080145120620728	2240897.7363418797
1.3123314380645752	2291814.9906334216
1.3166478872299194	2339371.114979083
1.3209635019302368	2389981.4266851787
1.3252781629562378	2438191.5271592787
1.3295916318893433	2443722.310952222
1.3339040279388428	2398463.6284807604
1.3382149934768677	1878332.381052953
1.3425244092941284	1653469.7094403417
1.3468321561813354	1347387.1386441942
1.3511382341384888	1496089.5662996678
1.3554422855377197	1160550.682607257
1.3597444295883179	1043440.1953821421
1.3640443086624146	1601593.0007999958
1.3683418035507202	1644082.0919160997
1.3726370334625244	1964274.070720824
1.3769296407699585	2108226.0400269814
1.381219506263733	1769578.1759617187
1.3855066299438477	1420478.2798433274
1.3897908926010132	1838887.6159128654
1.3940720558166504	1623934.6692957284
1.3983501195907593	1886458.8352574455
1.4026249647140503	2176539.2275984846
1.4068963527679443	2169754.9159668065
1.4111642837524414	2135401.576915668
1.4154287576675415	2160010.8761372953
1.419689416885376	1832304.2604330112
1.4239463806152344	1827536.0945702943
1.4281994104385376	2585713.2462104126
1.4324485063552856	2222784.4020639486
1.436693549156189	2813735.6674026204
1.440934419631958	2672736.623204331
1.4451709985733032	2910859.462825201
1.449403166770935	3214408.2065526247
1.453631043434143	3428318.204175973
1.4578542709350586	3858317.3219505157
1.4620729684829712	3764086.596549148
1.4662868976593018	4103567.316429262
1.4704961776733398	4045677.4499364905
1.4747005701065063	4209676.740474953
1.4788999557495117	4400253.647166041
1.4830944538116455	4396875.480811567
1.4872838258743286	4605321.580757868
1.491468071937561	4733078.501058283
1.4956470727920532	4827458.573477967
1.4998208284378052	5029243.0030318545
1.5039892196655273	5141248.592431277
1.5081522464752197	5253097.7269094465
1.5123097896575928	5403897.679162638
1.5164618492126465	5552971.791913204
1.5206083059310913	5681590.617819061
1.5247491598129272	5825208.760877288
1.5288842916488647	5855400.371411389
1.5330137014389038	6073770.504824726
1.5371372699737549	6189889.736989478
1.541254997253418	6288017.361462012
1.545366883277893	6369472.44887854
1.5494728088378906	6490121.162454474
1.5535727739334106	6619010.14542397
1.5576666593551636	6718045.138354933
1.561754584312439	6784375.292998851
1.5658363103866577	6932963.272951318
1.5699119567871094	7038284.979304322
1.5739814043045044	7146072.198488115
1.5780447721481323	7257161.734347381
1.582101821899414	7348423.332423878
1.5861525535583496	7420168.9576399885
1.5901970863342285	7535097.2845715135
1.5942351818084717	7644308.674084959
1.5982669591903687	7749691.655271219
1.6022924184799194	7852328.33386193
1.606311559677124	7951545.095807923
1.6103241443634033	8054795.298914645
1.6143304109573364	8154416.640736927
1.6183301210403442	8242798.351220517
1.6223233938217163	8225130.666928622
1.6263102293014526	8142497.423593012
1.6302905082702637	7932431.61175182
1.634264349937439	8290088.935773936
1.638231635093689	8638984.922540631
1.6421923637390137	8737514.15120676
1.646146535873413	8776235.792544216
1.6500942707061768	8887750.752763819
1.6540353298187256	8954810.781577248
1.6579699516296387	8990863.061745647
1.661897897720337	9202768.883962354
1.6658192873001099	8513229.99527458
1.6697341203689575	8721783.691373337
1.6736423969268799	9537181.046505444
1.677544116973877	9578038.9894803
1.6814392805099487	9591828.175439144
1.6853278875350952	9578249.077765511
1.6892099380493164	9883750.614237292
1.6930854320526123	9442361.439379634
1.696954369544983	9768738.517481877
1.7008168697357178	9365212.340169007
1.7046726942062378	9575625.567532757
1.708522081375122	9907757.303413369
1.712364912033081	10428787.023320211
1.7162011861801147	10584617.058386708
1.7200311422348022	10528771.020654175
1.723854422569275	10057343.300086478
1.7276713848114014	10072059.718727453
1.731481909751892	10047988.605076972
1.7352858781814575	9976553.039705096
1.7390835285186768	10607266.4263492
1.7428747415542603	10722133.66538216
1.7466596364974976	10754039.296965972
1.7504380941390991	10905682.760019863
1.7542102336883545	10000233.520129966
1.7579760551452637	9996978.559543487
1.7617355585098267	9896445.243571585
1.7654887437820435	9388210.43149526
1.7692357301712036	9130894.647457022
1.7729763984680176	9250298.892670663
1.776710867881775	7719310.707289782
1.7804391384124756	8316311.528765946
1.7841613292694092	6925379.308333607
1.7878772020339966	7286493.692006443
1.7915871143341064	6696355.475694696
1.7952908277511597	6829491.058920735
1.7989884614944458	7119977.4733760115
1.8026801347732544	5294903.526895613
1.806365728378296	5586511.466937721
1.8100452423095703	5579913.545949524
1.8137187957763672	6973043.278811781
1.817386507987976	6880785.645486626
1.8210482597351074	6257644.28970201
1.8247040510177612	8314147.9967695065
1.828354001045227	6678000.971783518
1.8319982290267944	6596011.044872078
1.8356364965438843	6521167.265947562
1.8392690420150757	6258022.444943602
1.8428958654403687	7072660.074706287
1.8465168476104736	6987015.958653135
1.8501322269439697	7028995.325820886
1.8537418842315674	7766903.908206017
1.8573459386825562	6203727.788407979
1.860944390296936	4475772.04734844
1.864537239074707	4681198.541985658
1.8681244850158691	4672090.192500852
1.871706247329712	4919777.309650139
1.8752825260162354	6145492.54777193
1.8788533210754395	8592246.471262572
1.8824186325073242	8807257.848045567
1.8859784603118896	7868607.932405
1.8895330429077148	8003463.758299616
1.8930821418762207	8899439.413460879
1.8966259956359863	9165991.146450983
1.9001644849777222	7335255.177955136
1.9036977291107178	7750490.492612226
1.9072256088256836	9523064.72016117
1.9107483625411987	9517508.203810612
1.9142658710479736	7487322.4894723445
1.9177782535552979	9737791.411818141
1.9212853908538818	7753448.607044393
1.9247875213623047	7802100.600686112
1.9282845258712769	8251306.636583096
1.9317764043807983	7594455.215034011
1.9352631568908691	8210282.020394769
1.9387450218200684	5008390.875418499
1.942221760749817	6663859.400591576
1.9456936120986938	7122608.439423194
1.9491604566574097	7395408.938418628
1.952622413635254	9029628.382583877
1.956079363822937	6993123.15667024
1.959531545639038	7094797.828105501
1.962978720664978	7626421.148833981
1.966421127319336	10149196.103529487
1.9698586463928223	10117140.265021084
1.9732913970947266	10203660.466060936
1.9767193794250488	10181016.758933049
1.9801424741744995	10397262.260497853
1.9835609197616577	11688635.060374556
1.9869745969772339	11978231.80734784
1.990383505821228	9655562.370588189
1.9937876462936401	12074992.949954085
1.9971871376037598	12344038.858631114
2.000581979751587	11204900.650392158
2.003972291946411	13049829.229903182
2.007357597351074	13764534.288765516
2.0107386112213135	14273817.48328794
2.0141148567199707	15560345.79879703
2.017486572265625	14586646.845453734
2.0208535194396973	15467641.467715627
2.0242159366607666	16156208.611464582
2.027573823928833	15392752.197362922
2.0309269428253174	14915783.902045202
2.034275770187378	16260242.071928995
2.0376198291778564	16627354.969872868
2.040959596633911	16710500.047029458
2.044294595718384	16629411.631006878
2.0476250648498535	15800771.682048056
2.0509510040283203	15609261.964763995
2.054272413253784	16432488.155796995
2.057589530944824	16533888.113259705
2.0609018802642822	15991036.711552892
2.0642096996307373	16399872.417290695
2.0675129890441895	16784641.53003179
2.0708119869232178	17071863.44111753
2.074106216430664	17291521.85160938
2.0773961544036865	17396087.640674017
2.080681324005127	17484389.967726763
2.0839622020721436	17412750.229212455
2.087238311767578	17285632.737212572
2.090510129928589	17438843.480911054
2.0937774181365967	17521566.808675732
2.0970399379730225	17564192.787519947
2.1002981662750244	17531387.230351914
2.1035518646240234	17667400.190868087
2.1068007946014404	17651076.29577735
2.1100454330444336	17265685.673973337
2.1132853031158447	16931358.046468712
2.116520881652832	17263026.57962154
2.1197516918182373	17687904.929537803
2.1229779720306396	17848288.859628856
2.12619948387146	17865888.52118222
2.1294167041778564	17859226.612440165
2.132629156112671	17911035.265694335
2.1358368396759033	17992213.54933187
2.139039993286133	18007279.1672387
2.1422386169433594	17973792.322852682
2.145432472229004	17969676.374291487
2.1486217975616455	17903101.1256717
2.151806354522705	17693066.962974332
2.1549863815307617	17269167.566533364
2.1581614017486572	17645116.242963623
2.16133189201355	17878611.142516263
2.1644976139068604	17967708.61891928
2.167658567428589	18043140.500408635
2.1708147525787354	17986463.027714573
2.173966407775879	17865868.804055505
2.1771130561828613	18030777.81905982
2.1802549362182617	18135247.070240356
2.183391809463501	18144076.40111078
2.1865241527557373	18106918.000316497
2.1896514892578125	18074082.953063153
2.1927738189697266	18083674.200746875
2.1958916187286377	17842998.00192592
2.1990041732788086	17029954.93430202
2.2021119594573975	16795697.828002475
2.2052149772644043	17427465.535110198
2.208312749862671	17977937.824571036
2.2114057540893555	18069571.390934296
2.214493751525879	17697366.102860227
2.217576742172241	17317895.378096282
2.2206547260284424	17427972.73801752
2.2237277030944824	17036818.47921016
2.2267956733703613	16321454.73130096
2.2298583984375	16202946.421706883
2.2329163551330566	16657314.872619677
2.235969066619873	17075372.24464539
2.2390167713165283	15994900.846259365
2.2420592308044434	15187233.170993255
2.2450966835021973	15678462.532391276
2.248128890991211	15630330.106403532
2.2511560916900635	15735216.53779749
2.254178285598755	15060169.403636415
2.257194995880127	15153216.926749181
2.260206699371338	15688355.440543842
2.2632133960723877	15042874.950978916
2.266214609146118	15483622.2665639
2.2692108154296875	16297091.25775544
2.2722020149230957	16458151.611280918
2.2751877307891846	16018191.709010541
2.278168201446533	16063762.991396189
2.2811436653137207	17020383.33042913
2.284113883972168	15507674.320219832
2.287078857421875	13589022.562844351
2.290038824081421	14596705.290236952
2.2929933071136475	14368241.043504013
2.295942783355713	13911664.955864917
2.298887014389038	14318835.750275701
2.301826238632202	15318819.476611294
2.304760217666626	16361244.018033983
2.3076889514923096	17096100.51991574
2.310612440109253	17353352.816064574
2.3135311603546143	16314643.536356844
2.3164443969726562	13957997.925967481
2.319352865219116	13993680.632075565
2.322256088256836	14224249.938183598
2.3251543045043945	13829456.13724484
2.328047275543213	14148066.378863512
2.330935478210449	14154236.97803016
2.3338186740875244	13779974.29705861
2.3366971015930176	13623879.70920372
2.3395702838897705	14120121.130635107
2.3424389362335205	14121644.86081478
2.3453025817871094	13223068.574258247
2.348161458969116	12465601.211367032
2.351015567779541	13185812.97720299
2.353865146636963	13931182.36556594
2.3567099571228027	13592315.885405758
2.3595502376556396	13822783.26889434
2.3623859882354736	15252546.880558955
2.3652172088623047	16338712.992263474
2.368043899536133	13889070.495915331
2.370866537094116	11007074.836924892
2.3736846446990967	11012884.71607102
2.3764986991882324	11894794.90387629
2.3793084621429443	13182572.891808413
2.3821144104003906	14129742.511414772
2.384916305541992	13968276.41168397
2.387714147567749	14187156.164080977
2.3905084133148193	15998718.540690655
2.393299102783203	16657923.598927822
2.3960859775543213	15162614.691655325
2.398869514465332	13010660.809952712
2.4016497135162354	12197763.37192665
2.4044265747070312	13071015.906426173
2.407200336456299	14648438.992423998
2.409970998764038	14950034.124792324
2.4127390384674072	14212526.574702352
2.415503978729248	12717738.516287107
2.418266534805298	12229623.84242012
2.4210267066955566	13179297.939970968
2.4237842559814453	13658059.737939788
2.426539897918701	12906575.231463682
2.429293394088745	12890759.33142828
2.4320452213287354	13649952.15877064
2.4347951412200928	12546071.53844133
2.4375438690185547	11507414.07420217
2.440291166305542	12307311.261744348
2.443037271499634	13143379.06636974
2.445782423019409	14374319.380857108
2.4485268592834473	14123344.769044664
2.451270818710327	11313521.804007903
2.454014539718628	10579522.399867779
2.4567582607269287	12055472.250651836
2.4595019817352295	13014033.320358083
2.4622461795806885	13702223.824821003
2.4649908542633057	12676414.43751935
2.4677364826202393	9550569.042827649
2.4704833030700684	8401925.909512304
2.473231554031372	8795055.782674257
2.4759814739227295	9386915.801897828
2.4787333011627197	9501300.397468774
