#wavelength	surface flux
0.6450077295303345	122.07805998332822
0.6472567915916443	130.88306729400654
0.6494921445846558	140.21020366334795
0.6517150402069092	150.00347472488073
0.6539263725280762	160.41680749366728
0.6561272740364075	171.38017083558637
0.6583186388015747	183.009937663994
0.6605015397071838	195.32596793480297
0.6626768708229065	208.23174386538267
0.6648455858230591	221.9325513066441
0.6670085787773132	236.3499650169071
0.6691668033599854	251.5762898208728
0.6713210344314575	265.42061408175664
0.6734722256660461	284.6094162790522
0.6756211519241333	302.4964352252531
0.6777685880661011	321.31441030594056
0.6799154281616211	341.22873645607916
0.6820623278617859	362.15920650948937
0.6842101216316223	384.1484165226414
0.6863595843315125	407.3535582254809
0.688511312007904	431.4746201407857
0.6906660795211792	456.2911133854375
0.6928245425224304	483.27063757841637
0.6949873566627502	513.6537564975715
0.6971551775932312	544.333203509977
0.6993286609649658	575.2316172483875
0.7015084028244019	610.6773208911641
0.7036949396133423	646.8176722412863
0.7058889269828796	684.7584767038609
0.7080909013748169	724.2630237073713
0.710301399230957	766.0532597084119
0.712520956993103	810.8300248551403
0.7147500514984131	857.3988910157233
0.7169892191886902	901.9423554540424
0.7192389369010925	959.0324444372758
0.7214996814727783	1013.394697855745
0.723771870136261	1071.6448717486194
0.7260559797286987	1134.4687472516325
0.7283523678779602	1199.2067753368447
0.7306615710258484	1265.1941995818738
0.7329838871955872	1339.9462457015138
0.7353196740150452	1408.9588844396515
0.7376693487167358	1493.0418205139495
0.7400332689285278	1579.027050963713
0.7424117922782898	1666.691752939724
0.7448052167892456	1761.0608158779198
0.7472138404846191	1863.977555944922
0.7496379613876343	1973.4508142170337
0.7520779371261597	2085.194026505704
0.7545340061187744	2205.6831643147607
0.7570064663887024	2331.759358091798
0.7594954967498779	2463.612370862909
0.7620013952255249	2601.0912716685853
0.7645244002342224	2718.6928224084572
0.7670646905899048	2567.859763359026
0.7696225643157959	2805.9130600950125
0.7721980810165405	3221.439132042847
0.7747915983200073	3429.5865412916323
0.7774031162261963	3626.818229211744
0.7800329327583313	3797.415328656331
0.7826811671257019	4050.569792296992
0.7853479981422424	4280.3670188596225
0.7880334854125977	4520.348152943919
0.7907378077507019	4775.784382210424
0.7934610247612	5035.718013741291
0.7962033748626709	5315.385138644926
0.7989648580551147	5629.465222029895
0.801745593547821	5945.720918944749
0.8045456409454346	6284.984470494232
0.8073651194572449	6640.14181285055
0.8102040886878967	6978.061019432006
0.8130625486373901	7387.951302036483
0.8159406185150146	7814.579781316829
0.8188382983207703	8200.02128461586
0.8217556476593018	8718.898317899224
0.8246926665306091	9199.993971648812
0.8276493549346924	9707.818351777645
0.8306257724761963	10262.904353734515
0.8336219191551208	10855.914154967635
0.8366377949714661	11455.605157710328
0.8396733403205872	12080.955777490917
0.8427285552024841	12775.908437306089
0.8458034992218018	13466.727501515437
0.8488980531692505	14221.742092981793
0.8520121574401855	15017.078033168844
0.8551458716392517	15843.316215017927
0.8582990765571594	16719.767307141912
0.8614717125892639	17635.0126813326
0.8646637797355652	18583.02810198019
0.8678751587867737	19616.143859119475
0.8711057901382446	20695.200235915156
0.8743556141853333	21823.877278317705
0.87762451171875	23022.030642978174
0.8809124231338501	24270.242402053256
0.8842192888259888	25573.603358576343
0.8875449895858765	26961.622939581663
0.8908893465995789	28229.914492367883
0.894252359867096	29765.09404095493
0.8976338505744934	30590.08517237019
0.9010337591171265	32910.24123657192
0.9044519662857056	34889.63177344257
0.9078882932662964	36722.56841788373
0.9113426208496094	38731.98423536516
0.914814829826355	40627.13203298874
0.9183048605918884	42630.76307993582
0.9218124747276306	44885.522893738475
0.925337553024292	46685.11425722751
0.9288799166679382	48276.30632911794
0.9324395060539246	48070.934891836754
0.9360161423683167	50647.27283533672
0.9396095871925354	56893.13649114933
0.943219780921936	60527.23910277503
0.9468464851379395	58600.90035599589
0.9504896402359009	61707.434530699444
0.9541489481925964	67725.28848053368
0.9578243494033813	72022.82221361023
0.9615156054496765	74542.58118310875
0.9652225375175476	79223.8452206149
0.9689450263977051	85166.24370141313
0.9726828336715698	87314.76639966076
0.9764357805252075	93120.96257260478
0.9802037477493286	97281.90035687257
0.983986496925354	102968.18772394946
0.9877838492393494	107846.11708435217
0.9915955662727356	113448.65686767749
0.9954215884208679	119070.96204736426
0.9992615580558777	124690.06673890007
1.0031154155731201	130243.9833475282
1.0069829225540161	136238.01530059963
1.0108637809753418	142503.16740839276
1.0147579908370972	148946.11533164987
1.018665075302124	155590.5015244862
1.022585153579712	162596.07598582123
1.0265177488327026	169800.41691377287
1.0304628610610962	177272.78741260676
1.0344202518463135	185020.40977143554
1.0383895635604858	193057.1703591532
1.0423706769943237	201373.70552766742
1.0463634729385376	209968.6119073285
1.0503677129745483	218801.4803499218
1.0543830394744873	228137.63134300112
1.058409333229065	237621.2127241898
1.0624464750289917	248147.03646131195
1.0664942264556885	258603.2419469387
1.0705522298812866	269399.81983841106
1.0746204853057861	280634.3847616356
1.0786986351013184	291404.14918062615
1.0827864408493042	303566.07686973765
1.086883783340454	315081.008218625
1.0909905433654785	327024.8916381902
1.0951062440872192	338416.37307859375
1.0992310047149658	341975.03229178576
1.10336434841156	356319.03421757923
1.1075061559677124	377014.67643053393
1.1116561889648438	390048.2762622525
1.115814208984375	329628.9986061958
1.1199802160263062	380934.86893857445
1.124153733253479	342665.7344687389
1.1283347606658936	408391.5037622932
1.1325229406356812	459129.0275818216
1.1367181539535522	449518.79487423896
1.1409201622009277	503038.66800561274
1.145128846168518	482336.8834896505
1.1493438482284546	440582.72980558395
1.1535650491714478	547845.6837610516
1.1577922105789185	578010.5744933106
1.1620250940322876	588539.7383015197
1.1662636995315552	609229.5355073836
1.170507550239563	608153.0035077013
1.174756646156311	652687.3970354779
1.1790107488632202	683659.5023352276
1.1832695007324219	711732.7863036413
1.1875330209732056	731986.3375198852
1.191800832748413	762953.7679073851
1.1960728168487549	784646.4586603283
1.2003488540649414	808459.8460732148
1.2046287059783936	838841.6836813696
1.2089121341705322	866453.6323784878
1.2131990194320679	886314.8245265433
1.2174891233444214	922300.6399864577
1.2217823266983032	950345.7377686842
1.2260783910751343	980017.8935144274
1.230377197265625	1008278.4066768761
1.2346785068511963	1041132.527641977
1.238982081413269	1072571.5387098389
1.2432878017425537	1103661.941051052
1.2475954294204712	1135710.5921864028
1.2519049644470215	1168368.1439933153
1.256216049194336	1202227.8045151439
1.2605286836624146	1236517.2430894435
1.2648425102233887	1271762.3422196063
1.2691574096679688	1304407.542562657
1.2734732627868652	1339464.482420199
1.2777899503707886	1379069.9060986296
1.2821072340011597	1408940.7741843609
1.2864248752593994	1448806.3094678698
1.2907428741455078	1484744.0683511114
1.2950609922409058	1481103.6143559807
1.2993791103363037	1537155.6746630901
1.303696870803833	1597133.8443602945
1.3080145120620728	1640308.6078033615
1.3123314380645752	1675844.3158526537
1.3166478872299194	1715500.0127331454
1.3209635019302368	1742290.29048684
1.3252781629562378	1805679.3517417265
1.3295916318893433	1840097.4004942374
1.3339040279388428	1805828.4313998644
1.3382149934768677	1659251.98646752
1.3425244092941284	1381771.1119573747
1.3468321561813354	1446735.529308649
1.3511382341384888	1459311.7920071702
1.3554422855377197	1462776.3314352022
1.3597444295883179	1655960.0086119554
1.3640443086624146	1538951.7142517548
1.3683418035507202	1644955.1391377512
1.3726370334625244	1967189.8682529635
1.3769296407699585	2016698.7117970947
1.381219506263733	2134082.441856249
1.3855066299438477	1848939.6819065067
1.3897908926010132	1971939.3160152151
1.3940720558166504	1912281.543010276
1.3983501195907593	1888936.197188393
1.4026249647140503	2109241.1235373565
1.4068963527679443	2169205.508922484
1.4111642837524414	2387828.684871902
1.4154287576675415	2041490.398554191
1.419689416885376	2018609.057904637
1.4239463806152344	1725397.3745998612
1.4281994104385376	2455700.170168068
1.4324485063552856	2378997.514165617
1.436693549156189	2632957.200517784
1.440934419631958	2558707.740919767
1.4451709985733032	2640310.2678470956
1.449403166770935	2610563.6184303625
1.453631043434143	2552004.6445736876
1.4578542709350586	3109189.515579822
1.4620729684829712	3080650.528025686
1.4662868976593018	3190072.8921016296
1.4704961776733398	3383840.8694335073
1.4747005701065063	3233235.6937293904
1.4788999557495117	3516146.419569353
1.4830944538116455	3438505.5840019197
1.4872838258743286	3649729.2768250704
1.491468071937561	3855253.4753144505
1.4956470727920532	3896423.5816714354
1.4998208284378052	3898039.3823301373
1.5039892196655273	4029190.070312592
1.5081522464752197	4145368.0972697935
1.5123097896575928	4192567.5350537575
1.5164618492126465	4299236.572022312
1.5206083059310913	4278311.339788839
1.5247491598129272	4373597.043369254
1.5288842916488647	4219564.7801208915
1.5330137014389038	4581807.205572073
1.5371372699737549	4771187.7063422445
1.541254997253418	4826033.329610589
1.545366883277893	4923634.826492761
1.5494728088378906	5008549.7629563175
1.5535727739334106	5092776.302603816
1.5576666593551636	5151384.0874957135
1.561754584312439	5224878.094617585
1.5658363103866577	5338660.86316182
1.5699119567871094	5424490.502215716
1.5739814043045044	5512743.432080573
1.5780447721481323	5593546.697194887
1.582101821899414	5671477.625267307
1.5861525535583496	5740437.216396691
1.5901970863342285	5830394.178779122
1.5942351818084717	5919403.932267479
1.5982669591903687	6002031.154044923
1.6022924184799194	6082616.848628996
1.606311559677124	6162380.455646808
1.6103241443634033	6246923.2701068
1.6143304109573364	6330625.5755413845
1.6183301210403442	6414736.989331618
1.6223233938217163	6427878.112096668
1.6263102293014526	6380546.210949807
1.6302905082702637	6453341.270090049
1.634264349937439	6524831.2223914955
1.638231635093689	6792858.694696414
1.6421923637390137	6884885.473803984
1.646146535873413	6938568.296828926
1.6500942707061768	6996160.120190645
1.6540353298187256	6984540.722823539
1.6579699516296387	6993979.933425581
1.661897897720337	7176597.4803337725
1.6658192873001099	6757896.568946626
1.6697341203689575	6888291.639744432
1.6736423969268799	7528511.927580268
1.677544116973877	7543945.889131945
1.6814392805099487	7521967.778682668
1.6853278875350952	7525061.310183187
1.6892099380493164	7886128.469063296
1.6930854320526123	7324628.079053895
1.696954369544983	7711420.151583349
1.7008168697357178	7316060.499735264
1.7046726942062378	7380570.8033117615
1.708522081375122	7882893.359535068
1.712364912033081	8308981.69215281
1.7162011861801147	8425877.120898675
1.7200311422348022	8386605.497493121
1.723854422569275	7936017.9809005605
1.7276713848114014	7997532.442226337
1.731481909751892	8016078.801872357
1.7352858781814575	7794807.110633444
1.7390835285186768	8361065.646116207
1.7428747415542603	8359454.063225162
1.7466596364974976	8973440.805095563
1.7504380941390991	9066396.594393665
1.7542102336883545	8772403.340431117
1.7579760551452637	8521067.154088521
1.7617355585098267	8658091.205241261
1.7654887437820435	8337648.028195482
1.7692357301712036	8125782.998040563
1.7729763984680176	8579742.855450552
1.776710867881775	7685017.100279342
1.7804391384124756	8742586.601489848
1.7841613292694092	8196300.788969908
1.7878772020339966	8131301.48067235
1.7915871143341064	6956366.026512116
1.7952908277511597	8116535.350317701
1.7989884614944458	8467785.054929685
1.8026801347732544	8390486.709649079
1.806365728378296	7891951.693848756
1.8100452423095703	6453631.192712685
1.8137187957763672	8304672.386737279
1.817386507987976	9486893.514092026
1.8210482597351074	9484174.967936834
1.8247040510177612	10642405.791054336
1.828354001045227	10622865.835952045
1.8319982290267944	8993852.1029522
1.8356364965438843	10223317.015527293
1.8392690420150757	9825748.425320402
1.8428958654403687	10293620.663804596
1.8465168476104736	9206302.691182878
1.8501322269439697	9382651.819523674
1.8537418842315674	10765361.299247237
1.8573459386825562	9347497.23904447
1.860944390296936	7199354.215751945
1.864537239074707	7681058.0509936735
1.8681244850158691	7521124.433401752
1.871706247329712	8027613.160671958
1.8752825260162354	8730395.252733957
1.8788533210754395	11098633.495886112
1.8824186325073242	10153840.665934743
1.8859784603118896	8982304.154729903
1.8895330429077148	9650304.88382463
1.8930821418762207	9825177.34743137
1.8966259956359863	10697179.499200158
1.9001644849777222	10410721.84233467
1.9036977291107178	10264197.321033958
1.9072256088256836	12062478.07844715
1.9107483625411987	12042927.026678551
1.9142658710479736	11118242.985818848
1.9177782535552979	12273994.58161588
1.9212853908538818	11085002.488533732
1.9247875213623047	9739345.397205457
1.9282845258712769	11667503.620484293
1.9317764043807983	11444556.904667038
1.9352631568908691	11917923.823378671
1.9387450218200684	8285782.851178126
1.942221760749817	9021886.823824126
1.9456936120986938	9320210.497043157
1.9491604566574097	9792703.444909336
1.952622413635254	10825380.529665273
1.956079363822937	8028891.679918613
1.959531545639038	8057781.752886944
1.962978720664978	11045316.111738084
1.966421127319336	12970852.58463209
1.9698586463928223	12649603.194565302
1.9732913970947266	13357298.553892616
1.9767193794250488	12605940.665260278
1.9801424741744995	13143271.668721456
1.9835609197616577	13079501.968008745
1.9869745969772339	12599889.305654462
1.990383505821228	11285848.600654101
1.9937876462936401	12801513.33126712
1.9971871376037598	13530878.136981687
2.000581979751587	12436265.486689294
2.003972291946411	12868364.745967118
2.007357597351074	14227251.257806951
2.0107386112213135	14909188.569904966
2.0141148567199707	15014739.243830934
2.017486572265625	13895708.325725751
2.0208535194396973	14816761.080674384
2.0242159366607666	15398215.89336192
2.027573823928833	14806653.135941764
2.0309269428253174	14403890.941722801
2.034275770187378	15515531.457881179
2.0376198291778564	15915799.914044745
2.040959596633911	16044168.693302045
2.044294595718384	16017174.404437756
2.0476250648498535	15184732.3880636
2.0509510040283203	15047424.790331822
2.054272413253784	15970896.567577038
2.057589530944824	16083790.060297763
2.0609018802642822	15704133.778082283
2.0642096996307373	16014831.11339965
2.0675129890441895	16320925.060094962
2.0708119869232178	16642654.574981106
2.074106216430664	16928029.249653984
2.0773961544036865	17075444.282949477
2.080681324005127	17200342.668610383
2.0839622020721436	17177972.612942193
2.087238311767578	17161073.222640987
2.090510129928589	17311224.924185853
2.0937774181365967	17428815.860793557
2.0970399379730225	17528074.43623924
2.1002981662750244	17551657.515591655
2.1035518646240234	17715635.315156043
2.1068007946014404	17743771.20783298
2.1100454330444336	17411256.886308264
2.1132853031158447	17077151.593682688
2.116520881652832	17434688.87434174
2.1197516918182373	17935922.64165605
2.1229779720306396	18171769.182764784
2.12619948387146	18250878.108605824
2.1294167041778564	18305192.655180737
2.132629156112671	18397680.105632074
2.1358368396759033	18510917.50538855
2.139039993286133	18584675.781609304
2.1422386169433594	18612004.286392484
2.145432472229004	18657965.130605564
2.1486217975616455	18608390.416580576
2.151806354522705	18366023.4211631
2.1549863815307617	17854751.06530979
2.1581614017486572	18401551.767479274
2.16133189201355	18758026.71757077
2.1644976139068604	18967918.307029214
2.167658567428589	19131667.156056754
2.1708147525787354	19109994.500467572
2.173966407775879	19005425.846905015
2.1771130561828613	19246753.18341284
2.1802549362182617	19440396.459361162
2.183391809463501	19504206.418475173
2.1865241527557373	19527699.311567537
2.1896514892578125	19556266.552443888
2.1927738189697266	19618666.09020065
2.1958916187286377	19339210.601029836
2.1990041732788086	18377432.83241962
2.2021119594573975	18359248.76937818
2.2052149772644043	19169213.79634924
2.208312749862671	19835058.02789533
2.2114057540893555	20002394.64022653
2.214493751525879	19533667.188754145
2.217576742172241	19106380.82433128
2.2206547260284424	19404033.392863777
2.2237277030944824	19086106.398178868
2.2267956733703613	18795223.88953105
2.2298583984375	19301607.103382632
2.2329163551330566	19449154.88207488
2.235969066619873	19762607.16587522
2.2390167713165283	19272128.818518367
2.2420592308044434	18407386.224209804
2.2450966835021973	19072720.656114206
2.248128890991211	18622178.081932724
2.2511560916900635	17951780.968105268
2.254178285598755	16794585.928927448
2.257194995880127	17167631.779927425
2.260206699371338	18558847.490941383
2.2632133960723877	19195495.41192825
2.266214609146118	19566489.32049329
2.2692108154296875	19199575.38018293
2.2722020149230957	19264171.430514447
2.2751877307891846	18792900.595588926
2.278168201446533	18971613.30937986
2.2811436653137207	20299211.440695096
2.284113883972168	18323918.699710216
2.287078857421875	15829187.336605603
2.290038824081421	17200145.279303037
2.2929933071136475	16526424.836307025
2.295942783355713	15849017.19977083
2.298887014389038	16966170.625938565
2.301826238632202	18972062.43704458
2.304760217666626	20152497.51304419
2.3076889514923096	20821911.990502525
2.310612440109253	21145383.543928552
2.3135311603546143	19694224.704630524
2.3164443969726562	16324694.16213959
2.319352865219116	16491067.373334223
2.322256088256836	16309994.221728051
2.3251543045043945	14971429.631086368
2.328047275543213	16152787.677622074
2.330935478210449	16559986.40445384
2.3338186740875244	16613338.286930166
2.3366971015930176	17766416.107851923
2.3395702838897705	18540607.840227738
2.3424389362335205	18327289.155654296
2.3453025817871094	16765980.53233287
2.348161458969116	15384857.028925251
2.351015567779541	16077854.346580217
2.353865146636963	16638171.205389012
2.3567099571228027	16051392.378804518
2.3595502376556396	16603221.832756743
2.3623859882354736	18225169.15889816
2.3652172088623047	18169916.730595272
2.368043899536133	14590176.5085158
2.370866537094116	13386531.257360494
2.3736846446990967	13661417.732782658
2.3764986991882324	14016249.361618876
2.3793084621429443	14819154.727646751
2.3821144104003906	16197426.008480161
2.384916305541992	17489460.796918646
2.387714147567749	18077788.406493105
2.3905084133148193	20571655.44073243
2.393299102783203	21691095.69697027
2.3960859775543213	20838045.33071539
2.398869514465332	18070569.28240412
2.4016497135162354	15219692.225977283
2.4044265747070312	15594419.61475218
2.407200336456299	17939836.03674027
2.409970998764038	19192115.05319065
2.4127390384674072	18065737.07389208
2.415503978729248	15714270.3245194
2.418266534805298	15296218.53181745
2.4210267066955566	15635030.34566797
2.4237842559814453	15587642.258379865
2.426539897918701	14999156.278984476
2.429293394088745	14605195.43438327
2.4320452213287354	15296557.394832268
2.4347951412200928	15496371.604470914
2.4375438690185547	15995172.581172705
2.440291166305542	16551656.01445872
2.443037271499634	16898775.616884366
2.445782423019409	18137958.373256996
2.4485268592834473	18519779.69144751
2.451270818710327	18222968.800864004
2.454014539718628	18325179.763904415
2.4567582607269287	17276884.305719562
2.4595019817352295	17124834.4799114
2.4622461795806885	19288580.863629326
2.4649908542633057	21280483.289232004
2.4677364826202393	20580678.6578618
2.4704833030700684	19302936.922768436
2.473231554031372	18817077.408156242
2.4759814739227295	18562276.00246567
2.4787333011627197	16591733.98928254
