#wavelength	surface flux
0.6450077295303345	135.18056551405047
0.6472567915916443	144.97805203334556
0.6494921445846558	155.35424188629645
0.6517150402069092	166.2172201847297
0.6539263725280762	177.82057582935414
0.6561272740364075	189.9727890596756
0.6583186388015747	202.96173001448156
0.6605015397071838	216.60205166302222
0.6626768708229065	230.91928523170142
0.6648455858230591	246.13944728517498
0.6670085787773132	262.162995975342
0.6691668033599854	279.0919759212973
0.6713210344314575	296.28513988539225
0.6734722256660461	315.7673997237962
0.6756211519241333	335.61153118733813
0.6777685880661011	356.5511954399575
0.6799154281616211	378.6269893559064
0.6820623278617859	401.8866436455992
0.6842101216316223	426.40634854193974
0.6863595843315125	452.28369856668854
0.688511312007904	479.4231873320442
0.6906660795211792	507.8737078309847
0.6928245425224304	536.92064776581
0.6949873566627502	570.3477200798275
0.6971551775932312	604.3448206333386
0.6993286609649658	638.7509432463249
0.7015084028244019	677.4694612172938
0.7036949396133423	717.221273346286
0.7058889269828796	759.2175051395336
0.7080909013748169	802.6543330809158
0.710301399230957	848.6843020878823
0.712520956993103	898.3406839478877
0.7147500514984131	949.60876770299
0.7169892191886902	996.2293274093258
0.7192389369010925	1061.5747661134228
0.7214996814727783	1121.3308451949945
0.723771870136261	1185.4243964840093
0.7260559797286987	1254.6171164572831
0.7283523678779602	1325.7325632096085
0.7306615710258484	1396.8145438051022
0.7329838871955872	1480.6145626275495
0.7353196740150452	1555.9376474076012
0.7376693487167358	1649.6070899657802
0.7400332689285278	1745.7028680585586
0.7424117922782898	1842.4169387485356
0.7448052167892456	1946.7421279291034
0.7472138404846191	2058.5973958852487
0.7496379613876343	2178.1115185400777
0.7520779371261597	2300.5538673851333
0.7545340061187744	2431.71900587076
0.7570064663887024	2569.2910496768013
0.7594954967498779	2713.0864389829885
0.7620013952255249	2861.59196169932
0.7645244002342224	2984.602752628419
0.7670646905899048	2908.7482570502098
0.7696225643157959	3134.626218033526
0.7721980810165405	3533.5276256910397
0.7747915983200073	3765.3584261636342
0.7774031162261963	3981.0319236265877
0.7800329327583313	4165.482956706025
0.7826811671257019	4442.1672597168645
0.7853479981422424	4692.244685451454
0.7880334854125977	4952.420562168362
0.7907378077507019	5229.663288670009
0.7934610247612	5512.238908954471
0.7962033748626709	5814.533489151404
0.7989648580551147	6154.575267308667
0.801745593547821	6496.793851872648
0.8045456409454346	6862.883434158855
0.8073651194572449	7244.4818506633455
0.8102040886878967	7589.888716970145
0.8130625486373901	8033.978926084315
0.8159406185150146	8499.685513401884
0.8188382983207703	8891.084683342073
0.8217556476593018	9470.127912003258
0.8246926665306091	9982.576274960018
0.8276493549346924	10523.822187643264
0.8306257724761963	11120.847203790327
0.8336219191551208	11763.146093427
0.8366377949714661	12400.829504862813
0.8396733403205872	13062.855533386599
0.8427285552024841	13812.9084630583
0.8458034992218018	14540.477162252784
0.8488980531692505	15345.736498748012
0.8520121574401855	16195.266039709135
0.8551458716392517	17076.125478260215
0.8582990765571594	18009.057815248623
0.8614717125892639	18966.74547326569
0.8646637797355652	19958.788803666626
0.8678751587867737	21071.023153497525
0.8711057901382446	22198.557039539934
0.8743556141853333	23384.675082407673
0.87762451171875	24649.83509342682
0.8809124231338501	25957.48954465307
0.8842192888259888	27316.82511496237
0.8875449895858765	28776.14181980457
0.8908893465995789	30018.396244057898
0.894252359867096	31627.67797940916
0.8976338505744934	32167.456991070285
0.9010337591171265	34844.67608659489
0.9044519662857056	37002.96148615379
0.9078882932662964	38893.5201441915
0.9113426208496094	40997.57549146266
0.914814829826355	42905.53624341939
0.9183048605918884	44916.006787605074
0.9218124747276306	47258.161079639045
0.925337553024292	48847.05671192852
0.9288799166679382	50025.66061381045
0.9324395060539246	48774.02396236007
0.9360161423683167	52214.1523981988
0.9396095871925354	59266.383107460875
0.943219780921936	63149.10745612907
0.9468464851379395	59548.8890844913
0.9504896402359009	62782.06508259401
0.9541489481925964	69966.44090290742
0.9578243494033813	74169.17888683669
0.9615156054496765	76546.84013875865
0.9652225375175476	81223.84244412216
0.9689450263977051	88109.38295964139
0.9726828336715698	89381.82198352292
0.9764357805252075	95891.97872678221
0.9802037477493286	99823.6420861365
0.983986496925354	105997.57582033963
0.9877838492393494	110869.68629736365
0.9915955662727356	116650.832984369
0.9954215884208679	122391.57058222544
0.9992615580558777	128041.13853728022
1.0031154155731201	133674.52889743008
1.0069829225540161	139669.96056512816
1.0108637809753418	145961.90054014997
1.0147579908370972	152409.62987544786
1.018665075302124	159023.20240610503
1.022585153579712	165998.34891511343
1.0265177488327026	173146.48436800274
1.0304628610610962	180552.4684676825
1.0344202518463135	188216.88950015284
1.0383895635604858	196139.31207687332
1.0423706769943237	204345.2615570527
1.0463634729385376	212788.3968088127
1.0503677129745483	221456.44780189768
1.0543830394744873	230640.26513086897
1.058409333229065	239887.5375878722
1.0624464750289917	249986.11045043461
1.0664942264556885	259997.5410055349
1.0705522298812866	270567.53794604255
1.0746204853057861	281634.05617673165
1.0786986351013184	291825.4383190171
1.0827864408493042	303804.68020414567
1.086883783340454	314649.70132190455
1.0909905433654785	325883.17850020376
1.0951062440872192	336166.62279060285
1.0992310047149658	336005.8963987398
1.10336434841156	348873.3733208342
1.1075061559677124	370574.1734172637
1.1116561889648438	381383.50738143973
1.115814208984375	314292.4841314687
1.1199802160263062	368043.6904623761
1.124153733253479	322025.01124817535
1.1283347606658936	393928.3754650808
1.1325229406356812	444608.506726106
1.1367181539535522	428884.5790442274
1.1409201622009277	491392.53905946366
1.145128846168518	459361.9355541314
1.1493438482284546	414304.8857505045
1.1535650491714478	528042.7852352174
1.1577922105789185	561452.3549281011
1.1620250940322876	571176.9539159912
1.1662636995315552	588770.3526265188
1.170507550239563	578875.320949607
1.174756646156311	627359.0645853481
1.1790107488632202	660578.0138499496
1.1832695007324219	689145.6325652953
1.1875330209732056	707011.052837761
1.191800832748413	738702.7828979265
1.1960728168487549	758004.2196686079
1.2003488540649414	779679.8161243154
1.2046287059783936	809997.1046939554
1.2089121341705322	836104.0784482675
1.2131990194320679	851587.7902466543
1.2174891233444214	888505.5086749761
1.2217823266983032	914322.2373424261
1.2260783910751343	942251.7043119621
1.230377197265625	968044.5934249102
1.2346785068511963	999445.0671326941
1.238982081413269	1028790.1419383069
1.2432878017425537	1057191.1994499369
1.2475954294204712	1086557.7941041966
1.2519049644470215	1116773.5891314181
1.256216049194336	1147581.6318815225
1.2605286836624146	1179710.1637093415
1.2648425102233887	1212078.1829199414
1.2691574096679688	1241214.3093211553
1.2734732627868652	1272597.1654078262
1.2777899503707886	1310356.8088351882
1.2821072340011597	1333525.2223382082
1.2864248752593994	1371246.6962966123
1.2907428741455078	1402518.5190882995
1.2950609922409058	1382551.9426264018
1.2993791103363037	1440560.2298925943
1.303696870803833	1500565.3010250798
1.3080145120620728	1541359.365774374
1.3123314380645752	1569384.6596338016
1.3166478872299194	1603387.850203202
1.3209635019302368	1624656.9468407861
1.3252781629562378	1685237.2434978294
1.3295916318893433	1712504.3016685226
1.3339040279388428	1651183.4116937127
1.3382149934768677	1444380.7971853134
1.3425244092941284	1201707.1294361788
1.3468321561813354	1263262.2066441276
1.3511382341384888	1241551.9123759235
1.3554422855377197	1243512.3237954327
1.3597444295883179	1348894.3582843125
1.3640443086624146	1291988.0505698214
1.3683418035507202	1384159.2197332985
1.3726370334625244	1698596.3234244962
1.3769296407699585	1739389.4088229192
1.381219506263733	1826694.158189101
1.3855066299438477	1581939.628552511
1.3897908926010132	1704616.7987511144
1.3940720558166504	1636827.4806836327
1.3983501195907593	1610667.9765161057
1.4026249647140503	1792779.0551392902
1.4068963527679443	1821358.4104889648
1.4111642837524414	2082441.395609163
1.4154287576675415	1761415.9382820332
1.419689416885376	1673500.1959357949
1.4239463806152344	1383706.6403128917
1.4281994104385376	2063518.1230973327
1.4324485063552856	2019254.7542565663
1.436693549156189	2186629.279773382
1.440934419631958	2097382.1850912874
1.4451709985733032	2230700.608273011
1.449403166770935	2201524.3601559927
1.453631043434143	2182840.804684927
1.4578542709350586	2787051.4227018473
1.4620729684829712	2676218.4398607444
1.4662868976593018	2769397.239551541
1.4704961776733398	2961838.5771514173
1.4747005701065063	2782482.2726090746
1.4788999557495117	3071765.7031959496
1.4830944538116455	2962872.8995981216
1.4872838258743286	3195989.1349503733
1.491468071937561	3409019.037109252
1.4956470727920532	3444230.9004036314
1.4998208284378052	3456182.9312762907
1.5039892196655273	3572900.1784616415
1.5081522464752197	3686970.246831924
1.5123097896575928	3725680.275522373
1.5164618492126465	3817940.8285526237
1.5206083059310913	3779149.2497079163
1.5247491598129272	3879612.9503956195
1.5288842916488647	3683533.9710805183
1.5330137014389038	4080796.515521212
1.5371372699737549	4279821.014027656
1.541254997253418	4318469.412748013
1.545366883277893	4409863.858217157
1.5494728088378906	4490394.006549256
1.5535727739334106	4564047.417598681
1.5576666593551636	4617099.025099334
1.561754584312439	4675019.2570579825
1.5658363103866577	4789250.166955969
1.5699119567871094	4862669.012251383
1.5739814043045044	4941155.0808839165
1.5780447721481323	5019823.7832323015
1.582101821899414	5079410.867239424
1.5861525535583496	5130624.098709122
1.5901970863342285	5212714.998410553
1.5942351818084717	5290696.861783268
1.5982669591903687	5365155.916621826
1.6022924184799194	5438617.361803406
1.606311559677124	5501145.057282973
1.6103241443634033	5575140.113778702
1.6143304109573364	5646276.656050072
1.6183301210403442	5716851.973440544
1.6223233938217163	5699664.31895902
1.6263102293014526	5609352.628295718
1.6302905082702637	5645303.111923756
1.634264349937439	5708688.248078717
1.638231635093689	6019812.61725909
1.6421923637390137	6101929.075173484
1.646146535873413	6128415.134007225
1.6500942707061768	6163017.306930832
1.6540353298187256	6111674.068063706
1.6579699516296387	6108351.553351963
1.661897897720337	6277762.090884052
1.6658192873001099	5824445.915793576
1.6697341203689575	5909452.720001052
1.6736423969268799	6619844.307319511
1.677544116973877	6607026.164795576
1.6814392805099487	6545393.646033213
1.6853278875350952	6524486.568862792
1.6892099380493164	6927856.980701796
1.6930854320526123	6234346.697142169
1.696954369544983	6629317.744111479
1.7008168697357178	6081384.4373228615
1.7046726942062378	6140443.948966785
1.708522081375122	6712249.61790627
1.712364912033081	7231083.163021223
1.7162011861801147	7349375.441949372
1.7200311422348022	7256142.6548833875
1.723854422569275	6659344.90276027
1.7276713848114014	6715009.09203906
1.731481909751892	6700655.310735164
1.7352858781814575	6466442.975665214
1.7390835285186768	7131348.70958749
1.7428747415542603	7091863.470785952
1.7466596364974976	7725925.822545688
1.7504380941390991	7801705.893547674
1.7542102336883545	7383058.521535311
1.7579760551452637	7115092.612580816
1.7617355585098267	7224475.757692613
1.7654887437820435	6931925.06504705
1.7692357301712036	6825505.32148726
1.7729763984680176	7053214.529116395
1.776710867881775	6237625.724238975
1.7804391384124756	7061944.815543662
1.7841613292694092	6515712.144995379
1.7878772020339966	6507420.350804161
1.7915871143341064	5568289.35364312
1.7952908277511597	6621280.005358865
1.7989884614944458	6916772.714891367
1.8026801347732544	6688632.006413606
1.806365728378296	6166733.404336794
1.8100452423095703	4766845.398176418
1.8137187957763672	6493666.870910135
1.817386507987976	7736694.1832207125
1.8210482597351074	7618037.68214322
1.8247040510177612	8788313.565148378
1.828354001045227	8649359.573285243
1.8319982290267944	7197223.970251103
1.8356364965438843	8180017.06406651
1.8392690420150757	7686831.361604428
1.8428958654403687	8111753.045977455
1.8465168476104736	7149334.476026966
1.8501322269439697	7215612.508158551
1.8537418842315674	8798086.190867255
1.8573459386825562	7390388.547807891
1.860944390296936	5628578.83304858
1.864537239074707	5623871.504816532
1.8681244850158691	5830011.040354265
1.871706247329712	6297479.717239198
1.8752825260162354	6876114.625703357
1.8788533210754395	8940578.980076771
1.8824186325073242	8126446.452837842
1.8859784603118896	7104888.1977338465
1.8895330429077148	7537991.811090744
1.8930821418762207	7680561.61552414
1.8966259956359863	8346938.071861508
1.9001644849777222	8110353.139470566
1.9036977291107178	8249533.4885248225
1.9072256088256836	9823087.422819173
1.9107483625411987	9686319.865603168
1.9142658710479736	8467079.732751602
1.9177782535552979	9967277.331216492
1.9212853908538818	8946903.672124067
1.9247875213623047	7618999.139218862
1.9282845258712769	9285119.374076322
1.9317764043807983	9018195.611152494
1.9352631568908691	9649508.91359325
1.9387450218200684	6218380.174641646
1.942221760749817	6944611.692212053
1.9456936120986938	7385994.813245169
1.9491604566574097	7734068.449505594
1.952622413635254	8614114.06678346
1.956079363822937	6200331.749328748
1.959531545639038	5855029.089239481
1.962978720664978	8302669.232984626
1.966421127319336	10351173.91022692
1.9698586463928223	9756899.804968987
1.9732913970947266	10462216.152185393
1.9767193794250488	9899828.66739948
1.9801424741744995	10317489.010903299
1.9835609197616577	10314158.55745267
1.9869745969772339	10166432.379807713
1.990383505821228	9068900.111407256
1.9937876462936401	10184152.627535213
1.9971871376037598	10685266.886169797
2.000581979751587	9769920.101425601
2.003972291946411	10346702.995144175
2.007357597351074	11444921.990875497
2.0107386112213135	12063354.83294828
2.0141148567199707	12366082.863371205
2.017486572265625	11262305.334280131
2.0208535194396973	12135622.906739023
2.0242159366607666	12757566.337133592
2.027573823928833	12146754.241672533
2.0309269428253174	11780363.105183577
2.034275770187378	12868704.865103807
2.0376198291778564	13239320.532727482
2.040959596633911	13347454.150846576
2.044294595718384	13321251.472332533
2.0476250648498535	12501621.729705483
2.0509510040283203	12340337.905072253
2.054272413253784	13216859.23539705
2.057589530944824	13314748.356876463
2.0609018802642822	12903980.482878126
2.0642096996307373	13154971.613840671
2.0675129890441895	13460594.93143427
2.0708119869232178	13796229.276081787
2.074106216430664	14078786.30082895
2.0773961544036865	14208176.740299849
2.080681324005127	14344703.048332889
2.0839622020721436	14290324.317555875
2.087238311767578	14238809.333973104
2.090510129928589	14379293.064711148
2.0937774181365967	14484457.50316686
2.0970399379730225	14572814.108202249
2.1002981662750244	14565430.355250353
2.1035518646240234	14713635.913082955
2.1068007946014404	14738762.734008284
2.1100454330444336	14372916.848996352
2.1132853031158447	13979860.63552032
2.116520881652832	14307336.739364596
2.1197516918182373	14843677.620606164
2.1229779720306396	15094024.442062836
2.12619948387146	15158598.840479491
2.1294167041778564	15190453.6862766
2.132629156112671	15266463.306136532
2.1358368396759033	15370145.574480528
2.139039993286133	15428930.166695029
2.1422386169433594	15430319.79919939
2.145432472229004	15448391.87796451
2.1486217975616455	15349092.199176969
2.151806354522705	15025441.343518121
2.1549863815307617	14422796.538254203
2.1581614017486572	15044359.466104938
2.16133189201355	15423281.474881887
2.1644976139068604	15651602.619505929
2.167658567428589	15817909.684178378
2.1708147525787354	15761717.909868892
2.173966407775879	15601629.048893362
2.1771130561828613	15851117.98418072
2.1802549362182617	16053955.112025574
2.183391809463501	16101464.25168081
2.1865241527557373	16113107.94504922
2.1896514892578125	16127679.53097209
2.1927738189697266	16173875.19865475
2.1958916187286377	15795821.089963863
2.1990041732788086	14571139.159727357
2.2021119594573975	14493895.526482413
2.2052149772644043	15458117.950683216
2.208312749862671	16276590.182307806
2.2114057540893555	16471716.86102403
2.214493751525879	15906364.301448677
2.217576742172241	15340943.471887177
2.2206547260284424	15672551.088240609
2.2237277030944824	15376485.70417959
2.2267956733703613	15076222.926531548
2.2298583984375	15476637.464350577
2.2329163551330566	15555448.502957629
2.235969066619873	15985458.231420951
2.2390167713165283	15393955.630119655
2.2420592308044434	14356932.324770791
2.2450966835021973	15087667.837675476
2.248128890991211	14624371.444872657
2.2511560916900635	14022958.656241862
2.254178285598755	13182677.112733439
2.257194995880127	13480907.332526537
2.260206699371338	14495726.609993136
2.2632133960723877	14990824.86334272
2.266214609146118	15382340.793095635
2.2692108154296875	15049730.30865151
2.2722020149230957	15125041.122681543
2.2751877307891846	14551244.397149108
2.278168201446533	14710209.923732715
2.2811436653137207	16239270.500448275
2.284113883972168	14470462.93224932
2.287078857421875	12355017.555919455
2.290038824081421	13624840.438568134
2.2929933071136475	12944563.297038747
2.295942783355713	12142557.087679533
2.298887014389038	12746473.193587676
2.301826238632202	14578487.38940147
2.304760217666626	15912688.338690309
2.3076889514923096	16556589.502498427
2.310612440109253	16857110.33119729
2.3135311603546143	15555098.329137657
2.3164443969726562	12369805.557840299
2.319352865219116	12550557.945183165
2.322256088256836	12462493.744364463
2.3251543045043945	11096592.757153912
2.328047275543213	11920360.413200922
2.330935478210449	12450130.009046428
2.3338186740875244	12934836.97206796
2.3366971015930176	13742508.909117978
2.3395702838897705	14036245.030386282
2.3424389362335205	13801635.7103124
2.3453025817871094	12820523.225506896
2.348161458969116	11750840.311649796
2.351015567779541	12161249.819815384
2.353865146636963	12831857.191009944
2.3567099571228027	12752179.466650559
2.3595502376556396	13347647.410553947
2.3623859882354736	14865384.642370095
2.3652172088623047	15207374.627413547
2.368043899536133	11993510.11123591
2.370866537094116	10211031.453779602
2.3736846446990967	10003673.382739764
2.3764986991882324	10194939.618548084
2.3793084621429443	11515016.010024127
2.3821144104003906	13068223.101639723
2.384916305541992	13676878.989711553
2.387714147567749	14056929.62618527
2.3905084133148193	16446926.113910867
2.393299102783203	17329742.41112374
2.3960859775543213	15948336.810795695
2.398869514465332	13152409.377141114
2.4016497135162354	10677130.182495102
2.4044265747070312	10923354.48349951
2.407200336456299	13188223.429419637
2.409970998764038	14545717.010634283
2.4127390384674072	13771186.87499539
2.415503978729248	11796513.87353249
2.418266534805298	10962232.18512972
2.4210267066955566	11029524.660690177
2.4237842559814453	11110681.61908897
2.426539897918701	10591749.862236314
2.429293394088745	10628755.919212682
2.4320452213287354	11840760.582050867
2.4347951412200928	12032335.581135128
2.4375438690185547	11882076.726982249
2.440291166305542	12255586.8811328
2.443037271499634	12516846.064477364
2.445782423019409	13176978.580770422
2.4485268592834473	13429029.055905636
2.451270818710327	13460590.199554496
2.454014539718628	13734523.167581253
2.4567582607269287	13026193.958015556
2.4595019817352295	13073032.721128976
2.4622461795806885	14827300.795013145
2.4649908542633057	15950712.13447387
2.4677364826202393	14639035.103419421
2.4704833030700684	13482653.463301308
2.473231554031372	13531692.57646035
2.4759814739227295	13655903.415705005
2.4787333011627197	12117133.938865216
