#wavelength	surface flux
0.7	81.9689514574868
0.7001166666666666	82.3261743311558
0.7002333527777778	82.66168863209742
0.700350058336574	82.942861239301
0.7004667833462966	83.2433173699487
0.7005835278101878	83.55821145979661
0.7007002917314895	83.84698820225496
0.7008170751134447	84.13376506584126
0.7009338779592968	84.43373587709006
0.7010507002722901	84.73233508485801
0.7011675420556689	85.02912973641577
0.701284403312678	85.31889106254485
0.7014012840465635	85.60576129212413
0.7015181842605713	85.8733031797504
0.701635103957948	86.13218674234189
0.701752043141941	86.37082644842889
0.701869001815798	86.68135257036018
0.7019859799827672	87.04187280621774
0.7021029776460976	87.29923074822912
0.7022199948090387	87.55207388412343
0.7023370314748403	87.85105462276785
0.7024540876467528	88.18947804191814
0.702571163328027	88.57382643677383
0.7026882585219152	88.90641232471839
0.7028053732316688	89.22030159075557
0.7029225074605406	89.49647230724551
0.7030396612117841	89.7452826425311
0.7031568344886527	89.9405771757232
0.7032740272944008	90.27190441489307
0.7033912396322832	90.68260214381144
0.7035084715055552	91.0468706439764
0.7036257229174727	91.39289931072204
0.7037429938712924	91.68722347009249
0.7038602843702709	92.00041471826964
0.7039775944176659	92.33145584784403
0.7040949240167356	92.64732209753592
0.7042122731707383	92.96110468876347
0.7043296418829335	93.2874341043067
0.7044470301565806	93.60320721388746
0.70456443799494	93.90315648190999
0.7046818654012724	94.22944226323149
0.7047993123788394	94.56720308925685
0.7049167789309024	94.84183357721305
0.7050342650607243	95.14640357872943
0.7051517707715678	95.5245446295548
0.7052692960666963	95.88187666175868
0.705386840949374	96.22473913806189
0.7055044054228656	96.54133099195104
0.7056219894904361	96.86073170239098
0.7057395931553511	97.2065995562865
0.705857216420877	97.55152100235824
0.7059748592902804	97.89543971959812
0.7060925217668288	98.23201299767113
0.70621020385379	98.56663984406538
0.7063279055544321	98.9014208710748
0.7064456268720246	99.2362844956723
0.7065633678098366	99.57124628545866
0.7066811283711383	99.90206309158947
0.7067989085592001	100.23103791033533
0.7069167083772933	100.5566630458194
0.7070345278286895	100.85285045315024
0.707152366916661	101.07800852747916
0.7072702256444803	101.25254039028715
0.7073881040154211	101.39273110167089
0.7075060020327569	101.951177529542
0.7076239196997625	102.52209552453702
0.7077418570197124	102.95725456884387
0.7078598139958823	103.35083830231508
0.7079777906315483	103.70399655840045
0.7080957869299869	104.04734143645399
0.7082138028944751	104.3942542146213
0.7083318385282908	104.78502304598246
0.7084498938347124	105.15753455438268
0.708567968817018	105.50507312342513
0.7086860634784875	105.77994546708389
0.7088041778224007	106.02175856310214
0.7089223118520377	106.09902654611928
0.7090404655706796	106.38628311092766
0.709158638981608	107.0767782653542
0.709276832088105	107.51920811949485
0.7093950448934531	107.82808649800756
0.7095132774009353	107.63830015111631
0.7096315296138355	107.73018724218582
0.7097498015354378	108.65707565659889
0.7098680931690269	109.25237104758635
0.7099864045178884	109.60315975437159
0.7101047355853081	110.04066951887617
0.7102230863745722	110.48340303398263
0.7103414568889679	110.90103277985689
0.7104598471317828	111.31252087602657
0.7105782571063047	111.7180006244611
0.7106966868158224	112.03267687573177
0.710815136263625	112.34617363020817
0.7109336054530023	112.79083933841966
0.7110520943872445	113.22748172359351
0.7111706030696424	113.65387494391318
0.7112891315034873	114.06571001828138
0.7114076796920712	114.47211599264826
0.7115262476386865	114.86888673415508
0.7116448353466263	115.25057946939356
0.711763442819184	115.60742016909637
0.711882070059654	116.00773174191039
0.7120007170713306	116.42730849692342
0.7121193838575091	116.82361816511838
0.7122380704214853	117.21940879190686
0.7123567767665555	117.61402621171722
0.7124755028960166	117.95666622698583
0.7125942488131658	118.26956516508002
0.7127130145213015	118.61011341472464
0.7128318000237216	118.98012632085947
0.7129506053237256	119.42681355031574
0.7130694304246129	119.84494010900931
0.7131882753296837	120.24276116461515
0.7133071400422386	120.62155740558109
0.7134260245655789	120.88052260359692
0.7135449289030065	120.71911449709602
0.7136638530578235	121.15709299258445
0.7137827970333332	122.11220446616673
0.7139017608328388	122.62536385228752
0.7140207444596443	123.0679671037821
0.7141397479170543	123.53011575800733
0.7142587712083737	123.91910367719777
0.7143778143369084	124.2330607617259
0.7144968773059646	124.7716708633247
0.7146159601188489	125.338994227794
0.7147350627788687	125.758938735084
0.7148541852893318	126.1879107841545
0.7149733276535467	126.62769110649285
0.7150924898748222	126.96221914595652
0.715211671956468	127.28948186658681
0.7153308739017941	127.82922043050284
0.715450095714111	128.347413371143
0.71556933739673	128.8358331873409
0.7156885989529628	129.285469438217
0.7158078803861218	129.71886789282257
0.7159271816995193	130.11190169299388
0.7160465028964692	130.3692752751347
0.7161658439802853	130.41412512802367
0.7162852049542819	130.3022853871532
0.7164045858217744	130.15581294782478
0.716523986586078	130.71563847388035
0.7166434072505089	130.20307285491563
0.716762847818384	127.81200770442469
0.7168823082930204	129.0813241546265
0.7170017886777359	131.97918524969398
0.7171212889758488	133.27578784252427
0.7172408091906781	133.98815095861252
0.7173603493255433	133.57317196601895
0.7174799093837642	133.61824381252873
0.7175994893686615	133.89167068465338
0.7177190892835562	134.78686059013475
0.7178387091317702	135.80660019994042
0.7179583489166254	137.0810039215937
0.7180780086414448	137.6269721163996
0.7181976883095517	137.78392013593495
0.7183173879242699	138.66307111802678
0.718437107488924	139.41290151595015
0.7185568470068389	139.84290528735124
0.7186766064813399	139.8766498553793
0.7187963859157535	139.68710674999602
0.7189161853134061	140.7864653396529
0.719036004677625	141.76977200519588
0.7191558440117378	142.3892507407993
0.7192757033190732	142.92602111024692
0.7193955826029597	143.41457080023736
0.7195154818667269	143.79131245680523
0.7196354011137046	144.19951352297355
0.7197553403472235	144.69297436307426
0.7198752995706147	145.24139416308938
0.7199952787872098	145.82245779059923
0.720115278000341	146.23490973129447
0.7202352972133411	146.6483272923129
0.7203553364295432	147.0805567799366
0.7204753956522815	147.45558845672008
0.7205954748848902	147.79675094411525
0.7207155741307044	148.40472076374044
0.7208356933930594	149.03236563530857
0.7209558326752915	149.6817087872006
0.7210759919807375	150.12173120661987
0.7211961713127342	150.44008440184513
0.7213163706746197	150.44728524158901
0.7214365900697322	150.67605611799445
0.7215568295014103	151.43477115619976
0.721677088972994	152.19291873620404
0.7217973684878227	152.95080401330966
0.7219176680492374	153.04529811083313
0.7220379876605789	153.38370634810508
0.722158327325189	154.28303976796605
0.7222786870464099	155.0838053582764
0.7223990668275843	155.83241477347994
0.7225194666720555	156.38475971523673
0.7226398865831676	156.8982705719804
0.7227603265642646	157.33635809319014
0.722880786618692	157.5399961401791
0.7230012667497951	157.63480233041633
0.7231217669609201	158.32495385931264
0.7232422872554135	158.94506364991526
0.7233628276366229	159.4354624655059
0.7234833881078956	160.0586607193785
0.7236039686725803	160.70795656241452
0.7237245693340255	160.3823134107724
0.7238451900955812	160.5542517317301
0.7239658309605971	161.55700367314995
0.7240864919324239	162.54356718696383
0.7242071730144127	163.49827924196296
0.724327874209915	164.04871673010894
0.7244485955222832	164.6587633881923
0.7245693369548704	165.35726260045965
0.7246900985110294	165.94039654865676
0.7248108801941148	166.492662830136
0.7249316820074803	167.1293118044536
0.7250525039544815	167.71988360228733
0.7251733460384739	168.25045025780506
0.7252942082628137	168.71513426121274
0.7254150906308574	169.15517958562148
0.7255359931459625	169.55289153346862
0.7256569158114868	169.993002185552
0.7257778586307888	170.48080066562923
0.7258988216072273	171.16557155726946
0.7260198047441617	171.88528253841224
0.7261408080449525	172.55761614163077
0.72626183151296	173.1181693808391
0.7263828751515454	173.5716824075802
0.7265039389640706	174.26743063273165
0.726625022953898	174.93281484332076
0.7267461271243904	175.32806458880265
0.7268672514789111	175.7294818909534
0.7269883960208241	176.13585476060922
0.7271095607534942	176.9933376972254
0.7272307456802866	177.82348867682117
0.7273519508045666	178.43237835761795
0.7274731761297006	178.92948795987877
0.7275944216590555	179.35320406372213
0.7277156873959987	179.74469051014393
0.7278369733438982	179.8441804929871
0.727958279506122	179.28112248801543
0.7280796058860397	180.31569056701636
0.7282009524870207	182.18065014609792
0.7283223193124353	183.12729480827105
0.7284437063656539	183.95702575281197
0.7285651136500483	184.57878549113937
0.7286865411689898	185.13333796607603
0.7288079889258514	185.63829523933575
0.7289294569240056	185.82304441932996
0.7290509451668262	186.2191587979002
0.7291724536576875	186.90801983163533
0.7292939823999636	187.75444157070763
0.7294155313970303	188.6297143346492
0.7295371006522632	189.3860312103442
0.7296586901690385	190.04286067250922
0.7297802999507332	190.5930242053324
0.7299019300007252	190.74114711160942
0.7300235803223919	190.85894138054474
0.7301452509191123	191.17383996834477
0.7302669417942654	191.4832893248948
0.7303886529512311	191.78828986895707
0.7305103843933897	190.41205612290162
0.7306321361241218	190.11085095457315
0.7307539081468093	193.29070275981064
0.7308757004648336	195.06520659540024
0.7309975130815778	195.98386454624213
0.7311193460004248	196.89839026596653
0.7312411992247582	197.79504556948743
0.7313630727579622	198.6567367526041
0.7314849666034219	199.2908756594603
0.7316068807645224	199.79976777648554
0.7317288152446498	199.86769211006506
0.7318507700471907	200.2395256196167
0.7319727451755319	201.03758773227887
0.732094740633061	202.19022826115267
0.7322167564231665	203.3363844329404
0.7323387925492371	203.80004663893908
0.7324608490146619	204.49242536811977
0.732582925822831	205.4149438891068
0.7327050229771347	206.20215018533403
0.7328271404809642	206.94262063653318
0.7329492783377112	207.5962737509841
0.7330714365507675	208.28432474201273
0.7331936151235259	208.99684043066847
0.7333158140593796	209.52410311703136
0.7334380333617229	210.1056253588103
0.7335602730339499	210.82980065369213
0.7336825330794556	211.59971876361925
0.7338048135016354	212.37963699642822
0.7339271143038857	212.8645502381383
0.734049435489603	212.99567247407796
0.7341717770621846	212.6049952329223
0.7342941390250283	213.76502145871515
0.7344165213815324	215.2948117763161
0.734538924135096	216.21329824575895
0.7346613472891185	217.07952388426992
0.734783790847	217.8937031841972
0.7349062548121412	217.97754846481223
0.7350287391879431	217.37959961486283
0.7351512439778078	214.92077865900205
0.7352737691851374	216.2625790146763
0.735396314813335	220.117224557646
0.7355188808658037	221.3610648937993
0.7356414673459482	222.49008266433313
0.7357640742571725	223.55264063669335
0.7358867016028818	224.28993807609572
0.7360093493864824	224.88013643020284
0.7361320176113801	225.3207365511221
0.736254706280982	225.62410037690526
0.7363774153986956	225.75685430295937
0.7365001449679286	225.04391992999666
0.7366228949920899	224.41740994074036
0.7367456654745885	225.0004180856517
0.7368684564188344	227.04052395788514
0.7369912678282374	230.23759810119378
0.7371140997062088	231.63204133713737
0.7372369520561599	232.7077821012533
0.7373598248815024	233.36307218736346
0.7374827181856494	234.05883506929905
0.7376056319720137	234.77243176421277
0.7377285662440091	235.44679402262793
0.7378515210050496	235.88889457416028
0.7379744962585505	236.00882895095887
0.738097492007927	237.12447153207177
0.7382205082565949	238.36634803273003
0.738343545007971	238.93620899304932
0.7384666022654723	239.80516116869174
0.7385896800325165	240.92774269377668
0.7387127783125219	241.8293682010987
0.7388358971089073	242.66214913537476
0.7389590364250921	243.37658475131397
0.7390821962644963	244.18547237439455
0.7392053766305403	245.04064689465955
0.7393285775266454	245.87694711005108
0.7394517989562333	246.69627505808822
0.7395750409227259	247.49214139974677
0.7396983034295463	248.32440093161685
0.739821586480118	249.15141895826366
0.7399448900778645	249.90983636002855
0.7400682142262109	250.69387476103194
0.740191558928582	251.4986442210404
0.7403149241884034	252.0197452203503
0.7404383100091014	252.52189438696368
0.7405617163941028	253.02814701721167
0.7406851433468352	253.81035027792277
0.7408085908707264	254.60893407609467
0.7409320589692048	253.9660296279389
0.7410555476456997	254.6256743910451
0.7411790569036406	256.878990181601
0.7413025867464579	257.92872222357346
0.7414261371775823	258.8427700458012
0.7415497082004452	260.1668975082347
0.7416732998184786	261.1740935331151
0.741796912035115	261.96381964791885
0.7419205448537874	262.1246281777735
0.7420441982779297	262.6385156430031
0.742167872310976	263.8162536629049
0.7422915669563612	265.12352774903655
0.7424152822175206	266.40991733971316
0.7425390180978901	267.22466557369194
0.7426627746009065	267.78006537066267
0.7427865517300065	268.0834417686902
0.7429103494886282	269.3920250014618
0.7430341678802096	270.7110858769901
0.7431580069081896	271.73576945555544
0.7432818665760077	272.6446326129659
0.7434057468871037	273.488014140623
0.7435296478449182	274.20558821969627
0.7436535694528923	275.0001607814012
0.7437775117144678	275.8958467697645
0.7439014746330868	276.3346146470504
0.7440254582121922	276.8626118864169
0.7441494624552276	278.12793914816626
0.7442734873656368	278.81706067884545
0.7443975329468645	279.1098270638351
0.7445215992023557	279.97232515576246
0.7446456861355559	281.110984220271
0.7447697937499119	282.70373711645846
0.7448939220488703	283.87774783959776
0.7450180710358784	284.9178633721881
0.7451422407143843	285.9621947889554
0.7452664310878367	286.96237772145867
0.7453906421596846	287.92418417841395
0.7455148739333779	288.84216478814096
0.7456391264123667	289.7543927806283
0.7457633996001021	290.661720450112
0.7458876935000356	291.5603383355192
0.7460120081156189	292.4597542466916
0.7461363434503048	293.39998392753887
0.7462606995075466	294.29829259962213
0.7463850762907978	295.1526160601836
0.7465094738035127	295.9149715308832
0.7466338920491467	296.77246354559384
0.746758331031155	297.9174628934903
0.7468827907529935	298.86004694279745
0.7470072712181189	299.7189338977943
0.7471317724299886	300.87034852566535
0.7472562943920602	301.90037917559243
0.7473808371077922	302.78320963558883
0.7475054005806435	303.32509830005404
0.7476299848140736	304.0243076068564
0.7477545898115426	305.41547585211265
0.7478792155765113	306.5990024908119
0.7480038621124406	307.64557719322676
0.7481285294227926	308.130353326966
0.7482532175110298	309.02753673584004
0.7483779263806148	310.47871224372994
0.7485026560350116	311.4600068009843
0.7486274064776842	312.34717019932293
0.748752177712097	313.2586748016605
0.7488769697417158	314.4128206614852
0.749001782570006	315.71469724468534
0.7491266162004343	316.79945115871146
0.7492514706364677	317.8337141605487
0.7493763458815739	318.7958927692949
0.7495012419392209	319.81734567443004
0.7496261588128773	320.82889685940233
0.7497510965060128	321.7504256089051
0.7498760550220971	322.7720941019995
0.7500010343646007	323.8577041606189
0.7501260345369949	324.8798950803234
0.750251055542751	325.91493144007234
0.7503760973853414	326.9685060696261
0.7505011600682389	327.9604895610258
0.750626243594917	328.9241649595663
0.7507513479688495	329.8357301468684
0.7508764731935109	330.93330509425874
0.7510016192723765	332.14770730721364
0.7511267862089218	333.23889195425596
0.7512519740066232	334.30965903546985
0.7513771826689577	335.35158211417354
0.7515024121994025	336.45852788489395
0.7516276626014359	337.55401522818687
0.751752933878536	338.5576170287404
0.7518782260341824	339.47751206623377
0.7520035390718548	340.35740347327413
0.7521288729950334	341.5924515394224
0.7522542278071992	342.7750195454322
0.7523796035118337	343.88866853880126
0.7525050001124189	344.9769674779428
0.7526304176124378	346.00094837407767
0.7527558560153731	346.8391198793759
0.752881315324709	348.0341247087727
0.7530067955439299	349.41201307645474
0.7531322966765205	350.5981991808863
0.7532578187259665	351.7537949682312
0.7533833616957542	352.8735258614413
0.75350892558937	353.99168663554445
0.7536345104103016	355.1013760388329
0.7537601161620366	356.1891068685262
0.7538857428480638	357.2859412162058
0.7540113904718717	358.38871517690677
0.7541370590369503	359.5077841364887
0.7542627485467898	360.5420028687381
0.7543884590048808	361.4910822534651
0.7545141904147151	362.8093062473896
0.7546399427797842	364.10875236389154
0.7547657161035808	365.28745238054734
0.754891510389598	366.4467202902651
0.7550173256413296	367.5955589554424
0.7551431618622698	368.7241253167273
0.7552690190559135	369.86010390509625
0.7553948972257561	371.0022219869613
0.7555207963752938	372.2160043187691
0.755646716508023	373.42685433697727
0.755772657627441	374.62747024590897
0.7558986197370455	375.82048920048703
0.756024602840335	377.0068249529564
0.7561506069408084	378.1739058554898
0.7562766320419653	379.3581740940112
0.7564026781473054	380.55323610984834
0.75652874526033	381.7319977584722
0.7566548333845401	382.9236598996707
0.7567809425234375	384.13203200452386
0.7569070726805247	385.3332153149211
0.7570332238593047	386.5489942856851
0.7571593960632813	387.8089270636127
0.7572855892959586	389.01966545754397
0.7574118035608413	390.20251266722335
0.7575380388614347	391.3404637965176
0.7576642952012449	392.5632945440185
0.7577905725837782	393.8679582199135
0.7579168710125422	395.1124244026026
0.7580431904910444	396.356607669016
0.7581695310227928	397.60943735411695
0.7582958926112967	398.84957828509977
0.7584222752600652	400.0925743786635
0.7585486789726085	401.3673172907752
0.7586751037524372	402.6461930159497
0.7588015496030628	403.92752747741815
0.7589280165279966	405.17410807239224
0.7590545045307512	406.42368482044554
0.7591810136148396	407.67715303740704
0.7593075437837755	408.9638260384628
0.7594340950410726	410.2493754992787
0.7595606673902461	411.5157085819958
0.7596872608348112	412.7864613900726
0.7598138753782836	414.0647058762358
0.75994051102418	415.3869043496516
0.7600671677760173	416.7126541513611
0.7601938456373134	418.04157556045624
0.7603205446115863	419.345114414186
0.7604472647023548	420.65928547759177
0.7605740059131385	421.99338501778925
0.7607007682474575	423.305343034226
0.7608275517088319	424.61119307170816
0.7609543563007835	425.9152553309881
0.7610811820268336	427.22963873775973
0.7612080288905045	428.55192792158425
0.7613348968953197	429.90411424231775
0.7614617860448022	431.2255375859589
0.7615886963424764	432.51452373609004
0.7617156277918667	433.8420804773374
0.7618425803964988	435.19385829736063
0.7619695541598982	436.5859922279944
0.7620965490855914	437.99096042389874
0.7622235651771058	439.39797831331674
0.7623506024379685	440.79575057270495
0.7624776608717082	442.1535565698277
0.7626047404818536	443.48859992506624
0.7627318412719337	444.89058215788225
0.762858963245479	446.2838125882313
0.7629861064060198	447.6668867178387
0.7631132707570876	449.04734873146305
0.7632404563022137	450.4329446658907
0.7633676630449308	451.8300337503782
0.7634948909887717	453.25240919750854
0.7636221401372697	454.6738003676588
0.7637494104939593	456.0490833076343
0.7638767020623748	457.46678923201074
0.7640040148460518	458.91193501204435
0.7641313488485262	460.3379606183868
0.7642587040733344	461.76283919539765
0.7643860805240132	463.18633565226827
0.7645134782041005	464.61619159195334
0.7646408971171346	466.04266983520375
0.764768337266654	467.4601452700978
0.7648957986561985	468.84052817921014
0.7650232812893079	470.2382241133538
