#wavelength	surface flux
0.8	19290.224862552684
0.8002000000000001	19352.230213472525
0.8004000500000003	19420.710681514352
0.8006001500125003	19498.936661731128
0.8008003000500035	19563.69518730947
0.8010005001250161	19634.525432375693
0.8012007502500472	19710.20420977313
0.8014010504376099	19783.0602336554
0.8016014007002193	19851.58957276694
0.8018018010503944	19919.468359865714
0.8020022515006572	19998.060046733986
0.8022027520635323	20074.233580041826
0.8024033027515483	20150.123927665845
0.8026039035772362	20219.11790386077
0.8028045545531306	20291.807807517667
0.8030052556917691	20365.410688385015
0.803206007005692	20446.43242641413
0.8034068085074435	20522.006156079955
0.8036076602095705	20592.56144667619
0.8038085621246229	20669.711596479774
0.8040095142651542	20742.20337209288
0.8042105166437206	20812.846166532116
0.8044115692728815	20888.278342845242
0.8046126721651998	20955.72639773432
0.8048138253332411	21036.969086589696
0.8050150287895745	21116.361332309847
0.805216282546772	21192.928039388084
0.8054175866174087	21266.222405596967
0.8056189410140631	21345.018015277863
0.8058203457493168	21419.571921177285
0.8060218008357541	21497.810197598905
0.8062233062859632	21570.268155508384
0.8064248621125346	21652.345117328903
0.806626468328063	21733.252348255286
0.8068281249451449	21805.55379324981
0.8070298319763813	21884.425418902007
0.8072315894343755	21963.431215776473
0.8074333973317341	22039.10646021152
0.8076352556810671	22119.91491302468
0.8078371644949874	22201.879102459745
0.8080391237861113	22280.558245928256
0.8082411335670578	22354.809858407083
0.8084431938504498	22436.95056316442
0.8086453046489125	22517.97005165308
0.8088474659750746	22592.12012259078
0.8090496778415686	22674.939213239344
0.809251940261029	22752.894548967022
0.8094542532460944	22823.176348504676
0.8096566168094059	22899.531984458932
0.8098590309636085	22996.45017694998
0.8100614957213493	23079.196956621086
0.8102640110952797	23156.345750086595
0.8104665770980536	23239.021449625772
0.8106691937423283	23316.363549004127
0.8108718610407639	23350.21943623984
0.8110745790060241	23404.551672938065
0.8112773476507757	23531.363767154184
0.8114801669876885	23580.06509516626
0.8116830370294355	23652.099158994464
0.8118859577886929	23811.91866167627
0.8120889292781401	23907.795546122998
0.8122919515104597	23989.121543270903
0.8124950244983374	24077.042387078254
0.8126981482544621	24165.054283617297
0.8129013227915257	24248.858177509956
0.8131045481222237	24313.549614535998
0.8133078242592543	24362.460501407495
0.8135111512153191	24392.34807605641
0.813714529003123	24498.60442503992
0.8139179576353739	24643.051099628556
0.8141214371247829	24696.829874245883
0.8143249674840641	24737.986301614616
0.814528548725935	24792.171940628814
0.8147321808631167	24951.168819281986
0.8149358639083326	25088.175591453535
0.8151395978743097	25146.427741972926
0.8153433827737784	25261.936365105852
0.8155472186194719	25362.506251141567
0.8157511054241268	25458.00411477378
0.815955043200483	25520.26636319972
0.8161590319612831	25623.989924372454
0.8163630717192736	25679.913055696103
0.8165671624872033	25798.24025805092
0.8167713042778252	25924.548170393857
0.8169754971038948	26003.349097957445
0.8171797409781707	26031.288319360658
0.8173840359134155	26182.42074964097
0.8175883819223938	26298.304943220264
0.8177927790178745	26385.918982546395
0.8179972272126291	26446.315502922636
0.8182017265194322	26532.048449506194
0.8184062769510622	26539.688333642807
0.8186108785203001	26732.60157592066
0.8188155312399301	26858.26853703291
0.8190202351227402	26947.885682114786
0.819224990181521	27037.06637898913
0.8194297964290664	27134.537044968645
0.8196346538781738	27220.787738097657
0.8198395625416434	27293.994774507144
0.8200445224322789	27355.0820534611
0.820249533562887	27501.548717085585
0.8204545959462778	27610.59771113139
0.8206597095952644	27704.83535535957
0.8208648745226633	27800.331308230303
0.8210700907412941	27896.084281348823
0.8212753582639793	27996.396374455693
0.8214806771035456	28097.010617375116
0.8216860472728215	28195.172865105433
0.8218914687846397	28289.238301244965
0.822096941651836	28386.422483567785
0.822302465887249	28478.354493642015
0.8225080415037209	28559.35289527168
0.8227136685140968	28605.045480685665
0.8229193469312254	28493.86937864578
0.8231250767679583	28579.47099988845
0.8233308580371503	28767.100272898337
0.8235366907516598	28912.789730888537
0.8237425749243477	29061.17202834708
0.8239485105680789	29234.778869476395
0.824154497695721	29364.10200518521
0.824360536320145	29474.220501245225
0.8245666264542252	29581.935800129504
0.8247727681108388	29698.18054672699
0.8249789613028664	29791.874966683026
0.8251852060431922	29904.27280035253
0.825391502344703	30014.77984961182
0.8255978502202894	30119.815467478034
0.8258042496828445	30218.932190834537
0.8260107007452654	30318.887899118923
0.8262172034204517	30395.359804995212
0.8264237577213068	30481.32693324462
0.8266303636607373	30538.77499974746
0.8268370212516525	30727.59763987455
0.8270437305069654	30852.921425253247
0.8272504914395923	30950.535413544345
0.8274573040624523	31048.106316538742
0.8276641683884679	31157.390943445822
0.8278710844305652	31263.92651346024
0.8280780522016729	31364.083597350203
0.8282850717147234	31447.38051153888
0.8284921429826521	31566.652109523682
0.8286992660183978	31681.84893401843
0.8289064408349024	31719.77677208194
0.8291136674451112	31825.341573455
0.8293209458619727	31996.07878933161
0.8295282760984382	32104.315552889348
0.829735658167463	32187.468074098248
0.8299430920820048	32306.53426522677
0.8301505778550254	32444.473888994675
0.8303581154994891	32574.67526449236
0.8305657050283641	32683.040424672545
0.8307733464546212	32792.856570738375
0.8309810397912352	32902.7782917556
0.8311887850511829	33003.39066189591
0.8313965822474458	33031.15199332912
0.8316044313930077	33184.18944663654
0.8318123325008561	33333.43713432478
0.8320202855839813	33450.80224432034
0.8322282906553774	33565.73822139193
0.8324363477280413	33640.42034622843
0.8326444568149735	33816.58770023475
0.8328526179291771	33945.26464822883
0.8330608310836596	34019.6113322463
0.8332690962914304	34096.17287642546
0.8334774135655034	34244.79435360136
0.833685782918895	34370.59946113635
0.8338942043646247	34504.20629563185
0.834102677915716	34628.77987639168
0.834311203585195	34741.7330838399
0.8345197813860912	34864.18969090082
0.8347284113314379	34995.14150843961
0.8349370934342709	35117.843368743925
0.8351458277076294	35230.155340368074
0.8353546141645565	35343.10558539863
0.8355634528180977	35428.18413995626
0.8357723436813022	35568.908374568295
0.8359812867672226	35696.86548825349
0.8361902820889144	35813.11904700488
0.8363993296594368	35894.58497909076
0.8366084294918518	36061.15201397299
0.8368175815992247	36201.664173856334
0.8370267859946247	36311.11286448839
0.8372360426911234	36435.36326891165
0.8374453517017962	36544.8471045675
0.8376547130397217	36628.36787627733
0.8378641267179816	36792.4711050458
0.8380735927496613	36940.40494456361
0.8382831111478488	37056.23940542109
0.8384926819256358	37149.64168590742
0.8387023050961173	37261.414218027196
0.8389119806723914	37413.730158735685
0.8391217086675596	37574.01862302947
0.8393314890947265	37708.649329850334
0.8395413219670003	37814.20378256783
0.8397512072974922	37940.43948041176
0.8399611450993165	38046.53899425421
0.8401711353855914	38133.614649918556
0.8403811781694378	38309.69159507798
0.8405912734639802	38449.196226058404
0.8408014212823464	38538.1941595997
0.8410116216376671	38706.50349695269
0.8412218745430766	38857.932351823176
0.8414321800117124	38993.39671859429
0.8416425380567154	39108.2035866895
0.8418529486912297	39232.12961606109
0.8420634119284025	39358.70009286318
0.8422739277813847	39508.39148274226
0.8424844962633302	39651.10126267488
0.842695117387396	39778.5123548177
0.8429057911667428	39897.61350870457
0.8431165176145345	40040.57962217529
0.8433272967439382	40189.47806933627
0.8435381285681244	40321.48957954376
0.8437490131002665	40454.28756017219
0.8439599503535415	40591.703816020294
0.84417094034113	40713.952503137465
0.8443819830762154	40854.41032736111
0.8445930785719846	40975.07046460711
0.8448042268416277	41135.21931336016
0.8450154278983382	41270.61109259414
0.8452266817553128	41408.89715444969
0.8454379884257517	41535.109837818694
0.8456493479228583	41650.71146805884
0.845860760259839	41827.921539818104
0.846072225449904	41978.27452655364
0.8462837435062666	42091.78230751319
0.8464953144421433	42178.65197382474
0.8467069382707537	42335.72503645929
0.8469186150053215	42525.98863653324
0.847130344659073	42669.81612975578
0.8473421272452377	42815.33480174491
0.8475539627770492	42952.74123243616
0.8477658512677435	43102.30361803799
0.8479777927305605	43246.50160049012
0.8481897871787432	43386.07866762101
0.848401834625538	43532.475789053344
0.8486139350841944	43676.59349700331
0.8488260885679657	43797.694969434844
0.8490382950901076	43920.52260311911
0.8492505546638802	44099.961909169215
0.8494628673025462	44257.32896979763
0.8496752330193721	44408.88350839392
0.8498876518276269	44553.13059961006
0.8501001237405839	44700.30562846257
0.8503126487715191	44851.85020624239
0.850525226933712	45000.70166854594
0.8507378582404455	45150.25080731449
0.8509505427050057	45298.92803860641
0.8511632803406821	45449.94886030611
0.8513760711607672	45599.29627801691
0.8515889151785576	45748.458077066374
0.8518018124073523	45885.94394553999
0.8520147628604541	46041.477427709
0.8522277665511693	46192.38281048745
0.8524408234928071	46355.703050180586
0.8526539336986805	46508.13147294971
0.8528670971821053	46662.109280121964
0.8530803139564007	46799.984109949386
0.8532935840348901	46939.89054395115
0.8535069074308987	47097.78951078973
0.8537202841577566	47258.488841547856
0.8539337142287962	47413.005459653716
0.8541471976573534	47556.05525579013
0.8543607344567677	47725.544907633615
0.8545743246403821	47896.17499823952
0.8547879682215422	48051.405111180575
0.8550016652135977	48199.87110005514
0.8552154156299011	48364.68033957592
0.8554292194838088	48533.076156475196
0.8556430767886797	48688.78484295373
0.855856987557877	48853.4862416432
0.8560709518047664	49018.251257242984
0.8562849695427177	49181.11809988162
0.8564990407851035	49344.24358720598
0.8567131655452999	49504.69530225833
0.8569273438366862	49669.30129038315
0.8571415756726455	49831.56815885874
0.8573558610665638	49987.09220347216
0.8575702000318304	50153.041065595884
0.8577845925818384	50324.281187381406
0.857999038729984	50488.698508032554
0.8582135384896665	50643.70258454464
0.858428091874289	50787.112473275556
0.8586426988972576	50952.91768404405
0.8588573595719821	51122.23725618837
0.8590720739118751	51293.132802762324
0.8592868419303532	51460.37168000433
0.8595016636408359	51630.20843640325
0.8597165390567462	51795.988747949516
0.8599314681915105	51960.43213197595
0.8601464510585584	52133.697722291574
0.860361487671323	52307.13845719259
0.8605765780432408	52481.92591748705
0.8607917221877518	52642.18955697352
0.8610069201182988	52782.693724525896
0.8612221718483286	52869.708935527764
0.8614374773912907	52925.1684136733
0.8616528367606385	53085.927292215
0.8618682499698288	53192.797632799375
0.8620837170323213	53347.125445801736
0.8622992379615795	53554.559246994606
0.8625148127710699	53647.1752757153
0.8627304414742627	53826.50606302114
0.8629461240846313	54096.707265399615
0.8631618606156526	54197.01514113901
0.8633776510808066	54371.017581721164
0.8635934954935769	54590.052658293884
0.8638093938674504	54789.217222948726
0.8640253462159173	54956.74688641139
0.8642413525524714	55093.29203832443
0.8644574128906095	55371.22409224095
0.8646735272438323	55555.15023733014
0.8648896956256433	55713.80213212291
0.8651059180495498	55970.70365879166
0.8653221945290621	56172.41567219206
0.8655385250776946	56389.83304019034
0.8657549097089641	56595.35646329186
0.8659713484363913	56798.92748899871
0.8661878412735006	56990.46081398994
0.866404388233819	57157.5742546099
0.8666209893308775	57321.753674341126
0.8668376445782103	57543.292182658355
0.8670543539893549	57729.54616687063
0.8672711175778525	57883.30624937196
0.8674879353572469	58053.31473703694
0.8677048073410862	58256.92340490293
0.8679217335429217	58467.21144911881
0.8681387139763074	58651.00462974327
0.8683557486548015	58788.156952949714
0.8685728375919655	58974.74050083909
0.8687899808013633	59219.490387959035
0.8690071782965637	59447.422863720356
0.869224430091138	59647.713693065736
0.8694417361986609	59792.60015857304
0.8696590966327107	59927.707734314696
0.869876511406869	60145.47948704729
0.8700939805347206	60360.150391359115
0.8703115040298544	60596.76010904318
0.870529081905862	60782.363642660544
0.8707467141763385	60936.3881461341
0.8709644008548827	61105.555208460995
0.8711821419550964	61322.45912822364
0.8713999374905854	61544.01098251411
0.871617787474958	61788.707959904095
0.8718356919218269	61975.26517908997
0.8720536508448075	62125.52616823652
0.8722716642575187	62300.723191492594
0.8724897321735832	62515.69162712815
0.8727078546066265	62742.284401248355
0.8729260315702784	62968.457415936704
0.873144263078171	63192.80376291773
0.8733625491439405	63388.66089722269
0.8735808897812266	63516.58134084135
0.8737992850036719	63732.42111988123
0.874017734824923	63943.726212202986
0.8742362392586293	64197.166001169695
0.874454798318444	64398.125951741466
0.8746734120180236	64594.04587665464
0.8748920803710283	64810.236726284165
0.875110803391121	64993.696746930975
0.8753295810919689	65194.938182572405
0.875548413487242	65431.90968577467
0.8757673005906139	65659.41363735335
0.8759862424157616	65883.13474360548
0.8762052389763657	66086.80610849382
0.8764242902861098	66287.59380536866
0.8766433963586814	66502.80828888729
0.8768625572077712	66669.5113201573
0.8770817728470732	66852.3589219384
0.8773010432902849	67109.61368624154
0.8775203685511077	67361.74629087807
0.8777397486432454	67593.4412158122
0.8779591835804065	67796.36713432828
0.8781786733763015	67994.93981380784
0.8783982180446457	68203.54658146012
0.878617817599157	68414.60624964607
0.8788374720535569	68613.5100603187
0.8790571814215703	68833.28386991269
0.8792769457169257	69058.07172506177
0.879496764953355	69307.1869405225
0.8797166391445934	69557.25597965329
0.8799365683043796	69766.46072061772
0.8801565524464557	69905.2258325123
0.8803765915845676	70104.22066035116
0.8805966857324639	70377.89079024534
0.880816834903897	70599.52194675492
0.881037039112623	70839.32333406931
0.8812572983724012	71053.00862481399
0.8814776126969944	71268.99806155093
0.8816979821001687	71529.66900474584
0.8819184065956938	71793.46740622917
0.8821388861973429	72013.2833990071
0.8823594209188923	72195.57397932149
0.882580010774122	72422.17587697794
0.8828006557768155	72669.6430504268
0.8830213559407598	72897.59166394231
0.8832421112797452	73138.07806661126
0.8834629218075651	73337.49647506396
0.8836837875380171	73547.31892040375
0.8839047084849018	73815.64273292891
0.884125684662023	74092.77473657166
0.8843467160831886	74330.00313733847
0.8845678027622095	74538.1261575994
0.8847889447129001	74724.70711083103
0.8850101419490785	74968.40694614418
0.8852313944845657	75206.21537100332
0.885452702333187	75483.25601041631
0.8856740655087704	75711.06843429727
0.8858954840251476	75891.39026180057
0.8861169578961539	76123.15934073082
0.886338487135628	76418.7928834701
0.886560071757412	76686.77330413528
0.8867817117753515	76928.82593316278
0.8870034072032955	77152.03118085566
0.8872251580550963	77350.71750668272
0.8874469643446101	77601.26320066968
0.8876688260856963	77864.56414237303
0.8878907432922178	78135.36840858727
0.8881127159780409	78368.40509707462
0.8883347441570356	78568.95333086998
0.8885568278430749	78766.93405612129
0.8887789670500358	79042.66353120176
0.8890011617917983	79319.1807766818
0.8892234120822464	79612.03119109274
0.8894457179352669	79859.61411629441
0.8896680793647509	80068.60956191889
0.8898904963845921	80277.90777031326
0.8901129690086883	80540.91731148325
0.8903354972509405	80832.8393401729
0.8905580811252535	81097.89619959448
0.8907807206455347	81255.75780671142
0.8910034158256963	81245.7350138344
0.8912261666796527	81635.97622138582
0.8914489732213227	82024.5125256189
0.8916718354646282	82252.86336602856
0.8918947534234944	82440.47834136004
0.8921177271118502	82622.33745435448
0.8923407565436284	82748.03578116711
0.8925638417327644	83073.00908483488
0.8927869826931977	83466.764552199
0.8930101794388711	83733.87818156046
0.8932334319837308	83835.41434705314
0.8934567403417267	84073.27074783911
0.8936801045268123	84422.20569157349
0.8939035245529441	84695.32685692635
0.8941270004340824	84957.20402238937
0.894350532184191	85178.72227973898
0.8945741198172371	85571.69100292606
0.8947977633471915	85920.14060258536
0.8950214627880284	86153.66603503758
0.8952452181537254	86346.35663133401
0.8954690294582639	86525.86797548505
0.8956928967156286	86873.52494457996
0.8959168199398075	87166.65879975639
0.8961407991447926	87479.99169253604
0.8963648343445789	87561.04525129605
0.896588925553165	87244.46359060763
0.8968130727845534	87628.43007340048
0.8970372760527496	88314.89799423119
0.8972615353717629	87846.02591139925
0.8974858507556059	87875.18272281896
0.8977102222182949	89223.44756337875
0.8979346497738496	89740.25203831833
0.8981591334362931	89957.28811954506
0.8983836732196523	90165.2584649777
0.8986082691379572	90492.04539543852
0.8988329212052417	90238.75096075547
0.8990576294355432	89656.67139866314
0.8992823938429022	90229.04998641564
0.8995072144413631	91058.24378899598
0.8997320912449734	91881.99186952694
0.8999570242677847	92203.3135588814
0.9001820135238516	92366.31093700744
0.9004070590272328	92592.5988785322
0.9006321607919896	92601.45288267761
0.9008573188321878	92959.16936671727
0.9010825331618959	93196.8651350575
0.9013078037951865	93770.65739491297
0.9015331307461353	94119.09587773083
0.9017585140288219	94456.09680261873
0.9019839536573292	94751.2638314493
0.9022094496457435	95120.97769803139
0.9024350020081551	95394.36593151867
0.9026606107586572	95618.9267363616
0.902886275911347	95877.04438366664
0.9031119974803249	96180.6255499981
0.9033377754796951	96464.86170254067
0.903563609923565	96849.85555096414
0.903789500826046	97180.84273590331
0.9040154482012526	97441.47897540311
0.904241452063303	97737.86710190764
0.9044675124263188	98018.81707014613
0.9046936293044254	98281.41203466905
0.9049198027117517	98570.01065157176
0.9051460326624297	98920.3079205841
0.9053723191705955	99259.81452341206
0.9055986622503881	99540.38931520142
0.9058250619159507	99879.93334647057
0.9060515181814298	100172.24757755345
0.9062780310609752	100400.64265752146
0.9065046005687405	100671.21892259084
0.906731226718883	101021.65794021502
0.9069579095255627	101339.27001492713
0.907184649002944	101543.41285083417
0.907411445165195	101823.4990181334
0.9076382980264862	102230.5701016734
0.907865207600993	102546.3651251927
0.9080921739028933	102733.50519616604
0.9083191969463691	102992.53798428463
0.9085462767456058	103391.63054370935
0.9087734133147922	103598.58807857032
0.9090006066681211	103915.12819259029
0.909227856819788	104363.43973210228
0.9094551637839932	104726.30558125659
0.9096825275749393	104973.72380500183
0.9099099482068329	105244.42561812616
0.9101374256938848	105523.57396400157
0.9103649600503083	105903.02878662343
0.9105925512903209	106138.32845958904
0.9108201994281437	105769.10847676486
0.9110479044780008	106394.0032162131
0.9112756664541204	107248.3998128301
0.911503485370734	107654.27623783826
0.9117313612420768	107838.9361986309
0.9119592940823873	108163.65114404671
0.912187283905908	108578.11643900245
0.9124153307268845	108972.79072365345
0.9126434345595664	109291.72069142744
0.9128715954182063	109538.93734711905
0.9130998133170609	109734.64557342316
0.9133280882703902	110011.37304228361
0.913556420292458	110416.66736163656
0.9137848093975312	110683.80849351082
0.9140132555998806	111136.13935108618
0.9142417589137806	111553.11255249078
0.9144703193535092	111654.57565154832
0.9146989369333476	111940.57747931071
