#wavelength	surface flux
0.6450077295303345	555.6036793214098
0.6472567915916443	593.43653330487
0.6494921445846558	633.1665754456528
0.6517150402069092	674.8291842705129
0.6539263725280762	718.7398861994488
0.6561272740364075	764.652776208732
0.6583186388015747	812.9270701899692
0.6605015397071838	864.1238347706359
0.6626768708229065	917.56608032097
0.6648455858230591	973.7020828048625
0.6670085787773132	1032.699967672233
0.6691668033599854	1094.40351811531
0.6713210344314575	1157.4031461703812
0.6734722256660461	1227.8871909055788
0.6756211519241333	1299.5970734365312
0.6777685880661011	1374.4560092075135
0.6799154281616211	1453.2258053859184
0.6820623278617859	1536.4129403603256
0.6842101216316223	1623.41398612558
0.6863595843315125	1714.6994882025333
0.688511312007904	1810.3753380729886
0.6906660795211792	1910.351595038249
0.6928245425224304	2014.1811446710153
0.6949873566627502	2126.579453779507
0.6971551775932312	2243.50851476023
0.6993286609649658	2364.372533716159
0.7015084028244019	2493.641005662957
0.7036949396133423	2628.15518474042
0.7058889269828796	2769.614975658464
0.7080909013748169	2917.608065340014
0.710301399230957	3072.68082156372
0.712520956993103	3236.2002476836856
0.7147500514984131	3407.498120203859
0.7169892191886902	3577.078775097675
0.7192389369010925	3773.7255637734543
0.7214996814727783	3973.6707288987955
0.723771870136261	4181.531605012674
0.7260559797286987	4400.012227539544
0.7283523678779602	4630.674860581695
0.7306615710258484	4866.908835126655
0.7329838871955872	5122.4703123166455
0.7353196740150452	5378.0377615348325
0.7376693487167358	5658.8923188671915
0.7400332689285278	5946.4335960515045
0.7424117922782898	6245.658837092199
0.7448052167892456	6558.991539697963
0.7472138404846191	6891.544895245535
0.7496379613876343	7233.176916288603
0.7520779371261597	7572.601621227997
0.7545340061187744	7909.193339387594
0.7570064663887024	8212.176208204704
0.7594954967498779	8412.914222869167
0.7620013952255249	8307.316286495943
0.7645244002342224	7312.9914524803835
0.7670646905899048	6081.499865045938
0.7696225643157959	6639.661654964933
0.7721980810165405	8917.806958464565
0.7747915983200073	10969.186205348298
0.7774031162261963	12091.585668264494
0.7800329327583313	11833.019450722253
0.7826811671257019	13768.404276836576
0.7853479981422424	14596.404513731022
0.7880334854125977	15404.734327483835
0.7907378077507019	16232.7376080344
0.7934610247612	16829.74897793699
0.7962033748626709	17561.95483629075
0.7989648580551147	18923.05242619115
0.801745593547821	19906.584346366257
0.8045456409454346	20940.863954521443
0.8073651194572449	22016.567539629355
0.8102040886878967	23118.027356303694
0.8130625486373901	24269.06492284373
0.8159406185150146	25531.780855681238
0.8188382983207703	26829.605077050033
0.8217556476593018	28203.68631600874
0.8246926665306091	29628.82478273215
0.8276493549346924	31130.983308047063
0.8306257724761963	32695.730224534655
0.8336219191551208	34357.33264585009
0.8366377949714661	36064.9725625278
0.8396733403205872	37884.430248324905
0.8427285552024841	39801.14249520825
0.8458034992218018	41776.8358149546
0.8488980531692505	43863.08239052872
0.8520121574401855	46043.961064676325
0.8551458716392517	48319.5509806425
0.8582990765571594	50705.369900464364
0.8614717125892639	53006.04841572639
0.8646637797355652	55553.83759199621
0.8678751587867737	58422.81065207623
0.8711057901382446	61280.42488024092
0.8743556141853333	64294.75102796254
0.87762451171875	67447.5840253615
0.8809124231338501	70713.25413878345
0.8842192888259888	74158.46007497668
0.8875449895858765	77727.13281503753
0.8908893465995789	81337.77850228334
0.894252359867096	85129.06006318922
0.8976338505744934	88779.64278720223
0.9010337591171265	93386.57436877927
0.9044519662857056	98009.24354933237
0.9078882932662964	102502.64240708758
0.9113426208496094	107221.7071292478
0.914814829826355	112252.29715099583
0.9183048605918884	117326.18549867871
0.9218124747276306	122877.07071628641
0.925337553024292	127953.0069162647
0.9288799166679382	130919.59255940879
0.9324395060539246	133610.75182293192
0.9360161423683167	142727.26579922435
0.9396095871925354	152297.15335465994
0.943219780921936	158719.3250691927
0.9468464851379395	163405.34573481578
0.9504896402359009	170548.12936104176
0.9541489481925964	179414.9046990255
0.9578243494033813	187939.5019362534
0.9615156054496765	195829.2166479312
0.9652225375175476	205349.4424363578
0.9689450263977051	215929.60742014943
0.9726828336715698	223632.20215889465
0.9764357805252075	235054.8420502082
0.9802037477493286	244890.59571934
0.983986496925354	256069.03763076026
0.9877838492393494	267314.61478484
0.9915955662727356	278796.1546658593
0.9954215884208679	290663.2177068497
0.9992615580558777	302571.2667321021
1.0031154155731201	314686.7586387291
1.0069829225540161	327441.21527157165
1.0108637809753418	340627.6402296654
1.0147579908370972	354175.62512827513
1.018665075302124	368186.61615399935
1.022585153579712	382651.811192555
1.0265177488327026	397567.0253378321
1.0304628610610962	412940.7022451386
1.0344202518463135	428827.60386835557
1.0383895635604858	445144.7987696984
1.0423706769943237	462036.18900195754
1.0463634729385376	479348.52325922146
1.0503677129745483	497191.10232431226
1.0543830394744873	515642.2995222643
1.058409333229065	534544.805008709
1.0624464750289917	555004.5751647102
1.0664942264556885	575571.334762752
1.0705522298812866	596316.0782351918
1.0746204853057861	617722.1492089668
1.0786986351013184	639346.1342158375
1.0827864408493042	661982.6711622876
1.086883783340454	684581.0311000729
1.0909905433654785	707500.581864282
1.0951062440872192	730110.6907486746
1.0992310047149658	750133.5900461236
1.10336434841156	768066.5290122303
1.1075061559677124	786854.5402981223
1.1116561889648438	794587.3653143969
1.115814208984375	765229.1419429756
1.1199802160263062	829826.378211945
1.124153733253479	806862.9594615323
1.1283347606658936	912104.4712376198
1.1325229406356812	922460.5294982288
1.1367181539535522	965605.1891179356
1.1409201622009277	1028581.7872790793
1.145128846168518	1026854.7129912731
1.1493438482284546	1035031.053838394
1.1535650491714478	1098476.3797754147
1.1577922105789185	1149641.4770536197
1.1620250940322876	1177239.6944858353
1.1662636995315552	1219663.291226199
1.170507550239563	1256603.5713120587
1.174756646156311	1298207.565825557
1.1790107488632202	1350743.1600755295
1.1832695007324219	1395628.134878347
1.1875330209732056	1438086.2826327672
1.191800832748413	1482312.943554871
1.1960728168487549	1526920.2189418788
1.2003488540649414	1569708.0193336117
1.2046287059783936	1614459.8544916585
1.2089121341705322	1658473.9236541195
1.2131990194320679	1703303.4964717748
1.2174891233444214	1753295.8643833739
1.2217823266983032	1800083.0171914927
1.2260783910751343	1849077.4493904584
1.230377197265625	1898724.7569727038
1.2346785068511963	1950424.9638272745
1.238982081413269	2000700.2621778017
1.2432878017425537	2052172.4804119703
1.2475954294204712	2103844.737024708
1.2519049644470215	2156389.8322736127
1.256216049194336	2211460.486703881
1.2605286836624146	2266231.65527281
1.2648425102233887	2321884.2524596313
1.2691574096679688	2378811.4210243863
1.2734732627868652	2434377.9930522265
1.2777899503707886	2492964.7650663443
1.2821072340011597	2549497.1938311704
1.2864248752593994	2605523.7421620605
1.2907428741455078	2663300.961294247
1.2950609922409058	2708250.252799586
1.2993791103363037	2776619.1688596625
1.303696870803833	2840596.441993502
1.3080145120620728	2907305.8816040233
1.3123314380645752	2971609.0087193
1.3166478872299194	3029700.965558321
1.3209635019302368	3092575.469258038
1.3252781629562378	3149856.7360446644
1.3295916318893433	3174789.1961040716
1.3339040279388428	3150607.1515187747
1.3382149934768677	2670074.4984797956
1.3425244092941284	2431596.9841271304
1.3468321561813354	2015039.2164060855
1.3511382341384888	2222686.4865186024
1.3554422855377197	1854361.0147570116
1.3597444295883179	1756404.1327486115
1.3640443086624146	2441091.995718157
1.3683418035507202	2593474.9003037116
1.3726370334625244	2921082.5639927634
1.3769296407699585	3051847.6470196727
1.381219506263733	2629794.4484083066
1.3855066299438477	2223895.4115490224
1.3897908926010132	2676260.2553661186
1.3940720558166504	2539345.392840611
1.3983501195907593	2843728.8599118832
1.4026249647140503	3201980.0377602526
1.4068963527679443	3199618.6772770295
1.4111642837524414	3173696.42822731
1.4154287576675415	3194683.1490609986
1.419689416885376	2807581.5205796855
1.4239463806152344	2896058.0673742346
1.4281994104385376	3663084.865518622
1.4324485063552856	3331158.8827547967
1.436693549156189	3947241.6037975927
1.440934419631958	3834950.940781934
1.4451709985733032	4074926.3899215246
1.449403166770935	4377707.0156168295
1.453631043434143	4596531.424488775
1.4578542709350586	4976110.759513183
1.4620729684829712	4927791.929092228
1.4662868976593018	5248606.4638768425
1.4704961776733398	5226432.3912357
1.4747005701065063	5401921.874415053
1.4788999557495117	5586435.300567155
1.4830944538116455	5594638.80857547
1.4872838258743286	5768674.969307938
1.491468071937561	5925703.671399057
1.4956470727920532	6018611.023338223
1.4998208284378052	6200946.277792514
1.5039892196655273	6308986.590995147
1.5081522464752197	6439619.134061117
1.5123097896575928	6573659.921338565
1.5164618492126465	6731849.791016606
1.5206083059310913	6849937.140599155
1.5247491598129272	6950606.73177086
1.5288842916488647	7038437.34929601
1.5330137014389038	7237655.5640284335
1.5371372699737549	7315860.117879053
1.541254997253418	7422743.272498393
1.545366883277893	7521935.890716499
1.5494728088378906	7649585.28860111
1.5535727739334106	7785553.925866372
1.5576666593551636	7869291.346030228
1.561754584312439	7945854.209094771
1.5658363103866577	8093190.963467143
1.5699119567871094	8198604.441348272
1.5739814043045044	8309229.331019806
1.5780447721481323	8419280.451376515
1.582101821899414	8518926.503162606
1.5861525535583496	8593384.738463365
1.5901970863342285	8711128.896725547
1.5942351818084717	8821439.302260311
1.5982669591903687	8922176.2966466
1.6022924184799194	9027953.933148261
1.606311559677124	9125449.309899947
1.6103241443634033	9231533.790468385
1.6143304109573364	9328568.259630375
1.6183301210403442	9425081.58274232
1.6223233938217163	9456317.758560512
1.6263102293014526	9406938.06124281
1.6302905082702637	9259506.239038914
1.634264349937439	9557979.56014224
1.638231635093689	9843281.62819216
1.6421923637390137	9940594.645188995
1.646146535873413	9993516.9399022
1.6500942707061768	10135235.643989466
1.6540353298187256	10178783.17107186
1.6579699516296387	10239642.878439164
1.661897897720337	10392680.470283892
1.6658192873001099	9926434.559303451
1.6697341203689575	10122928.745814642
1.6736423969268799	10733342.40979223
1.677544116973877	10775387.030037481
1.6814392805099487	10799400.758627154
1.6853278875350952	10818507.102340821
1.6892099380493164	11076745.901055051
1.6930854320526123	10774835.338959381
1.696954369544983	11029194.90141333
1.7008168697357178	10784977.441996235
1.7046726942062378	10991142.047875255
1.708522081375122	11234957.851168398
1.712364912033081	11581178.262476567
1.7162011861801147	11695208.887375219
1.7200311422348022	11699432.413548816
1.723854422569275	11307460.080640173
1.7276713848114014	11346589.440216668
1.731481909751892	11460951.411631776
1.7352858781814575	11100769.749854872
1.7390835285186768	11505690.879656544
1.7428747415542603	11496988.17454992
1.7466596364974976	11951625.543556014
1.7504380941390991	12128168.930272272
1.7542102336883545	11395488.477227863
1.7579760551452637	11296127.53651662
1.7617355585098267	11468894.799847867
1.7654887437820435	11031574.279122151
1.7692357301712036	10896418.622481428
1.7729763984680176	10919270.688089665
1.776710867881775	9436280.036087118
1.7804391384124756	10126733.540345265
1.7841613292694092	8959201.359228503
1.7878772020339966	9148833.467126513
1.7915871143341064	8385546.50399971
1.7952908277511597	8670147.683643118
1.7989884614944458	8807228.18522527
1.8026801347732544	7073025.007537575
1.806365728378296	7390328.413449925
1.8100452423095703	6658075.954630502
1.8137187957763672	8572353.319829684
1.817386507987976	8694961.10152935
1.8210482597351074	8182272.763479056
1.8247040510177612	10109071.014251705
1.828354001045227	8749059.532577237
1.8319982290267944	8662419.889239717
1.8356364965438843	8483137.374429759
1.8392690420150757	8194461.051298623
1.8428958654403687	9236392.377356159
1.8465168476104736	9167129.86074484
1.8501322269439697	9045751.970439631
1.8537418842315674	9723314.97011416
1.8573459386825562	8156244.088126174
1.860944390296936	6528092.849416071
1.864537239074707	6406855.322227042
1.8681244850158691	6305156.015754479
1.871706247329712	6573536.308885148
1.8752825260162354	7918307.491455749
1.8788533210754395	10680691.822910335
1.8824186325073242	10593036.651414992
1.8859784603118896	9175787.713425804
1.8895330429077148	9818532.345409654
1.8930821418762207	10792490.636217542
1.8966259956359863	10753408.315623203
1.9001644849777222	8977399.411998862
1.9036977291107178	9231957.459269688
1.9072256088256836	11059735.533534091
1.9107483625411987	11038686.604118075
1.9142658710479736	9249481.048291719
1.9177782535552979	11136726.664554419
1.9212853908538818	9361896.765080422
1.9247875213623047	9480049.488119772
1.9282845258712769	10263937.884979773
1.9317764043807983	9792499.47598338
1.9352631568908691	10202170.147434425
1.9387450218200684	6674195.297981765
1.942221760749817	8277867.123165169
1.9456936120986938	8849263.027296636
1.9491604566574097	9167155.922024012
1.952622413635254	10856442.439628415
1.956079363822937	8724030.507108158
1.959531545639038	9175299.028886098
1.962978720664978	10069725.626129106
1.966421127319336	12206699.666889856
1.9698586463928223	11669967.032267826
1.9732913970947266	11645889.243182957
1.9767193794250488	12067751.149833595
1.9801424741744995	12626089.57508145
1.9835609197616577	13339155.564025186
1.9869745969772339	13370858.715404563
1.990383505821228	11924836.833244817
1.9937876462936401	13704679.316635102
1.9971871376037598	13835087.98546623
2.000581979751587	13108252.146267192
2.003972291946411	14099758.469074942
2.007357597351074	14865603.092724876
2.0107386112213135	15052993.941535704
2.0141148567199707	15640382.346366685
2.017486572265625	14971353.570942495
2.0208535194396973	15516583.120724738
2.0242159366607666	15824560.326085191
2.027573823928833	15301633.582949495
2.0309269428253174	14970856.253284847
2.034275770187378	15804820.802176073
2.0376198291778564	16026852.097272959
2.040959596633911	16069544.780113528
2.044294595718384	15999882.430157112
2.0476250648498535	15462534.42016306
2.0509510040283203	15335896.974891884
2.054272413253784	15856431.61009096
2.057589530944824	15906221.828599533
2.0609018802642822	15548470.231975488
2.0642096996307373	15832506.850286456
2.0675129890441895	16053757.17382145
2.0708119869232178	16203036.596939987
2.074106216430664	16309481.627112905
2.0773961544036865	16354169.504326474
2.080681324005127	16393995.922798155
2.0839622020721436	16338667.404352043
2.087238311767578	16257197.176293975
2.090510129928589	16332652.850502577
2.0937774181365967	16360132.512846861
2.0970399379730225	16370670.406763656
2.1002981662750244	16346176.710028876
2.1035518646240234	16410760.641973423
2.1068007946014404	16386562.751421766
2.1100454330444336	16163152.44800516
2.1132853031158447	15966677.941318024
2.116520881652832	16139527.754445298
2.1197516918182373	16356436.045594048
2.1229779720306396	16421613.621949596
2.12619948387146	16414287.218687072
2.1294167041778564	16401304.480007077
2.132629156112671	16411626.197965408
2.1358368396759033	16436814.917561943
2.139039993286133	16436372.292776205
2.1422386169433594	16411603.711213961
2.145432472229004	16395756.446388392
2.1486217975616455	16346576.524752516
2.151806354522705	16228628.408650972
2.1549863815307617	16005906.350984475
2.1581614017486572	16179159.271299604
2.16133189201355	16279636.239986964
2.1644976139068604	16303389.462518958
2.167658567428589	16324694.266208885
2.1708147525787354	16280229.196200995
2.173966407775879	16205367.572719349
2.1771130561828613	16264869.61753379
2.1802549362182617	16292130.514310379
2.183391809463501	16281977.241009088
2.1865241527557373	16247418.335750423
2.1896514892578125	16209325.086676292
2.1927738189697266	16195433.462607965
2.1958916187286377	16059734.343254868
2.1990041732788086	15683517.5275581
2.2021119594573975	15630341.86850034
2.2052149772644043	15866855.185827138
2.208312749862671	16051927.943107946
2.2114057540893555	16071780.39005541
2.214493751525879	15876695.092100142
2.217576742172241	15674330.807587022
2.2206547260284424	15701359.700857848
2.2237277030944824	15524943.140738165
2.2267956733703613	15285180.466845065
2.2298583984375	15393611.206757521
2.2329163551330566	15537969.481655974
2.235969066619873	15548595.61509893
2.2390167713165283	15092071.805200953
2.2420592308044434	14662357.466850478
2.2450966835021973	14861993.268258065
2.248128890991211	14790770.785951693
2.2511560916900635	14623973.71539028
2.254178285598755	13950015.123598538
2.257194995880127	14075953.620759558
2.260206699371338	14752537.56724327
2.2632133960723877	14686232.020366443
2.266214609146118	14758531.32781748
2.2692108154296875	14932258.44501397
2.2722020149230957	14976371.712869382
2.2751877307891846	14828113.453460438
2.278168201446533	14848559.307135569
2.2811436653137207	15180500.09496121
2.284113883972168	14123157.489977209
2.287078857421875	12660577.70366952
2.290038824081421	13326396.906691847
2.2929933071136475	13219646.464167288
2.295942783355713	13153426.712939845
2.298887014389038	13825093.86703056
2.301826238632202	14554389.137346987
2.304760217666626	14872571.071545059
2.3076889514923096	15056435.227451736
2.310612440109253	15143122.53351101
2.3135311603546143	14550678.459156785
2.3164443969726562	13207621.705420842
2.319352865219116	13234541.446158847
2.322256088256836	13460935.952712776
2.3251543045043945	13402207.185773294
2.328047275543213	13665133.31002991
2.330935478210449	13717272.865907239
2.3338186740875244	13904031.434101135
2.3366971015930176	14072096.738961348
2.3395702838897705	14083672.659890823
2.3424389362335205	14048080.766161116
2.3453025817871094	13372330.830624634
2.348161458969116	12589401.836433856
2.351015567779541	12977271.106291864
2.353865146636963	13181562.151037145
2.3567099571228027	12741914.457532912
2.3595502376556396	12795963.864309698
2.3623859882354736	13557796.549500925
2.3652172088623047	14530615.6320544
2.368043899536133	13848978.949698782
2.370866537094116	12483621.626677873
2.3736846446990967	11898102.791243106
2.3764986991882324	12135708.199509617
2.3793084621429443	12986116.015823
2.3821144104003906	13573061.116938373
2.384916305541992	13519239.29488355
2.387714147567749	13475414.065076828
2.3905084133148193	14499614.714164231
2.393299102783203	14967378.73284655
2.3960859775543213	14086995.174171982
2.398869514465332	12977365.632423384
2.4016497135162354	12805803.525787164
2.4044265747070312	13431089.2960827
2.407200336456299	14433359.138030205
2.409970998764038	14561202.148326445
2.4127390384674072	13672001.315563913
2.415503978729248	12358755.00756843
2.418266534805298	12541287.581253365
2.4210267066955566	13477846.122351065
2.4237842559814453	13796771.39594733
2.426539897918701	13330022.228132155
2.429293394088745	13097010.646621378
2.4320452213287354	13613287.216394875
2.4347951412200928	13520234.949459057
2.4375438690185547	13228809.226356013
2.440291166305542	13341160.652550444
2.443037271499634	13610548.303335555
2.445782423019409	14355776.817068113
2.4485268592834473	13951795.579556443
2.451270818710327	12388302.509653412
2.454014539718628	12527161.279145561
2.4567582607269287	13237206.821556468
2.4595019817352295	13500085.167619234
2.4622461795806885	14154331.23209886
2.4649908542633057	13583245.479156932
2.4677364826202393	11373086.384599593
2.4704833030700684	10448089.427648759
2.473231554031372	10672981.546105504
2.4759814739227295	11163151.977584409
2.4787333011627197	10973666.416476652
