#wavelength	surface flux
0.7	650.6354344165496
0.7001166666666666	653.0132783825543
0.7002333527777778	655.2741505891129
0.700350058336574	657.2421016278943
0.7004667833462966	659.3352731675408
0.7005835278101878	661.5222057677088
0.7007002917314895	663.5797116635722
0.7008170751134447	665.6241746575587
0.7009338779592968	667.71532166361
0.7010507002722901	669.7528950513325
0.7011675420556689	671.7204723894165
0.701284403312678	673.7855032992659
0.7014012840465635	675.885742103567
0.7015181842605713	677.7618679556363
0.701635103957948	679.5624954168981
0.701752043141941	681.1867029329379
0.701869001815798	683.2592661751581
0.7019859799827672	685.6436497115611
0.7021029776460976	687.6706474264266
0.7022199948090387	689.6629856111862
0.7023370314748403	691.7222492696678
0.7024540876467528	694.0284242961735
0.702571163328027	696.6220847485134
0.7026882585219152	698.8992316636189
0.7028053732316688	701.062974713714
0.7029225074605406	703.0147048764895
0.7030396612117841	704.8267997079978
0.7031568344886527	706.3656872246058
0.7032740272944008	708.6442447535217
0.7033912396322832	711.3544078885308
0.7035084715055552	713.7930697181342
0.7036257229174727	716.1189743774269
0.7037429938712924	718.1207129108361
0.7038602843702709	720.2822761185028
0.7039775944176659	722.5950427103465
0.7040949240167356	724.8228171415889
0.7042122731707383	727.0310554707007
0.7043296418829335	729.2417874893761
0.7044470301565806	731.4043609506494
0.70456443799494	733.4946852954619
0.7046818654012724	735.7367376315707
0.7047993123788394	738.0449333013567
0.7049167789309024	740.0053470356352
0.7050342650607243	742.1510320908624
0.7051517707715678	744.7513135139036
0.7052692960666963	747.2064713298513
0.705386840949374	749.560715543067
0.7055044054228656	751.7195293876903
0.7056219894904361	753.9006801521883
0.7057395931553511	756.285082721932
0.705857216420877	758.6603856997325
0.7059748592902804	761.0260563396022
0.7060925217668288	763.3318717738094
0.70621020385379	765.6214771861611
0.7063279055544321	767.909144915757
0.7064456268720246	770.2016837810024
0.7065633678098366	772.5017002860164
0.7066811283711383	774.8002938394009
0.7067989085592001	777.0984547560794
0.7069167083772933	779.273254807419
0.7070345278286895	781.3078419145771
0.707152366916661	783.0063934968916
0.7072702256444803	784.4989952382701
0.7073881040154211	785.8519374865571
0.7075060020327569	789.3907772534182
0.7076239196997625	792.9824433240856
0.7077418570197124	795.8157919027819
0.7078598139958823	798.4308164980416
0.7079777906315483	800.8335577556232
0.7080957869299869	803.2085528617554
0.7082138028944751	805.6086772735625
0.7083318385282908	808.24526204896
0.7084498938347124	810.7939511255792
0.708567968817018	813.222367587343
0.7086860634784875	815.212442151913
0.7088041778224007	817.0068722540666
0.7089223118520377	817.9108719998285
0.7090404655706796	819.9624777885834
0.709158638981608	824.2177440078988
0.709276832088105	827.1004146981074
0.7093950448934531	829.2441514702844
0.7095132774009353	828.5969827426306
0.7096315296138355	829.543051379163
0.7097498015354378	835.208469682996
0.7098680931690269	839.0125241423616
0.7099864045178884	841.4440853445798
0.7101047355853081	844.3177935853613
0.7102230863745722	847.2216447903841
0.7103414568889679	850.0117122757114
0.7104598471317828	852.7661572540374
0.7105782571063047	855.4857542226658
0.7106966868158224	857.7060461752267
0.710815136263625	859.9169879283803
0.7109336054530023	862.8292883448944
0.7110520943872445	865.6863445724974
0.7111706030696424	868.4728375303614
0.7112891315034873	871.2208462910154
0.7114076796920712	873.9532055298179
0.7115262476386865	876.6389557729115
0.7116448353466263	879.2288660330602
0.711763442819184	881.6607922626171
0.711882070059654	884.3356069628074
0.7120007170713306	887.1185390023056
0.7121193838575091	889.8430737772312
0.7122380704214853	892.5565066098966
0.7123567767665555	895.2459170917979
0.7124755028960166	897.617712102071
0.7125942488131658	899.8077897527774
0.7127130145213015	902.0686583682599
0.7128318000237216	904.5410373364936
0.7129506053237256	907.5816506441852
0.7130694304246129	910.4139371887953
0.7131882753296837	913.098101213649
0.7133071400422386	915.6779077993258
0.7134260245655789	917.6305516977503
0.7135449289030065	917.3847306860818
0.7136638530578235	920.3365649171475
0.7137827970333332	926.0472553149881
0.7139017608328388	929.3316420534022
0.7140207444596443	932.2149158660322
0.7141397479170543	935.1400797870089
0.7142587712083737	937.6500024270861
0.7143778143369084	939.7340683103486
0.7144968773059646	943.3303287059169
0.7146159601188489	947.1229385325988
0.7147350627788687	949.9433866147178
0.7148541852893318	952.8111681472257
0.7149733276535467	955.7355994313729
0.7150924898748222	958.1066696607529
0.715211671956468	960.4402745861711
0.7153308739017941	963.8971415356693
0.715450095714111	967.2493422506027
0.71556933739673	970.4568555571154
0.7156885989529628	973.3520439868458
0.7158078803861218	976.1302958739939
0.7159271816995193	978.7799846579702
0.7160465028964692	980.7297532835892
0.7161658439802853	981.582976400745
0.7162852049542819	981.6203378788832
0.7164045858217744	981.463821695905
0.716523986586078	984.6442112116546
0.7166434072505089	981.8978857625864
0.716762847818384	968.7697673025772
0.7168823082930204	975.9400231023749
0.7170017886777359	992.1553111991938
0.7171212889758488	1000.4153799465262
0.7172408091906781	1005.4946757117127
0.7173603493255433	1004.4362007284138
0.7174799093837642	1005.3408768230862
0.7175994893686615	1007.2200602751744
0.7177190892835562	1012.7181692592228
0.7178387091317702	1018.8175908878135
0.7179583489166254	1026.1407578785747
0.7180780086414448	1029.5521928304768
0.7181976883095517	1030.8746089233211
0.7183173879242699	1036.2303468908733
0.718437107488924	1040.8946207404165
0.7185568470068389	1043.841150047009
0.7186766064813399	1044.6668549359345
0.7187963859157535	1044.2975456905729
0.7189161853134061	1050.6690544004596
0.719036004677625	1056.4174001730603
0.7191558440117378	1060.2250585254114
0.7192757033190732	1063.684733566996
0.7193955826029597	1066.9416105924847
0.7195154818667269	1069.5924218934094
0.7196354011137046	1072.3762796150934
0.7197553403472235	1075.5326564903191
0.7198752995706147	1079.0952671487298
0.7199952787872098	1082.8991341127958
0.720115278000341	1085.7589911872521
0.7202352972133411	1088.5608945013848
0.7203553364295432	1091.3158855341076
0.7204753956522815	1094.024670289348
0.7205954748848902	1096.7062577969214
0.7207155741307044	1100.3625802002357
0.7208356933930594	1104.1678487128693
0.7209558326752915	1108.2344133130132
0.7210759919807375	1111.2177222759994
0.7211961713127342	1113.5714301631244
0.7213163706746197	1114.4093631814883
0.7214365900697322	1116.2489429310199
0.7215568295014103	1120.4922792175985
0.721677088972994	1125.1209167065797
0.7217973684878227	1129.9657375208826
0.7219176680492374	1131.2323697399245
0.7220379876605789	1133.712451710456
0.722158327325189	1138.9964103575949
0.7222786870464099	1143.9042928431354
0.7223990668275843	1148.6133236317473
0.7225194666720555	1152.1792373517937
0.7226398865831676	1155.5285613036967
0.7227603265642646	1158.4579097927985
0.722880786618692	1160.0895977208631
0.7230012667497951	1161.119375680543
0.7231217669609201	1165.4842970055456
0.7232422872554135	1169.4217357481632
0.7233628276366229	1172.5674936985731
0.7234833881078956	1176.621875312783
0.7236039686725803	1180.909298370157
0.7237245693340255	1180.1277109064736
0.7238451900955812	1181.8070689384504
0.7239658309605971	1187.5953842476545
0.7240864919324239	1193.3429283916746
0.7242071730144127	1198.9403252496334
0.724327874209915	1202.4081170851648
0.7244485955222832	1206.2588870652262
0.7245693369548704	1210.677954265685
0.7246900985110294	1214.4277489150231
0.7248108801941148	1217.9997492315592
0.7249316820074803	1222.0738606313034
0.7250525039544815	1225.9038719089654
0.7251733460384739	1229.4159625332456
0.7252942082628137	1232.5582534521939
0.7254150906308574	1235.5458306202238
0.7255359931459625	1238.1803218523937
0.7256569158114868	1241.1455073357506
0.7257778586307888	1244.4826500067486
0.7258988216072273	1248.6660409439028
0.7260198047441617	1253.0317088230993
0.7261408080449525	1257.3575720329234
0.72626183151296	1260.9950405320346
0.7263828751515454	1263.9733076596974
0.7265039389640706	1268.4026241324673
0.726625022953898	1272.6540571472622
0.7267461271243904	1275.302597472563
0.7268672514789111	1278.069655192912
0.7269883960208241	1280.9317765045232
0.7271095607534942	1286.1704565326193
0.7272307456802866	1291.2403284695147
0.7273519508045666	1295.071330446105
0.7274731761297006	1298.337444216242
0.7275944216590555	1301.2327020990228
0.7277156873959987	1304.229422035999
0.7278369733438982	1305.835106836337
0.727958279506122	1304.2562208471147
0.7280796058860397	1310.1481185721013
0.7282009524870207	1319.9242733148326
0.7283223193124353	1325.547369609904
0.7284437063656539	1330.5833554198125
0.7285651136500483	1334.5748508975719
0.7286865411689898	1338.2497468731112
0.7288079889258514	1341.6655807491684
0.7289294569240056	1343.2104437349512
0.7290509451668262	1345.878892987084
0.7291724536576875	1350.1035042402711
0.7292939823999636	1355.2487530157425
0.7294155313970303	1360.5820168429805
0.7295371006522632	1365.352786483053
0.7296586901690385	1369.4713372159279
0.7297802999507332	1372.890610423235
0.7299019300007252	1374.1904996176809
0.7300235803223919	1375.411439480729
0.7301452509191123	1378.0078801147554
0.7302669417942654	1380.6550447504471
0.7303886529512311	1383.3437886954907
0.7305103843933897	1377.4462886523536
0.7306321361241218	1376.8446950368136
0.7307539081468093	1393.478774367387
0.7308757004648336	1403.2042944643395
0.7309975130815778	1408.7226215206013
0.7311193460004248	1414.0495434267157
0.7312411992247582	1419.3551240040156
0.7313630727579622	1424.625912728382
0.7314849666034219	1428.6979821404218
0.7316068807645224	1432.1298860183826
0.7317288152446498	1433.5658622998162
0.7318507700471907	1436.2437186916065
0.7319727451755319	1440.6632178481982
0.732094740633061	1447.3850787537574
0.7322167564231665	1454.1435125907813
0.7323387925492371	1456.9651187321638
0.7324608490146619	1461.387357218753
0.732582925822831	1467.4201889729547
0.7327050229771347	1472.4302004035742
0.7328271404809642	1477.0957038741278
0.7329492783377112	1481.135945902861
0.7330714365507675	1485.4702154698416
0.7331936151235259	1490.0135306139045
0.7333158140593796	1493.517798487831
0.7334380333617229	1497.2344258891776
0.7335602730339499	1501.5474403269136
0.7336825330794556	1506.3047252513659
0.7338048135016354	1511.2067891705128
0.7339271143038857	1514.412083547701
0.734049435489603	1515.2595166813767
0.7341717770621846	1512.6293881926085
0.7342941390250283	1518.8786614574622
0.7344165213815324	1527.3563522781462
0.734538924135096	1533.0461259086483
0.7346613472891185	1538.4181944139866
0.734783790847	1543.473861815782
0.7349062548121412	1544.889383956584
0.7350287391879431	1542.8086189722642
0.7351512439778078	1531.1325805804674
0.7352737691851374	1538.9713851243123
0.735396314813335	1559.7128124033886
0.7355188808658037	1566.5883151828766
0.7356414673459482	1573.1269603574892
0.7357640742571725	1579.8467069414232
0.7358867016028818	1584.665756334369
0.7360093493864824	1588.6154746623101
0.7361320176113801	1591.572417916273
0.736254706280982	1593.9708223711693
0.7363774153986956	1595.6748134891368
0.7365001449679286	1591.4123622616364
0.7366228949920899	1587.8472346237547
0.7367456654745885	1593.1972010278341
0.7368684564188344	1605.594539516433
0.7369912678282374	1623.5877364150738
0.7371140997062088	1631.7444266940972
0.7372369520561599	1638.1201313584056
0.7373598248815024	1642.1039977480002
0.7374827181856494	1646.4336722595185
0.7376056319720137	1650.9326896671123
0.7377285662440091	1655.452481589666
0.7378515210050496	1658.7505810975504
0.7379744962585505	1660.3540296089932
0.738097492007927	1665.6897262714126
0.7382205082565949	1671.5559025070907
0.738343545007971	1675.1891485324336
0.7384666022654723	1680.4721118675402
0.7385896800325165	1687.154047906526
0.7387127783125219	1692.5208017750717
0.7388358971089073	1697.6239132779729
0.7389590364250921	1702.3777676358363
0.7390821962644963	1707.5847018984687
0.7392053766305403	1713.0207168556003
0.7393285775266454	1718.5183814621328
0.7394517989562333	1723.8514241364032
0.7395750409227259	1728.9570669025297
0.7396983034295463	1734.257701702039
0.739821586480118	1739.462188585472
0.7399448900778645	1743.9780414331958
0.7400682142262109	1748.5497069574717
0.740191558928582	1753.1666245580807
0.7403149241884034	1756.6668923033933
0.7404383100091014	1760.1950553038967
0.7405617163941028	1763.966791248794
0.7406851433468352	1768.9097204109687
0.7408085908707264	1773.7841194952314
0.7409320589692048	1770.6927749893123
0.7410555476456997	1774.902566539043
0.7411790569036406	1788.0452905738298
0.7413025867464579	1793.8945098515358
0.7414261371775823	1798.6646747878945
0.7415497082004452	1804.9626026875883
0.7416732998184786	1810.549520656062
0.741796912035115	1815.6487365562318
0.7419205448537874	1817.599726196406
0.7420441982779297	1821.3526130581613
0.742167872310976	1828.4904141532413
0.7422915669563612	1836.4783078840312
0.7424152822175206	1844.37342468086
0.7425390180978901	1849.4879455774178
0.7426627746009065	1853.3431371465317
0.7427865517300065	1855.974573371528
0.7429103494886282	1863.826863070818
0.7430341678802096	1871.7084582204916
0.7431580069081896	1877.994975641686
0.7432818665760077	1883.5749573313667
0.7434057468871037	1888.7678527592195
0.7435296478449182	1893.447543940963
0.7436535694528923	1898.5147590333272
0.7437775117144678	1904.0908097729027
0.7439014746330868	1907.1420901486426
0.7440254582121922	1910.5454864912722
0.7441494624552276	1917.4773593755913
0.7442734873656368	1921.6456214649436
0.7443975329468645	1923.9129210596634
0.7445215992023557	1928.9204561703882
0.7446456861355559	1934.8232170698464
0.7447697937499119	1942.1666354418353
0.7448939220488703	1948.7446870651765
0.7450180710358784	1955.134137555976
0.7451422407143843	1961.858636428988
0.7452664310878367	1968.3431135052997
0.7453906421596846	1974.6189721787516
0.7455148739333779	1980.6278750416434
0.7456391264123667	1986.585901659077
0.7457633996001021	1992.4795485995971
0.7458876935000356	1998.1682488820018
0.7460120081156189	2003.7930200387675
0.7461363434503048	2009.615960844153
0.7462606995075466	2015.1126050562941
0.7463850762907978	2020.2668979208404
0.7465094738035127	2025.1749211126073
0.7466338920491467	2030.687154918433
0.746758331031155	2037.9022613895797
0.7468827907529935	2043.9455394362647
0.7470072712181189	2049.486329612369
0.7471317724299886	2056.430606437966
0.7472562943920602	2062.7153486737307
0.7473808371077922	2068.2002607152754
0.7475054005806435	2071.589611148751
0.7476299848140736	2075.691733174128
0.7477545898115426	2083.244790475789
0.7478792155765113	2090.0603129864735
0.7480038621124406	2096.3441128100344
0.7481285294227926	2099.210875991364
0.7482532175110298	2104.7795696128746
0.7483779263806148	2113.9778195074546
0.7485026560350116	2120.354884772992
0.7486274064776842	2126.0961151048014
0.748752177712097	2131.7322914592314
0.7488769697417158	2138.8245356595835
0.749001782570006	2146.8006789386336
0.7491266162004343	2153.292375461316
0.7492514706364677	2159.5279667729706
0.7493763458815739	2165.3978539425257
0.7495012419392209	2171.7399878750966
0.7496261588128773	2178.0565543840107
0.7497510965060128	2183.857812711145
0.7498760550220971	2190.122650048112
0.7500010343646007	2196.6826870862665
0.7501260345369949	2202.8418124109444
0.750251055542751	2208.95590947763
0.7503760973853414	2215.004293711159
0.7505011600682389	2220.9620303037477
0.750626243594917	2226.82068913678
0.7507513479688495	2232.3849626853303
0.7508764731935109	2238.6545362254733
0.7510016192723765	2245.370310044952
0.7511267862089218	2251.8553167634805
0.7512519740066232	2258.2040125207013
0.7513771826689577	2264.360195580699
0.7515024121994025	2271.097367289813
0.7516276626014359	2277.8084574039367
0.751752933878536	2283.968683122103
0.7518782260341824	2289.6484009988494
0.7520035390718548	2295.0981218868997
0.7521288729950334	2302.5732936148856
0.7522542278071992	2309.7291626862875
0.7523796035118337	2316.465712174759
0.7525050001124189	2322.953744419601
0.7526304176124378	2329.0700631100253
0.7527558560153731	2334.1744024761542
0.752881315324709	2341.431880771329
0.7530067955439299	2349.78200035557
0.7531322966765205	2356.785252678209
0.7532578187259665	2363.6673296880954
0.7533833616957542	2370.407271829946
0.75350892558937	2377.0516280591296
0.7536345104103016	2383.71456396647
0.7537601161620366	2390.463725756794
0.7538857428480638	2396.9730436533296
0.7540113904718717	2403.3681208565654
0.7541370590369503	2409.7319716295983
0.7542627485467898	2415.916860280528
0.7543884590048808	2421.922174852915
0.7545141904147151	2429.897520266267
0.7546399427797842	2437.6621513200466
0.7547657161035808	2444.5447951875276
0.754891510389598	2451.471584935358
0.7550173256413296	2458.3927888862754
0.7551431618622698	2465.172026636703
0.7552690190559135	2471.8582873064893
0.7553948972257561	2478.4681510716223
0.7555207963752938	2485.596514628934
0.755646716508023	2492.8546901293134
0.755772657627441	2500.295114063661
0.7558986197370455	2507.3607814053503
0.756024602840335	2514.2797630355913
0.7561506069408084	2521.020203730347
0.7562766320419653	2528.0257567756353
0.7564026781473054	2535.2012876534873
0.75652874526033	2542.314813937518
0.7566548333845401	2549.487270879902
0.7567809425234375	2556.7359741478945
0.7569070726805247	2563.7064943991554
0.7570332238593047	2570.715891096072
0.7571593960632813	2577.9710971417035
0.7572855892959586	2584.89216763645
0.7574118035608413	2591.628588666569
0.7575380388614347	2598.107410673128
0.7576642952012449	2605.2533678191985
0.7577905725837782	2613.0424989430817
0.7579168710125422	2620.33115069421
0.7580431904910444	2627.7316538563828
0.7581695310227928	2635.424299173572
0.7582958926112967	2642.750555311804
0.7584222752600652	2650.021624965671
0.7585486789726085	2657.5764121388543
0.7586751037524372	2665.0579104831254
0.7588015496030628	2672.4886958927
0.7589280165279966	2679.839291197496
0.7590545045307512	2687.1375409040966
0.7591810136148396	2694.366245024302
0.7593075437837755	2701.939739358176
0.7594340950410726	2709.466807906624
0.7595606673902461	2716.7012490612115
0.7596872608348112	2723.9166656623347
0.7598138753782836	2731.1650652388457
0.75994051102418	2738.747051367151
0.7600671677760173	2746.4956957702443
0.7601938456373134	2754.3921422836875
0.7603205446115863	2762.0558105525647
0.7604472647023548	2769.5924420576007
0.7605740059131385	2776.934686725945
0.7607007682474575	2784.302856449455
0.7608275517088319	2791.734438197116
0.7609543563007835	2799.3683040032442
0.7610811820268336	2806.9194274398055
0.7612080288905045	2814.433135393128
0.7613348968953197	2822.074945422585
0.7614617860448022	2829.50923546698
0.7615886963424764	2836.72472492998
0.7617156277918667	2844.1827516835515
0.7618425803964988	2851.773178596088
0.7619695541598982	2859.5780352538636
0.7620965490855914	2867.282729889251
0.7622235651771058	2874.982988137686
0.7623506024379685	2882.799918713834
0.7624776608717082	2890.3478387652676
0.7626047404818536	2897.7303290504265
0.7627318412719337	2905.2502952797267
0.762858963245479	2912.6767902235233
0.7629861064060198	2919.9950074861067
0.7631132707570876	2927.226141205493
0.7632404563022137	2934.38003953421
0.7633676630449308	2941.390170373201
0.7634948909887717	2948.5527632220146
0.7636221401372697	2955.7197851832934
0.7637494104939593	2962.6585143081666
0.7638767020623748	2969.3519402854718
0.7640040148460518	2975.868771177036
0.7641313488485262	2981.9219912710582
0.7642587040733344	2987.699637845068
0.7643860805240132	2993.1547457172433
0.7645134782041005	2998.5452928632444
0.7646408971171346	3003.4545515051213
0.764768337266654	3007.3613407189346
0.7648957986561985	3009.955033333966
0.7650232812893079	3012.0271125903673
0.7651507851695227	3013.70666995284
