#wavelength	surface flux
0.676892	8034.014345829647
0.678297	8283.75549821004
0.679702	8570.008404352306
0.681109	8851.909675114299
0.682517	9127.337654106906
0.683926	9418.990458172673
0.685337	9724.253467705965
0.686749	10015.693579192093
0.688164	10302.445493123569
0.689581	10561.785216827746
0.691	10855.908002808083
0.692422	11296.024373096361
0.693847	11587.859828816296
0.695274	12098.912934176753
0.696705	12493.036041882573
0.698139	12818.872316084302
0.699576	13227.586779213001
0.701017	13730.30899863546
0.702461	14182.596813908385
0.70391	14659.73280812338
0.705362	15126.915326122496
0.706819	15601.143262082258
0.70828	16081.876015757452
0.709745	16564.144761677984
0.711216	17103.525626964405
0.71269	17628.68421544694
0.71417	18169.48080385717
0.715655	18706.518032951088
0.717145	19236.127348561215
0.71864	19895.48598300125
0.72014	20507.98096279206
0.721647	21140.5348981885
0.723158	21800.280399114046
0.724676	22475.85593115145
0.726199	23160.118334126197
0.727728	23866.858311718875
0.729264	24583.944546726936
0.730805	25311.944114458183
0.732353	26103.1041216866
0.733907	26783.27486658691
0.735468	27505.6920346996
0.737035	28399.822651455186
0.738609	29185.019510998653
0.74019	30035.140142778342
0.741777	30845.048072472135
0.743372	31812.35503246997
0.744973	32627.301040202172
0.746582	33640.10693745806
0.748197	34646.55174897806
0.74982	35679.595302097936
0.751451	36577.096771784505
0.753088	37527.63213726285
0.754734	38371.43472960313
0.756386	39058.48822601952
0.758047	39399.93920752187
0.759715	39146.901272899355
0.76139	37551.6751235065
0.763074	32760.54497301167
0.764765	21822.39113262635
0.766464	11004.943650926847
0.768172	14972.720219381643
0.769887	12950.002669350244
0.77161	25120.246796869655
0.773341	41196.51585312253
0.775081	49223.370363518334
0.776829	53832.704684887256
0.778585	55606.06451620176
0.780349	49606.42838349186
0.782121	61624.69663549897
0.783902	64997.286749065795
0.785691	67394.808583609
0.787489	69702.82471666901
0.789295	72050.14823185284
0.79111	74382.35958674835
0.792933	76108.94147576818
0.794764	69152.39290304632
0.796604	80045.16072027017
0.798453	84178.3758694477
0.80031	86820.33595516808
0.802176	89549.56067165974
0.804051	92396.68544099071
0.805934	95221.21772669717
0.807826	98212.44801591414
0.809727	101108.55778384073
0.811636	103997.04835556237
0.813554	107143.98902463175
0.81548	110589.32362168153
0.817416	113961.75431841581
0.81936	117485.36235847881
0.821313	121221.5184544227
0.823274	124389.20386839776
0.825244	128560.34388049853
0.827223	132278.91782599827
0.829211	136459.26735043517
0.831208	140481.6778216589
0.833213	144886.15827443355
0.835227	149207.58090852792
0.837249	153607.15774860058
0.83928	158165.6700145422
0.841321	163013.41559166304
0.843369	167917.61835078883
0.845427	172798.422026812
0.847493	177934.17456121102
0.849567	183247.8981888844
0.851651	188755.4177982872
0.853742	193987.86552795745
0.855843	199915.25630745423
0.857952	205744.02183865267
0.86007	211459.9109773199
0.862196	216496.0444106118
0.864331	222631.07600373376
0.866474	230024.34309383392
0.868626	236862.89106217085
0.870786	243752.04916901788
0.872955	251156.87954169582
0.875132	258646.78002685553
0.877317	266276.87376094353
0.879511	274169.63944388635
0.881713	282061.0855828032
0.883923	290280.29136888485
0.886142	298793.17430388124
0.888369	307359.4476750405
0.890604	315283.39528683265
0.892847	323478.053930452
0.895099	333541.30140001455
0.897358	339096.7439101473
0.899626	350204.8251771761
0.901901	362929.4494977974
0.904185	373598.97586770257
0.906476	384159.90807902603
0.908776	394662.89668745594
0.911083	405558.8000060411
0.913398	417209.14174973214
0.915721	427890.63426735316
0.918051	439453.0615032735
0.92039	450788.95286668726
0.922736	465029.6931131783
0.925089	473601.83353756636
0.927451	479937.2794729647
0.929819	482676.6919368062
0.932195	484215.2499683331
0.934579	485401.15606152144
0.93697	513186.76483413274
0.939369	552126.7562210765
0.941774	571597.7475552352
0.944187	586098.6425554766
0.946607	582018.5200070322
0.949035	597023.4442513632
0.951469	623118.2534928359
0.953911	643511.8413254465
0.956359	636556.8454680669
0.958814	676091.1921317022
0.961277	689382.613803904
0.963746	717270.5005649957
0.966222	734823.567506696
0.968705	762813.4838739104
0.971194	776308.3409679873
0.97369	792967.2404721787
0.976193	821631.9292772821
0.978702	845483.4736687967
0.981217	866153.5659470318
0.983739	889897.9610014672
0.986268	912400.0709033295
0.988802	936212.5850126746
0.991343	962317.3058854683
0.99389	986004.2754574462
0.996444	1013130.5397642634
0.999003	1037451.3651479528
1.00157	1060530.4247453634
1.00414	1087173.202302424
1.00672	1113429.2017166973
1.0093	1139990.749932803
1.01189	1168422.9363465537
1.01448	1195992.564893867
1.01708	1224420.6560583727
1.01969	1254114.6055882005
1.0223	1283182.1205274605
1.02492	1313155.0052607472
1.02754	1344039.2500997751
1.03017	1375227.7406472408
1.0328	1406625.209777273
1.03544	1438979.544161202
1.03808	1472094.0845717918
1.04073	1505318.0571551428
1.04339	1539166.4207057306
1.04604	1573749.6376105028
1.04871	1609089.1313264603
1.05138	1644375.4490726122
1.05405	1681374.505835616
1.05673	1718510.0308960043
1.05941	1754474.1369610364
1.0621	1796759.8751000103
1.06479	1839845.5727526983
1.06749	1877713.8752870546
1.07019	1919687.3188652263
1.07289	1961290.2091294837
1.0756	2003368.5675525884
1.07832	2043987.3846529373
1.08104	2088415.8402645697
1.08376	2131690.213080674
1.08649	2173198.050514835
1.08922	2217232.4034264116
1.09195	2257134.6060857186
1.09469	2299154.2432970507
1.09743	2312841.995963398
1.10018	2336773.4415659234
1.10293	2367726.9711066866
1.10568	2428951.8276447947
1.10844	2467613.0876291133
1.1112	2467242.713770685
1.11396	2354034.6698015295
1.11673	2404214.0055058408
1.1195	2529753.3477783715
1.12228	2357371.940862998
1.12505	2336452.87673851
1.12783	2680711.6135086766
1.13062	2878234.8302287813
1.13341	2721683.807645576
1.1362	2821786.936243541
1.13899	3066660.602780198
1.14178	3136086.1012127665
1.14458	3053091.001233274
1.14738	2929198.6526777195
1.15019	3069801.599686322
1.153	3353919.298443845
1.1558	3323380.153204345
1.15862	3514782.8142982773
1.16143	3549721.837086543
1.16425	3436209.441673741
1.16707	3697270.962020141
1.16989	3677128.524263031
1.17271	3777332.7329839002
1.17554	3885389.385075811
1.17837	3977342.988980371
1.1812	4078010.8699050443
1.18403	4148212.149353229
1.18686	4214602.236064293
1.1897	4283181.528084798
1.19253	4389219.396770506
1.19537	4470182.855209524
1.19822	4518843.665316049
1.20106	4626908.865880219
1.2039	4707001.608858371
1.20675	4795370.119241384
1.2096	4871037.480020974
1.21245	4935682.610817806
1.2153	5029630.842792596
1.21815	5121641.348421649
1.221	5201406.13601537
1.22385	5284446.055694087
1.22671	5372247.4278792
1.22957	5459425.196959835
1.23242	5543973.3948831335
1.23528	5636736.374739371
1.23814	5726785.39531252
1.241	5813132.002453813
1.24387	5901839.121441618
1.24673	5991649.655970088
1.24959	6081326.652249772
1.25245	6174952.68779288
1.25532	6268568.782696198
1.25818	6361900.719336853
1.26105	6453669.34173833
1.26392	6548935.803707625
1.26678	6641464.401957802
1.26965	6726795.6263912
1.27252	6814978.343452012
1.27538	6927188.386435219
1.27825	7026606.380888914
1.28112	7112978.495554522
1.28399	7176177.037905057
1.28686	7297801.277575665
1.28973	7401016.62795322
1.2926	7470152.930266889
1.29546	7443050.483071252
1.29833	7591167.187116742
1.3012	7750653.477993045
1.30407	7877599.7413786175
1.30694	8009806.096401502
1.30981	8105173.066083023
1.31267	8169983.238347831
1.31554	8259273.566559604
1.31841	8265694.850869784
1.32128	8492260.955128895
1.32414	8561328.893784504
1.32701	8658265.67338463
1.32987	8635961.98967248
1.33274	8350843.1426377315
1.3356	8108773.136625917
1.33847	6557338.149402284
1.34133	5845258.519304178
1.34419	5550171.1381531535
1.34705	5627776.963155578
1.34991	5632360.2257422125
1.35277	6894470.429095726
1.35563	5446448.210420123
1.35849	4920853.431414703
1.36135	5599030.534581208
1.3642	6378488.700136536
1.36706	6900148.9156740885
1.36991	7058353.332762891
1.37277	7636093.522862495
1.37562	7092810.700134649
1.37847	8780491.674254144
1.38132	7700016.423798371
1.38417	7252730.168435659
1.38701	6274374.49075689
1.38986	7517260.6569211995
1.39271	7027753.726636206
1.39555	6259871.833644325
1.39839	7579902.081976874
1.40123	7505310.41776661
1.40407	8604654.611684248
1.40691	8518284.872953743
1.40974	8807429.478311012
1.41258	8823094.060692266
1.41541	8164657.424377502
1.41824	6715997.058658991
1.42107	7271758.783649263
1.4239	6760163.506532666
1.42673	8743575.03311579
1.42955	9369168.362095136
1.43237	8414822.009324457
1.43519	9110253.190101705
1.43801	9750515.240100684
1.44083	9094942.084624879
1.44365	10173296.3202837
1.44646	10439909.107249886
1.44927	10555349.857322844
1.45208	10684770.603907201
1.45489	9699098.86597007
1.45769	12254827.660746431
1.4605	12958912.673395006
1.4633	11635996.90769913
1.4661	12435019.650999345
1.4689	12260439.862359626
1.47169	13256148.53211684
1.47449	12869029.804344509
1.47728	13494116.827145237
1.48007	13705607.452862166
1.48286	13384003.081496323
1.48564	13905062.823415097
1.48842	14349393.369778765
1.4912	14724803.850813227
1.49398	14866262.856951015
1.49676	14791400.758503206
1.49953	15262404.616361141
1.5023	15202663.722450938
1.50507	15819757.107221793
1.50784	15882350.75034276
1.51061	15993531.829291556
1.51337	16347636.348724559
1.51613	16473217.048158096
1.51888	16685491.078037137
1.52164	16945498.23983866
1.52439	17093864.061838288
1.52714	16660074.233858347
1.52989	16916062.887177456
1.53263	17624178.52338245
1.53538	18055444.962607387
1.53812	18230854.011194307
1.54086	18346368.781527665
1.54359	18386933.263814818
1.54632	18704825.05662669
1.54905	18930782.216943946
1.55178	19091389.999901447
1.5545	19232014.42532473
1.55723	19349540.75692061
1.55995	19559654.131540623
1.56266	19720744.18209781
1.56538	19888735.283764567
1.56809	20172614.677501924
1.5708	20275156.75370828
1.57351	20441862.22733237
1.57621	20667813.230593827
1.57891	20784778.959657893
1.58161	20963113.25012871
1.5843	21066278.59974281
1.587	21111460.314742044
1.58969	21322477.810264662
1.59238	21486946.429898027
1.59506	21670341.435932003
1.59774	21851564.506551728
1.60042	22029406.34010193
1.6031	22177691.127701946
1.60577	22292409.75976402
1.60844	22426736.49376896
1.61111	22602966.82173278
1.61378	22755798.021716855
1.61644	22908647.848514155
1.6191	23043831.072595958
1.62176	23071572.337406043
1.62441	22934164.43990789
1.62707	22922723.24656848
1.62971	22857037.14470164
1.63236	22932871.395245325
1.635	23534106.448916037
1.63764	23967438.430663645
1.64028	24070402.504157197
1.64292	24215984.079138156
1.64555	24276889.000970773
1.64818	24423998.473227657
1.65081	24612617.420606837
1.65343	24678094.899911817
1.65605	24339817.472395703
1.65867	24694168.696532775
1.66128	25021747.961087823
1.6639	24978185.56018935
1.66651	23288096.857857265
1.66911	23609506.400954474
1.67172	25426158.208329264
1.67432	25888665.576829292
1.67692	25972019.646487206
1.67951	26097795.423346624
1.68211	25836877.502618246
1.6847	25812193.577236727
1.68728	26493456.74094961
1.68987	26638466.853911288
1.69245	25868238.512608923
1.69503	25606808.993899535
1.6976	26400150.11297806
1.70018	25650327.39718005
1.70275	25727627.441221256
1.70531	26094056.067966532
1.70788	26564940.973824725
1.71044	27422454.788613226
1.713	27815836.201005183
1.71556	27970341.71846582
1.71811	28010590.84512353
1.72066	27724540.09644274
1.72321	27037034.400664892
1.72575	26903078.78529932
1.7283	27036958.05877936
1.73084	27144456.7004558
1.73337	26865665.15618738
1.73591	26240262.889652297
1.73844	27129756.95593332
1.74097	26847523.461511552
1.74349	27046951.975290686
1.74602	27802501.49651473
1.74854	28676182.68834352
1.75105	28431123.010744225
1.75357	26635581.619430136
1.75608	26107580.629203144
1.75859	26743098.642537266
1.7611	26428313.78037632
1.7636	25865118.71989207
1.7661	23911534.84761766
1.7686	23494882.454813432
1.7711	25958652.957422327
1.77359	24259610.449662216
1.77608	21431232.155780613
1.77857	22880644.838745706
1.78105	23240887.176754136
1.78354	20982394.850803077
1.78602	20038043.505551092
1.78849	20233088.640288655
1.79097	19120301.116871074
1.79344	21065100.887196887
1.79591	22257603.156550184
1.79837	22763008.638311822
1.80084	18672526.328244735
1.8033	19472391.439729072
1.80576	19049493.093308236
1.80821	16217559.328161113
1.81067	15938008.825849496
1.81312	19795642.22259022
1.81557	24454704.157769077
1.81801	23618244.889058083
1.82046	22454508.78348032
1.8229	24343312.276772764
1.82533	25887863.712074805
1.82777	24676186.62865182
1.8302	23852701.84707649
1.83263	22673237.568130482
1.83506	23032989.52130827
1.83749	23415374.40205385
1.83991	21670536.597756147
1.84233	22264053.0514194
1.84475	22909294.889380246
1.84716	19161222.32853581
1.84957	19863086.46878865
1.85198	24503601.212028377
1.85439	24833706.528120615
1.8568	21715905.59107013
1.8592	18488315.931956857
1.8616	15230215.213456728
1.864	15152063.85997276
1.86639	16441628.21101474
1.86878	16037745.944178563
1.87118	17410140.309764124
1.87356	17969317.35981262
1.87595	20630871.638903216
1.87833	24655601.514177267
1.88071	25450136.179537553
1.88309	24303679.94636566
1.88547	22511929.816529345
1.88784	22639018.59355166
1.89021	22860812.1375166
1.89258	23701245.970534354
1.89494	25264338.277481005
1.89731	25384094.108744066
1.89967	23234971.95827536
1.90203	22771442.396873757
1.90439	24604851.720899545
1.90674	28471386.00125398
1.90909	31019153.817184336
1.91144	26990502.037534777
1.91379	23518065.570520867
1.91613	26970655.90020066
1.91848	30020234.160068892
1.92082	26833297.12417956
1.92315	22650700.362596147
1.92549	25657016.85663107
1.92782	28172894.03399189
1.93015	25916360.3405458
1.93248	26182762.474086024
1.93481	27196093.400891118
1.93713	21518383.928773694
1.93945	15876491.999729555
1.94177	19519459.776061293
1.94409	22062187.846411865
1.94641	20955251.986968692
1.94872	20604247.07296831
1.95103	24488579.43172354
1.95334	26143860.107396837
1.95564	20854620.06094807
1.95795	19063931.294140715
1.96025	19960285.408935975
1.96255	21462715.91928827
1.96484	25681843.251943383
1.96714	28172680.659176294
1.96943	26313819.607178055
1.97172	27190670.90135699
1.97401	28670273.27777805
1.97629	27374369.452610783
1.97858	27615669.7245414
1.98086	27025771.10970158
1.98314	28345057.867599837
1.98541	31484382.146806426
1.98769	29830334.661784116
1.98996	25563681.721913047
1.99223	25914243.6408923
1.9945	28974451.019834504
1.99677	29712594.286749776
1.99903	28347631.975955315
2.00129	28066110.206800845
2.00355	30730835.65622501
2.00581	33219442.58504594
2.00806	32382302.557107463
2.01031	33242257.02018723
2.01256	36539846.92525531
2.01481	37027592.604972675
2.01706	35468040.70751763
2.0193	36048649.106881686
2.02154	38480395.762902975
2.02378	38980365.07814601
2.02602	37490234.2768399
2.02825	36964022.32319118
2.03049	37497787.930752285
2.03272	39084798.109957
2.03494	40460082.56801351
2.03717	40544389.94457199
2.03939	40326559.88515767
2.04162	40419783.69543945
2.04384	40481096.62545482
2.04605	40094327.16122476
2.04827	39206170.13462391
2.05048	38929732.901980676
2.05269	39482841.54483306
2.0549	40254534.28821187
2.05711	40566335.999626584
2.05931	39254546.14467471
2.06151	38464116.26103603
2.06371	39580918.04512749
2.06591	40786991.30685294
2.06811	41557795.96272572
2.0703	42031516.63215275
2.07249	42370757.71614204
2.07468	42446212.14429779
2.07686	42520997.83567803
2.07905	42949133.252640605
2.08123	43320923.08406484
2.08341	43250910.764212005
2.08559	42760886.721164465
2.08776	42692438.44288583
2.08994	43112814.171631776
2.09211	43328544.80865659
2.09428	43489456.83386155
2.09645	43594108.13312744
2.09861	43484296.50404305
2.10077	43547450.01909296
2.10293	43882672.93631623
2.10509	44071934.5018781
2.10725	43844302.112969965
2.1094	43175612.34421541
2.11155	42315056.519928485
2.1137	42109182.9147802
2.11585	42789072.03500239
2.11799	43616391.24305152
2.12013	44216026.11446441
2.12227	44505763.10532891
2.12441	44573525.52958346
2.12655	44584222.841685236
2.12868	44570389.60416231
2.13081	44587971.403581515
2.13294	44746847.93000184
2.13507	44965545.63158302
2.13719	45090426.32233165
2.13931	45099252.087221704
2.14143	45033108.40685928
2.14355	45023903.69055879
2.14567	45082285.56951662
2.14778	45019467.62036677
2.14989	44808835.71037243
2.152	44398049.71782518
2.1541	43857791.2186511
2.15621	43978807.5977981
2.15831	44695403.817354366
2.16041	45026487.441952884
2.16251	45123341.55137647
2.1646	45216033.73412142
2.1667	45353896.04933512
2.16879	45484395.13010954
2.17087	45347556.4326694
2.17296	45122827.409602895
2.17504	45255719.72591509
2.17713	45609858.128488645
2.1792	45810538.450483374
2.18128	45858506.318461
2.18336	45839364.86619975
2.18543	45816860.31893706
2.1875	45780807.43130116
2.18957	45771593.94962127
2.19163	45831853.47840024
2.1937	45833710.96474409
2.19576	45473330.30600429
2.19782	44407791.69028807
2.19987	43414189.30228824
2.20193	43304546.49675131
2.20398	43988242.44702203
2.20603	45019206.72369194
2.20808	45773334.39856416
2.21012	46092861.22858982
2.21217	46025192.97690199
2.21421	45425890.88255647
2.21625	44646630.422142506
2.21828	44418529.67952882
2.22032	44610541.810734205
2.22235	44499253.64937009
2.22438	43976230.63857161
2.22641	43556487.26302327
2.22843	43607331.83282974
2.23046	43862340.409231834
2.23248	44143122.78697436
2.2345	44546333.50112671
2.23651	44574742.31413452
2.23853	43595114.354631245
2.24054	42186587.79544127
2.24255	42118905.90477996
2.24456	43170937.57196389
2.24657	43353015.97391078
2.24857	42689915.84073127
2.25057	41845704.07175657
2.25257	40868190.52478542
2.25457	39503920.49471871
2.25656	39787634.0564908
2.25856	41595043.873107806
2.26055	42461705.28197683
2.26254	42323138.857603066
2.26453	42467140.49105084
2.26651	43007297.33388724
2.2685	43423584.83134277
2.27048	43485415.2199874
2.27246	43652649.711085685
2.27443	43395516.83447361
2.27641	42921180.46129779
2.27838	43263762.88337389
2.28036	44362114.6676052
2.28233	44080025.52445057
2.28429	40830600.51677351
2.28626	36892344.41425984
2.28823	36795487.79367846
2.29019	38972567.82960554
2.29215	39054748.70302326
2.29411	37857998.49825327
2.29607	37634671.76551
2.29802	38822203.086880796
2.29998	40444109.23530621
2.30193	42332293.66950456
2.30388	43528612.11952497
2.30583	44001315.29169282
2.30778	43812615.43324278
2.30972	43764885.114288576
2.31167	43971703.9016022
2.31361	42490915.92872815
2.31555	38848384.78820864
2.31749	36988485.25205634
2.31943	38043428.95996735
2.32137	38891250.21164046
2.32331	37924473.61892202
2.32524	37189259.13603941
2.32718	37912360.23508344
2.32911	38315547.20624041
2.33104	38052591.93323292
2.33297	37694773.443914615
2.3349	38050336.67901118
2.33683	38766089.92747295
2.33876	39220226.45655996
2.34068	39146445.203556746
2.34261	38758933.32545973
2.34453	37453144.40430862
2.34646	34923177.4710367
2.34838	34352428.423200525
2.3503	35747371.79071889
2.35223	37745425.40269288
2.35415	38014446.32166478
2.35607	37011922.39849813
2.35799	36568592.77764824
2.35991	37136919.68369731
2.36183	38786387.09354586
2.36375	40837287.14121863
2.36566	40380703.56439354
2.36758	36040271.158009134
2.3695	31744194.071181186
2.37142	30913792.957111057
2.37334	31353651.941197775
2.37526	31963899.36978044
2.37718	32278937.74466995
2.3791	33022781.19092532
2.38101	34360390.47215151
2.38293	36654182.034215406
2.38485	37642461.307222754
2.38677	37964749.17797518
2.3887	39823400.66919471
2.39062	42894165.11304132
2.39254	44199529.97681821
2.39446	43543843.56114934
2.39639	40850343.13625677
2.39831	37636647.47364737
2.40024	35268781.44382075
2.40216	34360257.220386125
2.40409	34325967.83474069
2.40602	34585326.66201741
2.40795	34997373.20962694
2.40989	35935777.6949771
2.41182	36532419.17792653
2.41376	34774366.12452705
2.4157	32192888.681140184
2.41764	30822264.047593422
2.41958	31786182.554655917
2.42152	33148151.3117132
2.42347	34382709.89448
2.42542	33616007.56669605
2.42737	32224789.1591454
