#wavelength	surface flux
0.7	859.8300635005457
0.7001166666666666	862.6650834301288
0.7002333527777778	865.4740022982105
0.700350058336574	868.2169830720338
0.7004667833462966	870.9720973998328
0.7005835278101878	873.7364041618023
0.7007002917314895	876.4086858977822
0.7008170751134447	879.0837769128497
0.7009338779592968	881.8618503894323
0.7010507002722901	884.5929309189216
0.7011675420556689	887.2625654253242
0.701284403312678	889.97049029231
0.7014012840465635	892.6924268586292
0.7015181842605713	895.3251553347749
0.701635103957948	897.9343166421314
0.701752043141941	900.4879535227549
0.701869001815798	903.2955624433962
0.7019859799827672	906.2798856301716
0.7021029776460976	908.9885929386204
0.7022199948090387	911.6721810220375
0.7023370314748403	914.4145874143678
0.7024540876467528	917.2731640592846
0.702571163328027	920.2669522055216
0.7026882585219152	923.1059473035095
0.7028053732316688	925.8914198842534
0.7029225074605406	928.609785038569
0.7030396612117841	931.3072304073212
0.7031568344886527	933.9633587952767
0.7032740272944008	936.921599786597
0.7033912396322832	940.0562676617683
0.7035084715055552	942.9962053427471
0.7036257229174727	945.8717728113451
0.7037429938712924	948.5731210840297
0.7038602843702709	951.4654457347331
0.7039775944176659	954.5384478792879
0.7040949240167356	957.4847294571338
0.7042122731707383	960.4036859954225
0.7043296418829335	963.3421433334155
0.7044470301565806	966.2402852588662
0.70456443799494	969.0778546511261
0.7046818654012724	972.0606417296144
0.7047993123788394	975.1068129665099
0.7049167789309024	977.9917984158654
0.7050342650607243	980.9446482056026
0.7051517707715678	984.0639878741067
0.7052692960666963	987.1457342619339
0.705386840949374	990.2014635450523
0.7055044054228656	993.1334937888072
0.7056219894904361	996.0940042133408
0.7057395931553511	999.2447946953132
0.705857216420877	1002.3351129069389
0.7059748592902804	1005.3615367827196
0.7060925217668288	1008.386982682508
0.70621020385379	1011.4207839776948
0.7063279055544321	1014.5420458838114
0.7064456268720246	1017.6389788376724
0.7065633678098366	1020.6971575543703
0.7066811283711383	1023.7532845706672
0.7067989085592001	1026.8087641918178
0.7069167083772933	1029.8607921470038
0.7070345278286895	1032.8647834850235
0.707152366916661	1035.7522393582842
0.7072702256444803	1038.5354082308104
0.7073881040154211	1041.2479662706091
0.7075060020327569	1044.8873004050113
0.7076239196997625	1048.5393390064569
0.7077418570197124	1051.8308809306989
0.7078598139958823	1055.0960047293847
0.7079777906315483	1058.3354549961364
0.7080957869299869	1061.486041124095
0.7082138028944751	1064.6454793314904
0.7083318385282908	1068.0248851525846
0.7084498938347124	1071.3405111071086
0.708567968817018	1074.5687739659681
0.7086860634784875	1077.567661472218
0.7088041778224007	1080.462833696407
0.7089223118520377	1082.850291273495
0.7090404655706796	1085.8652690711785
0.709158638981608	1090.084935789929
0.709276832088105	1093.5864877470747
0.7093950448934531	1096.701597483749
0.7095132774009353	1098.3741600072303
0.7096315296138355	1100.8743184283537
0.7097498015354378	1105.8245008266608
0.7098680931690269	1109.969955711501
0.7099864045178884	1113.5221470606125
0.7101047355853081	1117.0489911211741
0.7102230863745722	1120.5546126858042
0.7103414568889679	1123.9847035743524
0.7104598471317828	1127.4061677434347
0.7105782571063047	1130.8192026813422
0.7106966868158224	1133.9266074773102
0.710815136263625	1137.0489398413208
0.7109336054530023	1140.7403118934537
0.7110520943872445	1144.3992947313352
0.7111706030696424	1148.0168160677872
0.7112891315034873	1151.5476020696321
0.7114076796920712	1155.053145543437
0.7115262476386865	1158.6022913214777
0.7116448353466263	1162.060369776459
0.711763442819184	1165.3682242916398
0.711882070059654	1168.8522743860035
0.7120007170713306	1172.4145477442194
0.7121193838575091	1175.8772076720788
0.7122380704214853	1179.3838898584138
0.7123567767665555	1182.983169237473
0.7124755028960166	1186.4149737298283
0.7125942488131658	1189.7511161900347
0.7127130145213015	1193.193005002666
0.7128318000237216	1196.7031386468577
0.7129506053237256	1200.3843477816401
0.7130694304246129	1203.9915587739627
0.7131882753296837	1207.54628136216
0.7133071400422386	1211.056473324004
0.7134260245655789	1214.4016234873961
0.7135449289030065	1217.1738740638352
0.7136638530578235	1221.0391944948394
0.7137827970333332	1225.8476533882438
0.7139017608328388	1229.5685007792665
0.7140207444596443	1233.140353109724
0.7141397479170543	1236.8758057195757
0.7142587712083737	1240.3598714678585
0.7143778143369084	1243.5861154446163
0.7144968773059646	1247.8100657993252
0.7146159601188489	1252.179815932521
0.7147350627788687	1256.011969438784
0.7148541852893318	1259.777414831133
0.7149733276535467	1263.4627639816417
0.7150924898748222	1266.9371372086168
0.715211671956468	1270.4337947262493
0.7153308739017941	1274.6932233091322
0.715450095714111	1278.7868086150834
0.71556933739673	1282.6512143964646
0.7156885989529628	1286.1744647541004
0.7158078803861218	1289.6080619948389
0.7159271816995193	1293.439115144367
0.7160465028964692	1296.9601876627828
0.7161658439802853	1299.9953713577825
0.7162852049542819	1302.1991402038668
0.7164045858217744	1304.091805509541
0.716523986586078	1306.5374960811062
0.7166434072505089	1306.8534894239642
0.716762847818384	1303.4387410286588
0.7168823082930204	1308.8423393887322
0.7170017886777359	1318.2085768422692
0.7171212889758488	1326.2869992908466
0.7172408091906781	1332.47343012632
0.7173603493255433	1335.0084938934806
0.7174799093837642	1337.1289812464659
0.7175994893686615	1339.0438671062159
0.7177190892835562	1344.8762589642915
0.7178387091317702	1351.1689698846803
0.7179583489166254	1358.3879079107132
0.7180780086414448	1363.0621301671536
0.7181976883095517	1366.3775647143748
0.7183173879242699	1371.3627341194392
0.718437107488924	1375.9175403662548
0.7185568470068389	1379.4397779799456
0.7186766064813399	1381.8072246812144
0.7187963859157535	1383.524124604984
0.7189161853134061	1390.5099522472983
0.719036004677625	1396.9854210029523
0.7191558440117378	1401.8893662359585
0.7192757033190732	1406.16610940495
0.7193955826029597	1410.0771951857562
0.7195154818667269	1413.9215477755536
0.7196354011137046	1417.9374363692964
0.7197553403472235	1422.36822090933
0.7198752995706147	1426.8850162713902
0.7199952787872098	1431.453147305485
0.720115278000341	1435.1937210456942
0.7202352972133411	1438.6967549863384
0.7203553364295432	1441.710079753538
0.7204753956522815	1445.8460051345685
0.7205954748848902	1450.6474495970988
0.7207155741307044	1455.2252852863758
0.7208356933930594	1459.9486674088582
0.7209558326752915	1465.0361407105
0.7210759919807375	1469.4974802566765
0.7211961713127342	1473.5950943985724
0.7213163706746197	1476.9639606491799
0.7214365900697322	1480.7756678346188
0.7215568295014103	1485.6539108155084
0.721677088972994	1490.6306271872236
0.7217973684878227	1495.6628727764412
0.7219176680492374	1498.8238783847373
0.7220379876605789	1502.6646289976902
0.722158327325189	1508.0691275953238
0.7222786870464099	1513.4275728643963
0.7223990668275843	1518.7620401743504
0.7225194666720555	1523.1416758990651
0.7226398865831676	1527.5602300024595
0.7227603265642646	1532.0717159179585
0.722880786618692	1535.6625888847386
0.7230012667497951	1538.8228603975087
0.7231217669609201	1543.9930284451702
0.7232422872554135	1548.7376924119274
0.7233628276366229	1552.6942227065226
0.7234833881078956	1557.3980392802719
0.7236039686725803	1562.3254873449362
0.7237245693340255	1564.0200251204558
0.7238451900955812	1567.554917667189
0.7239658309605971	1574.1623339063922
0.7240864919324239	1580.3450494480783
0.7242071730144127	1586.2821059169285
0.724327874209915	1590.9785832150944
0.7244485955222832	1595.726487593542
0.7245693369548704	1600.5503624670077
0.7246900985110294	1605.4881741460265
0.7248108801941148	1610.4848198996249
0.7249316820074803	1615.679326381812
0.7250525039544815	1620.6204069672788
0.7251733460384739	1625.231372368062
0.7252942082628137	1629.581216300113
0.7254150906308574	1633.844149965199
0.7255359931459625	1638.0129452989108
0.7256569158114868	1642.5739534836405
0.7257778586307888	1647.5760918281378
0.7258988216072273	1652.0365759864335
0.7260198047441617	1656.53217291634
0.7261408080449525	1661.8252978499436
0.72626183151296	1665.876557150545
0.7263828751515454	1668.738597871996
0.7265039389640706	1675.3074948955611
0.726625022953898	1681.9134805546923
0.7267461271243904	1686.3137199464754
0.7268672514789111	1690.7566132520362
0.7269883960208241	1695.233833757898
0.7271095607534942	1701.2556607832164
0.7272307456802866	1707.2993572420792
0.7273519508045666	1712.9243018084226
0.7274731761297006	1717.860397297316
0.7275944216590555	1722.3443096360538
0.7277156873959987	1726.7577402472073
0.7278369733438982	1730.5621730996318
0.727958279506122	1732.9844303862587
0.7280796058860397	1739.2395510978633
0.7282009524870207	1747.487753549972
0.7283223193124353	1753.608165282368
0.7284437063656539	1759.4502710435709
0.7285651136500483	1764.7968128594866
0.7286865411689898	1769.5526169181223
0.7288079889258514	1773.9543361964609
0.7289294569240056	1776.704235784836
0.7290509451668262	1780.7320215865882
0.7291724536576875	1786.5296104361191
0.7292939823999636	1792.3639987616127
0.7294155313970303	1798.240062141299
0.7295371006522632	1804.323272364864
0.7296586901690385	1809.7635373733276
0.7297802999507332	1814.5144511201097
0.7299019300007252	1818.996450588669
0.7300235803223919	1823.1025943414907
0.7301452509191123	1825.859743565031
0.7302669417942654	1829.7058761810185
0.7303886529512311	1834.443059383744
0.7305103843933897	1834.2759176756074
0.7306321361241218	1837.37979094258
0.7307539081468093	1851.013977732739
0.7308757004648336	1860.6904286274444
0.7309975130815778	1867.9569543634266
0.7311193460004248	1873.4364182498791
0.7312411992247582	1879.1432737335067
0.7313630727579622	1885.3674956140176
0.7314849666034219	1890.9000299438203
0.7316068807645224	1896.0497477824488
0.7317288152446498	1899.8187765636537
0.7318507700471907	1903.9456544408058
0.7319727451755319	1908.5741635737045
0.732094740633061	1915.8845739076291
0.7322167564231665	1923.3919738419918
0.7323387925492371	1927.2838788694505
0.7324608490146619	1932.9600206456978
0.732582925822831	1940.4315019309438
0.7327050229771347	1946.683128133349
0.7328271404809642	1952.5347363320202
0.7329492783377112	1957.678541149483
0.7330714365507675	1963.5341903179155
0.7331936151235259	1969.8957174013126
0.7333158140593796	1975.26596215264
0.7334380333617229	1980.3905704249503
0.7335602730339499	1985.0913859841387
0.7336825330794556	1991.4921817172058
0.7338048135016354	1998.6434315522467
0.7339271143038857	2004.120272093015
0.734049435489603	2008.427721907224
0.7341717770621846	2011.0101536296727
0.7342941390250283	2017.3599969303002
0.7344165213815324	2024.6183504094536
0.734538924135096	2030.4546982042514
0.7346613472891185	2036.6788932740435
0.734783790847	2043.289352770716
0.7349062548121412	2047.37866624745
0.7350287391879431	2049.673769457984
0.7351512439778078	2047.3689756223907
0.7352737691851374	2055.2179781742157
0.735396314813335	2069.7805761815052
0.7355188808658037	2076.922583084979
0.7356414673459482	2084.0834437552708
0.7357640742571725	2091.7303446559513
0.7358867016028818	2097.7165538168483
0.7360093493864824	2103.0322461596998
0.7361320176113801	2108.557946222811
0.736254706280982	2113.8579035363437
0.7363774153986956	2118.877026837165
0.7365001449679286	2121.052020306938
0.7366228949920899	2123.4892256205594
0.7367456654745885	2129.868271098932
0.7368684564188344	2139.5598236043097
0.7369912678282374	2151.8817546144724
0.7371140997062088	2159.7823809417882
0.7372369520561599	2166.851649030488
0.7373598248815024	2172.7733117012513
0.7374827181856494	2178.7756262310804
0.7376056319720137	2184.8360924124563
0.7377285662440091	2191.2818956463207
0.7378515210050496	2197.032067222576
0.7379744962585505	2201.8170549420056
0.738097492007927	2207.9963819519717
0.7382205082565949	2214.3734286205167
0.738343545007971	2219.9120752181198
0.7384666022654723	2226.2806882586074
0.7385896800325165	2233.353213232983
0.7387127783125219	2240.3431363079644
0.7388358971089073	2247.190976167689
0.7389590364250921	2253.7104732688854
0.7390821962644963	2260.3423484219993
0.7392053766305403	2267.0342301383384
0.7393285775266454	2273.8023583510417
0.7394517989562333	2280.56605934152
0.7395750409227259	2287.32322654671
0.7396983034295463	2293.7017620454576
0.739821586480118	2299.8309598082938
0.7399448900778645	2305.2357107866496
0.7400682142262109	2311.785044765059
0.740191558928582	2319.259599262389
0.7403149241884034	2325.039985894511
0.7404383100091014	2330.9424029691863
0.7405617163941028	2337.3913353362022
0.7406851433468352	2344.297638791908
0.7408085908707264	2351.156562407811
0.7409320589692048	2354.623753298807
0.7410555476456997	2361.1182057427145
0.7411790569036406	2371.316332842336
0.7413025867464579	2378.17862863727
0.7414261371775823	2384.528631702796
0.7415497082004452	2391.5060618612392
0.7416732998184786	2398.3890900902616
0.741796912035115	2405.2076864944165
0.7419205448537874	2410.6100275109607
0.7420441982779297	2416.7654680120295
0.742167872310976	2424.339680699472
0.7422915669563612	2432.641136113254
0.7424152822175206	2440.989928117705
0.7425390180978901	2447.858273122204
0.7426627746009065	2454.0033635493637
0.7427865517300065	2459.4456487559737
0.7429103494886282	2468.0229565483723
0.7430341678802096	2476.6556797509556
0.7431580069081896	2484.4290004314835
0.7432818665760077	2491.763242116345
0.7434057468871037	2498.8625791494774
0.7435296478449182	2505.7533671618853
0.7436535694528923	2512.5853750450306
0.7437775117144678	2519.339804935994
0.7439014746330868	2525.2284250953644
0.7440254582121922	2531.35057973176
0.7441494624552276	2539.11769439819
0.7442734873656368	2545.656475440008
0.7443975329468645	2551.3505853251695
0.7445215992023557	2558.160558868349
0.7446456861355559	2565.4677972765
0.7447697937499119	2573.5889608644948
0.7448939220488703	2581.5493619533145
0.7450180710358784	2589.472287608861
0.7451422407143843	2597.4748804646015
0.7452664310878367	2605.270150146636
0.7453906421596846	2612.8852695896526
0.7455148739333779	2620.6351307447926
0.7456391264123667	2628.323820557793
0.7457633996001021	2635.8542067411136
0.7458876935000356	2643.142988801066
0.7460120081156189	2650.3198001103165
0.7461363434503048	2657.3873620126706
0.7462606995075466	2664.782037608986
0.7463850762907978	2672.5198167005506
0.7465094738035127	2680.114294784026
0.7466338920491467	2687.829929268142
0.746758331031155	2695.919798596791
0.7468827907529935	2703.5667967246195
0.7470072712181189	2711.041978228388
0.7471317724299886	2719.3329668034016
0.7472562943920602	2727.412154288797
0.7473808371077922	2735.234272212884
0.7475054005806435	2741.6343669546363
0.7476299848140736	2748.331507161595
0.7477545898115426	2756.780390875635
0.7478792155765113	2765.0329747466226
0.7480038621124406	2773.1067712068775
0.7481285294227926	2779.092193049957
0.7482532175110298	2786.5071652579063
0.7483779263806148	2795.8422249545356
0.7485026560350116	2803.9929556287757
0.7486274064776842	2811.932237876411
0.748752177712097	2820.0228654122843
0.7488769697417158	2828.4979234962416
0.749001782570006	2837.205516662454
0.7491266162004343	2845.4361194696594
0.7492514706364677	2853.5406135577264
0.7493763458815739	2861.464673939393
0.7495012419392209	2869.5556042998605
0.7496261588128773	2877.659034218414
0.7497510965060128	2885.6598466482387
0.7498760550220971	2893.74928102416
0.7500010343646007	2901.892627296716
0.7501260345369949	2909.609198526257
0.750251055542751	2917.436548108588
0.7503760973853414	2925.423852904262
0.7505011600682389	2933.5864170355444
0.750626243594917	2941.661381839418
0.7507513479688495	2949.247760252047
0.7508764731935109	2957.2933361436208
0.7510016192723765	2965.633740239393
0.7511267862089218	2974.135987509386
0.7512519740066232	2982.5567938895997
0.7513771826689577	2990.862265492792
0.7515024121994025	2999.344321900894
0.7516276626014359	3007.807704554214
0.751752933878536	3016.0638703954487
0.7518782260341824	3024.1887306042718
0.7520035390718548	3032.250069532978
0.7521288729950334	3040.827871211218
0.7522542278071992	3049.373361779894
0.7523796035118337	3057.8760137342533
0.7525050001124189	3066.3947082570926
0.7526304176124378	3074.7358707148687
0.7527558560153731	3082.510554144995
0.752881315324709	3091.234498369724
0.7530067955439299	3100.450042588169
0.7531322966765205	3109.238014138883
0.7532578187259665	3118.0427846921384
0.7533833616957542	3126.866981574915
0.75350892558937	3135.2866443793905
0.7536345104103016	3143.6877572594135
0.7537601161620366	3152.2013240490132
0.7538857428480638	3160.6153870490234
0.7540113904718717	3168.9980121233098
0.7541370590369503	3177.5236186133525
0.7542627485467898	3185.908564627439
0.7543884590048808	3194.1523672815415
0.7545141904147151	3203.3232865452437
0.7546399427797842	3212.4181426506684
0.7547657161035808	3221.1467261834946
0.754891510389598	3230.129659947953
0.7550173256413296	3239.1429254816558
0.7551431618622698	3247.744802060063
0.7552690190559135	3256.328367067503
0.7553948972257561	3264.8970995023865
0.7555207963752938	3273.825351002967
0.755646716508023	3282.7839734552235
0.755772657627441	3291.7674109415966
0.7558986197370455	3300.5186330884108
0.756024602840335	3309.213878405612
0.7561506069408084	3317.940957099911
0.7562766320419653	3326.854070189208
0.7564026781473054	3335.8827498536025
0.75652874526033	3344.6867450049526
0.7566548333845401	3353.477139441648
0.7567809425234375	3362.2494150950524
0.7569070726805247	3371.0540733974735
0.7570332238593047	3379.855725988194
0.7571593960632813	3388.6309336976724
0.7572855892959586	3397.197481193164
0.7574118035608413	3405.668693199282
0.7575380388614347	3414.169785189886
0.7576642952012449	3422.83263648061
0.7577905725837782	3431.6514789876605
0.7579168710125422	3440.313234191882
0.7580431904910444	3449.071100443205
0.7581695310227928	3458.037288891701
0.7582958926112967	3467.0324100239122
0.7584222752600652	3475.9815602755803
0.7585486789726085	3484.6695453145458
0.7586751037524372	3493.290141522674
0.7588015496030628	3501.862034118008
0.7589280165279966	3510.1859473092113
0.7590545045307512	3518.647795685955
0.7591810136148396	3527.2914215365868
0.7593075437837755	3535.898588570236
0.7594340950410726	3544.3341962176546
0.7595606673902461	3552.3201706074124
0.7596872608348112	3560.474389606874
0.7598138753782836	3568.716821418539
0.75994051102418	3577.0549374228763
0.7600671677760173	3585.3686054433992
0.7601938456373134	3593.660771423153
0.7603205446115863	3601.558824128277
0.7604472647023548	3609.308819452957
0.7605740059131385	3616.8429118616295
0.7607007682474575	3624.572730159806
0.7608275517088319	3632.2775110427824
0.7609543563007835	3639.708005538406
0.7610811820268336	3646.866252262423
0.7612080288905045	3653.8581156878345
0.7613348968953197	3660.6470923428683
0.7614617860448022	3667.1165950594236
0.7615886963424764	3673.2493021915
0.7617156277918667	3679.5277341372976
0.7618425803964988	3685.671520548823
0.7619695541598982	3691.519375891506
0.7620965490855914	3696.7440989289703
0.7622235651771058	3701.7152698214545
0.7623506024379685	3706.4344342501654
0.7624776608717082	3710.638769448687
0.7626047404818536	3714.4897321877834
0.7627318412719337	3717.6688909128306
0.762858963245479	3720.422418360871
0.7629861064060198	3722.6837004717704
0.7631132707570876	3724.175529779741
0.7632404563022137	3725.031433536184
0.7633676630449308	3724.725933381179
0.7634948909887717	3723.6489406924443
0.7636221401372697	3721.973100059367
0.7637494104939593	3718.702842934832
0.7638767020623748	3714.129099889178
0.7640040148460518	3708.6170616648656
0.7641313488485262	3700.7075559844
0.7642587040733344	3691.178639920472
0.7643860805240132	3679.7555514970645
0.7645134782041005	3666.4294387819236
0.7646408971171346	3651.4984100722936
0.764768337266654	3633.6671838646635
0.7648957986561985	3613.140496658229
0.7650232812893079	3590.935145707324
