#wavelength	surface flux
0.6450077295303345	48.456376941094106
0.6472567915916443	52.118209494174785
0.6494921445846558	56.00533655570012
0.6517150402069092	60.1051860537735
0.6539263725280762	64.483445477477
0.6561272740364075	69.09283518993487
0.6583186388015747	74.00983617515514
0.6605015397071838	79.20503695231938
0.6626768708229065	84.68247633831909
0.6648455858230591	90.51185179296846
0.6670085787773132	96.66802119778991
0.6691668033599854	103.19402916462519
0.6713210344314575	109.9737135324077
0.6734722256660461	117.38760756950923
0.6756211519241333	125.1040493199571
0.6777685880661011	133.2681914714334
0.6799154281616211	141.90479200630617
0.6820623278617859	151.02924101562053
0.6842101216316223	160.67104708406382
0.6863595843315125	170.87330757174956
0.688511312007904	181.6255346775082
0.6906660795211792	192.90113607087463
0.6928245425224304	204.67670179185538
0.6949873566627502	217.85551345823524
0.6971551775932312	231.43946785884194
0.6993286609649658	245.43343396253857
0.7015084028244019	260.8428357248603
0.7036949396133423	276.89978600588546
0.7058889269828796	293.86821341302795
0.7080909013748169	311.584159220021
0.710301399230957	330.4268085891863
0.712520956993103	350.6194024283657
0.7147500514984131	371.7011636875105
0.7169892191886902	392.1533697029376
0.7192389369010925	417.84859239953187
0.7214996814727783	442.6804653820662
0.723771870136261	469.27512374853774
0.7260559797286987	497.79729596742965
0.7283523678779602	527.4834574801619
0.7306615710258484	557.9228626856284
0.7329838871955872	592.4366115542304
0.7353196740150452	625.4677682653949
0.7376693487167358	664.2262879138999
0.7400332689285278	704.4326808617316
0.7424117922782898	745.796541309573
0.7448052167892456	790.1841193171313
0.7472138404846191	837.7713954243766
0.7496379613876343	888.5515237236729
0.7520779371261597	941.2541143595586
0.7545340061187744	997.6622435629838
0.7570064663887024	1057.1764892634394
0.7594954967498779	1119.9851506020598
0.7620013952255249	1186.275673756786
0.7645244002342224	1254.34331578399
0.7670646905899048	1298.932407769549
0.7696225643157959	1385.8199669863188
0.7721980810165405	1492.2174672436843
0.7747915983200073	1582.62653981539
0.7774031162261963	1676.5364185711605
0.7800329327583313	1773.2166335416523
0.7826811671257019	1881.0207102074928
0.7853479981422424	1992.4840873477856
0.7880334854125977	2109.498220626968
0.7907378077507019	2234.2545749993005
0.7934610247612	2366.015466359712
0.7962033748626709	2505.0865065429407
0.7989648580551147	2653.6397640713476
0.801745593547821	2809.7258115178365
0.8045456409454346	2976.379154319897
0.8073651194572449	3151.6790312153375
0.8102040886878967	3321.164012050399
0.8130625486373901	3523.570371865799
0.8159406185150146	3735.726127354495
0.8188382983207703	3930.899423223547
0.8217556476593018	4188.112824881033
0.8246926665306091	4430.1333380467095
0.8276493549346924	4686.466895452792
0.8306257724761963	4965.114254160577
0.8336219191551208	5263.838870686289
0.8366377949714661	5567.83582341222
0.8396733403205872	5886.443722473582
0.8427285552024841	6238.69895247407
0.8458034992218018	6592.521687854835
0.8488980531692505	6977.987102321456
0.8520121574401855	7385.149360806849
0.8551458716392517	7811.588087182579
0.8582990765571594	8262.799545695805
0.8614717125892639	8735.591280440862
0.8646637797355652	9230.418382389893
0.8678751587867737	9764.272167851876
0.8711057901382446	10321.842143719103
0.8743556141853333	10909.004841228438
0.87762451171875	11532.028593545203
0.8809124231338501	12183.415221279452
0.8842192888259888	12868.932771815644
0.8875449895858765	13595.005731246372
0.8908893465995789	14275.819751197225
0.894252359867096	15083.607764040444
0.8976338505744934	15557.905388705836
0.9010337591171265	16751.95184826061
0.9044519662857056	17792.460145507048
0.9078882932662964	18768.922270027328
0.9113426208496094	19835.128798057518
0.914814829826355	20857.72692082069
0.9183048605918884	21938.23964598704
0.9218124747276306	23149.43524819836
0.925337553024292	24156.48471505729
0.9288799166679382	25064.343872727808
0.9324395060539246	25041.35980300015
0.9360161423683167	26414.150374701425
0.9396095871925354	29681.980269064316
0.943219780921936	31613.544188895776
0.9468464851379395	30810.837866584796
0.9504896402359009	32504.01619858182
0.9541489481925964	35637.233345482455
0.9578243494033813	37979.58343623166
0.9615156054496765	39436.53875051564
0.9652225375175476	41975.06614244996
0.9689450263977051	45131.166856757256
0.9726828336715698	46446.309547766214
0.9764357805252075	49553.10833863558
0.9802037477493286	51883.202683079646
0.983986496925354	55007.83997352216
0.9877838492393494	57729.755202543885
0.9915955662727356	60818.44510710279
0.9954215884208679	63948.45780741525
0.9992615580558777	67095.03814450299
1.0031154155731201	70225.98328533056
1.0069829225540161	73595.85105735358
1.0108637809753418	77122.82680888043
1.0147579908370972	80775.79750383623
1.018665075302124	84546.92755210136
1.022585153579712	88514.89900077616
1.0265177488327026	92607.8694173966
1.0304628610610962	96870.58860966338
1.0344202518463135	101296.72266532625
1.0383895635604858	105889.18192741784
1.0423706769943237	110665.5758794934
1.0463634729385376	115601.55160851283
1.0503677129745483	120704.6789459678
1.0543830394744873	126073.45132687998
1.058409333229065	131556.84868039362
1.0624464750289917	137603.50088964324
1.0664942264556885	143641.66305846235
1.0705522298812866	149900.9632664862
1.0746204853057861	156417.90914622846
1.0786986351013184	162739.28306011195
1.0827864408493042	169822.66565044972
1.086883783340454	176586.20811772518
1.0909905433654785	183650.1870478346
1.0951062440872192	190497.28009031244
1.0992310047149658	193428.6984109175
1.10336434841156	201692.78306218848
1.1075061559677124	213292.7473438554
1.1116561889648438	221080.60685251662
1.115814208984375	188470.42005896353
1.1199802160263062	217239.78214598913
1.124153733253479	196401.26884604705
1.1283347606658936	233901.17029786776
1.1325229406356812	262669.7474358658
1.1367181539535522	259027.63660940863
1.1409201622009277	288725.9708461836
1.145128846168518	279021.53549533867
1.1493438482284546	255562.89549435195
1.1535650491714478	316084.7809054894
1.1577922105789185	333678.77395105886
1.1620250940322876	340491.36379188026
1.1662636995315552	353351.57255224773
1.170507550239563	354456.16345665
1.174756646156311	379906.1151621784
1.1790107488632202	398166.59338479076
1.1832695007324219	414852.8522787602
1.1875330209732056	427774.574638466
1.191800832748413	445944.50182879437
1.1960728168487549	459487.656513015
1.2003488540649414	474158.344455075
1.2046287059783936	492607.99307361303
1.2089121341705322	509522.383792987
1.2131990194320679	522284.83691966126
1.2174891233444214	543881.6478202024
1.2217823266983032	561325.6492605906
1.2260783910751343	579652.3342937138
1.230377197265625	597409.2911338684
1.2346785068511963	617536.1650280915
1.238982081413269	637041.843774903
1.2432878017425537	656674.249079146
1.2475954294204712	676550.0783432379
1.2519049644470215	697262.7508588943
1.256216049194336	718364.7319732348
1.2605286836624146	739893.5988036174
1.2648425102233887	762038.6536782722
1.2691574096679688	783063.4557985441
1.2734732627868652	805206.7708401862
1.2777899503707886	830070.3995321445
1.2821072340011597	849605.7637041884
1.2864248752593994	874747.2248265904
1.2907428741455078	897953.3475340271
1.2950609922409058	899385.4913980077
1.2993791103363037	934081.7596379237
1.303696870803833	969876.8491104321
1.3080145120620728	997379.7117295336
1.3123314380645752	1020803.6364788343
1.3166478872299194	1045929.7089709395
1.3209635019302368	1064691.416450455
1.3252781629562378	1104841.6811685672
1.3295916318893433	1128004.5620562385
1.3339040279388428	1114206.5941578052
1.3382149934768677	1028685.7689834482
1.3425244092941284	862277.8990849052
1.3468321561813354	897509.1775492514
1.3511382341384888	914262.3062688815
1.3554422855377197	912867.3236095334
1.3597444295883179	1020489.5241385213
1.3640443086624146	964696.6939504003
1.3683418035507202	1028518.433167615
1.3726370334625244	1226483.6757971412
1.3769296407699585	1257132.2011133207
1.381219506263733	1329837.4514923764
1.3855066299438477	1156865.395849937
1.3897908926010132	1236610.829112783
1.3940720558166504	1197821.2847064931
1.3983501195907593	1193788.5215953565
1.4026249647140503	1334507.8659091538
1.4068963527679443	1379670.7861153388
1.4111642837524414	1505624.291655525
1.4154287576675415	1295344.8374999997
1.419689416885376	1286678.4437840602
1.4239463806152344	1114716.8871604265
1.4281994104385376	1568777.9420203513
1.4324485063552856	1511104.066308542
1.436693549156189	1684029.6188651863
1.440934419631958	1642635.748351483
1.4451709985733032	1693858.8863978605
1.449403166770935	1677963.9366258364
1.453631043434143	1654023.8188686632
1.4578542709350586	1988035.9747599363
1.4620729684829712	1984049.113390894
1.4662868976593018	2059453.9906413015
1.4704961776733398	2176008.7477175915
1.4747005701065063	2091733.3104346914
1.4788999557495117	2264742.9804560984
1.4830944538116455	2227569.278061438
1.4872838258743286	2359942.416432058
1.491468071937561	2481439.994418189
1.4956470727920532	2509571.2209645836
1.4998208284378052	2518522.9180477443
1.5039892196655273	2604568.328506961
1.5081522464752197	2682629.2752034003
1.5123097896575928	2717738.1819736105
1.5164618492126465	2784652.546622576
1.5206083059310913	2779712.917064573
1.5247491598129272	2846376.725574117
1.5288842916488647	2765093.894906509
1.5330137014389038	2985771.0327303265
1.5371372699737549	3101468.5103585147
1.541254997253418	3141714.6613732623
1.545366883277893	3208584.9340505335
1.5494728088378906	3265389.1772859795
1.5535727739334106	3322507.448860519
1.5576666593551636	3368424.5683684945
1.561754584312439	3419651.3196883523
1.5658363103866577	3493661.7382231653
1.5699119567871094	3551945.9766878784
1.5739814043045044	3612025.751938691
1.5780447721481323	3670605.3559910483
1.582101821899414	3723116.6678002067
1.5861525535583496	3772017.1123615163
1.5901970863342285	3833994.2410758706
1.5942351818084717	3894023.331931825
1.5982669591903687	3951796.6059504696
1.6022924184799194	4009529.410031615
1.606311559677124	4065318.0668493784
1.6103241443634033	4126535.1605848814
1.6143304109573364	4185073.066810928
1.6183301210403442	4241945.190841275
1.6223233938217163	4255496.062971113
1.6263102293014526	4224007.330873282
1.6302905082702637	4274064.404177062
1.634264349937439	4329119.800082564
1.638231635093689	4516849.9762553815
1.6421923637390137	4581310.207149771
1.646146535873413	4619821.337670285
1.6500942707061768	4659305.307460078
1.6540353298187256	4652619.741434047
1.6579699516296387	4664994.386852131
1.661897897720337	4793373.482983382
1.6658192873001099	4508825.015521248
1.6697341203689575	4595916.933419948
1.6736423969268799	5042509.813005096
1.677544116973877	5059274.7676913645
1.6814392805099487	5044549.999569224
1.6853278875350952	5049144.265208787
1.6892099380493164	5300054.012159432
1.6930854320526123	4910641.070624211
1.696954369544983	5179453.678428316
1.7008168697357178	4898072.731208975
1.7046726942062378	4947814.891973535
1.708522081375122	5308032.544013083
1.712364912033081	5610562.554448929
1.7162011861801147	5697414.223433972
1.7200311422348022	5674738.3972619455
1.723854422569275	5374675.460213683
1.7276713848114014	5422417.368895512
1.731481909751892	5441277.435058642
1.7352858781814575	5326994.324139099
1.7390835285186768	5719893.185561739
1.7428747415542603	5743386.479600942
1.7466596364974976	6122359.9998565875
1.7504380941390991	6178029.100776554
1.7542102336883545	5989734.478157972
1.7579760551452637	5825769.193262677
1.7617355585098267	5926900.7281484455
1.7654887437820435	5735339.74043504
1.7692357301712036	5598102.397900158
1.7729763984680176	5886961.200256418
1.776710867881775	5266502.3698792225
1.7804391384124756	6025911.546048301
1.7841613292694092	5650620.795745783
1.7878772020339966	5623674.207702308
1.7915871143341064	4841808.5816239035
1.7952908277511597	5646868.159994289
1.7989884614944458	5832672.459670373
1.8026801347732544	5748677.521696094
1.806365728378296	5462184.000834684
1.8100452423095703	4495232.115675722
1.8137187957763672	5743464.271694779
1.817386507987976	6564895.011444214
1.8210482597351074	6607435.3364024395
1.8247040510177612	7355537.695754736
1.828354001045227	7328314.404929646
1.8319982290267944	6260980.65427871
1.8356364965438843	7077219.752767348
1.8392690420150757	6815630.848687244
1.8428958654403687	7134070.44286275
1.8465168476104736	6457490.892539259
1.8501322269439697	6575356.266086738
1.8537418842315674	7504887.782653138
1.8573459386825562	6573348.519745841
1.860944390296936	5079395.2189970575
1.864537239074707	5390783.107242721
1.8681244850158691	5251433.051050072
1.871706247329712	5636642.828853108
1.8752825260162354	6132940.088091074
1.8788533210754395	7753641.481227821
1.8824186325073242	7137149.639357284
1.8859784603118896	6374263.771698287
1.8895330429077148	6841693.11200955
1.8930821418762207	6944291.127306097
1.8966259956359863	7533803.440765494
1.9001644849777222	7325292.870904035
1.9036977291107178	7238883.290034808
1.9072256088256836	8490642.78041132
1.9107483625411987	8447703.808731988
1.9142658710479736	7781926.368626336
1.9177782535552979	8648136.148380792
1.9212853908538818	7778417.826411647
1.9247875213623047	6858120.839999959
1.9282845258712769	8261692.66388713
1.9317764043807983	8111134.892809584
1.9352631568908691	8415400.73688777
1.9387450218200684	5883365.778399504
1.942221760749817	6462731.962020181
1.9456936120986938	6674246.931395967
1.9491604566574097	6952452.397405431
1.952622413635254	7723250.963341848
1.956079363822937	5793650.224351073
1.959531545639038	5826187.543648941
1.962978720664978	7885319.309657792
1.966421127319336	9241124.085900642
1.9698586463928223	9016331.597608855
1.9732913970947266	9475196.97878265
1.9767193794250488	9049571.051696122
1.9801424741744995	9410545.043033171
1.9835609197616577	9375455.798519954
1.9869745969772339	9084014.748490814
1.990383505821228	8122533.850840764
1.9937876462936401	9201318.973403547
1.9971871376037598	9726789.834535673
2.000581979751587	8989589.290020442
2.003972291946411	9292509.932123108
2.007357597351074	10208643.041187197
2.0107386112213135	10664609.889840836
2.0141148567199707	10754528.018682726
2.017486572265625	9998917.484508224
2.0208535194396973	10643449.07543519
2.0242159366607666	11064309.794905663
2.027573823928833	10719749.410910578
2.0309269428253174	10461346.521397227
2.034275770187378	11169040.669426104
2.0376198291778564	11442891.893413747
2.040959596633911	11532490.13572633
2.044294595718384	11530624.6698305
2.0476250648498535	10979625.841261867
2.0509510040283203	10898311.512059566
2.054272413253784	11537397.248541946
2.057589530944824	11627510.458566561
2.0609018802642822	11411763.991519665
2.0642096996307373	11602707.837385267
2.0675129890441895	11802223.60347853
2.0708119869232178	12024033.936936386
2.074106216430664	12217816.372558404
2.0773961544036865	12320941.751648797
2.080681324005127	12414203.672582306
2.0839622020721436	12415448.546163917
2.087238311767578	12421626.351190507
2.090510129928589	12521343.589877516
2.0937774181365967	12606962.077809727
2.0970399379730225	12688208.253740987
2.1002981662750244	12714515.335809015
2.1035518646240234	12823136.416546572
2.1068007946014404	12856031.199924586
2.1100454330444336	12649971.834497623
2.1132853031158447	12436627.077902937
2.116520881652832	12681597.232548675
2.1197516918182373	13029680.967417026
2.1229779720306396	13201886.681605874
2.12619948387146	13263881.277882442
2.1294167041778564	13308040.549200982
2.132629156112671	13378778.580178017
2.1358368396759033	13463743.480155664
2.139039993286133	13519603.07006349
2.1422386169433594	13550574.98086747
2.145432472229004	13585198.763912449
2.1486217975616455	13540678.9492495
2.151806354522705	13361381.371046714
2.1549863815307617	12975773.83586755
2.1581614017486572	13403995.061780829
2.16133189201355	13679738.84659998
2.1644976139068604	13850806.335306313
2.167658567428589	13979709.667362565
2.1708147525787354	13976800.946911694
2.173966407775879	13904421.341429502
2.1771130561828613	14073031.391886082
2.1802549362182617	14220058.168414693
2.183391809463501	14275692.719284764
2.1865241527557373	14308251.344662912
2.1896514892578125	14342679.875351628
2.1927738189697266	14391894.400487801
2.1958916187286377	14174186.226478871
2.1990041732788086	13421166.102239344
2.2021119594573975	13405784.974819515
2.2052149772644043	14052456.41536624
2.208312749862671	14576963.137268588
2.2114057540893555	14712807.546946999
2.214493751525879	14376740.46514494
2.217576742172241	14045211.794493463
2.2206547260284424	14270284.755661815
2.2237277030944824	14047483.269628331
2.2267956733703613	13819777.784144914
2.2298583984375	14191774.84172814
2.2329163551330566	14288024.758774566
2.235969066619873	14551025.716851681
2.2390167713165283	14184587.7916844
2.2420592308044434	13498350.676358758
2.2450966835021973	14008075.305937992
2.248128890991211	13667131.975785883
2.2511560916900635	13171157.489921639
2.254178285598755	12347928.816361684
2.257194995880127	12637450.993395615
2.260206699371338	13651051.928126594
2.2632133960723877	14128759.663983569
2.266214609146118	14423053.008582704
2.2692108154296875	14167825.294418097
2.2722020149230957	14253000.045859927
2.2751877307891846	13855944.71399406
2.278168201446533	13978855.221830392
2.2811436653137207	15027116.25513121
2.284113883972168	13544120.516667873
2.287078857421875	11693164.291821862
2.290038824081421	12734966.801185908
2.2929933071136475	12246386.37675151
2.295942783355713	11736468.058323655
2.298887014389038	12506560.873615673
2.301826238632202	14015031.785474129
2.304760217666626	14949287.226869838
2.3076889514923096	15476846.651536167
2.310612440109253	15729353.708186017
2.3135311603546143	14630060.485949486
2.3164443969726562	12058520.371952832
2.319352865219116	12243981.61148611
2.322256088256836	12286818.862483747
2.3251543045043945	11288659.028421246
2.328047275543213	12061936.3587001
2.330935478210449	12589173.97338257
2.3338186740875244	12994303.078350842
2.3366971015930176	13627348.727617418
2.3395702838897705	13861794.16605901
2.3424389362335205	13678631.638439843
2.3453025817871094	12658010.21109955
2.348161458969116	11594233.970930481
2.351015567779541	12045524.388523962
2.353865146636963	12492252.818227349
2.3567099571228027	12119558.55431655
2.3595502376556396	12606265.234074226
2.3623859882354736	14003552.445675857
2.3652172088623047	14287672.372561097
2.368043899536133	11608035.534858858
2.370866537094116	10296042.44392409
2.3736846446990967	10240720.754126728
2.3764986991882324	10527192.913582876
2.3793084621429443	11413906.166828286
2.3821144104003906	12499152.217215037
2.384916305541992	13223755.313838145
2.387714147567749	13617646.15618854
2.3905084133148193	15642802.88342792
2.393299102783203	16554936.926484829
2.3960859775543213	15760922.735312853
2.398869514465332	13737181.543720074
2.4016497135162354	11677912.90320103
2.4044265747070312	11865751.122427154
2.407200336456299	13681707.7167209
2.409970998764038	14623038.918913417
2.4127390384674072	13711028.761151545
2.415503978729248	11878212.153091734
2.418266534805298	11502452.188191613
2.4210267066955566	11871878.809462138
2.4237842559814453	12014577.239604432
2.426539897918701	11524259.641060246
2.429293394088745	11378859.490898352
2.4320452213287354	12312478.793120198
2.4347951412200928	12552659.52535251
2.4375438690185547	12541204.640211325
2.440291166305542	12817524.117441656
2.443037271499634	13106975.691203834
2.445782423019409	13909376.973422294
2.4485268592834473	14117822.959625324
2.451270818710327	13905973.502627943
2.454014539718628	13997769.763928099
2.4567582607269287	13335051.453445511
2.4595019817352295	13442024.427186705
2.4622461795806885	15046859.04074867
2.4649908542633057	16297728.43222629
2.4677364826202393	15654383.330326246
2.4704833030700684	14816225.150149338
2.473231554031372	14551940.335235983
2.4759814739227295	14313560.728411663
2.4787333011627197	12834209.611603366
