#wavelength	surface flux
0.676892	124.76383005893317
0.678297	130.430927742894
0.679702	136.32565487038943
0.681109	142.465281937341
0.682517	148.85772613305625
0.683926	155.51712148569158
0.685337	162.4520229152025
0.686749	169.65506686834945
0.688164	177.1600314315797
0.689581	184.960430214897
0.691	193.02730131183372
0.692422	200.81992707907597
0.693847	210.01371404311539
0.695274	219.4688975288939
0.696705	229.12108250921312
0.698139	238.98731499748467
0.699576	248.8396495991862
0.701017	260.1062402444064
0.702461	271.251129629375
0.70391	283.06843099365005
0.705362	295.3196362142029
0.706819	307.8653303693678
0.70828	320.81850170701654
0.709745	334.1392630922077
0.711216	349.0510977672746
0.71269	363.80393400248715
0.71417	379.022509744468
0.715655	394.17590288032096
0.717145	407.45047906026963
0.71864	428.34082088191417
0.72014	447.51612282066685
0.721647	465.9138471620555
0.723158	485.6066820091082
0.724676	506.6087838733921
0.726199	528.1478853182573
0.727728	550.334336087575
0.729264	572.8804964012821
0.730805	595.1791399316287
0.732353	622.6313357455268
0.733907	648.349518657794
0.735468	672.9219417081557
0.737035	702.3582764640016
0.738609	735.4169860896234
0.74019	766.0989818613135
0.741777	797.5884506812431
0.743372	831.6090483613019
0.744973	866.6686036714522
0.746582	903.4007967770699
0.748197	940.9882273212955
0.74982	981.5826337449896
0.751451	1022.5131243981327
0.753088	1065.3612023992437
0.754734	1109.9998437707482
0.756386	1156.4977993959342
0.758047	1204.379110724563
0.759715	1253.8715961765786
0.76139	1304.2258385476027
0.763074	1352.89968758079
0.764765	1376.5501667989254
0.766464	1306.7822078235204
0.768172	1443.600465353052
0.769887	1444.848898406453
0.77161	1613.0886898234203
0.773341	1730.7225187664474
0.775081	1809.7475223684853
0.776829	1887.6263904310463
0.778585	1963.6116953555418
0.780349	2018.8836645684403
0.782121	2133.5312907826765
0.783902	2224.892441679528
0.785691	2317.5882724909898
0.787489	2412.932485152416
0.789295	2511.4573862982556
0.79111	2617.6691247914264
0.792933	2725.3102500263403
0.794764	2797.8817558071155
0.796604	2951.8583377511964
0.798453	3078.51669950661
0.80031	3204.6362643695015
0.802176	3336.606801637979
0.804051	3476.106602564952
0.805934	3619.0993719740127
0.807826	3767.6736399195916
0.809727	3900.538347089129
0.811636	4033.9219995176963
0.813554	4202.365257266611
0.81548	4390.0522092756755
0.817416	4558.935611029154
0.81936	4749.256769192173
0.821313	4983.505202385869
0.823274	5123.456365455172
0.825244	5383.3917315960225
0.827223	5580.205277128732
0.829211	5848.309632046332
0.831208	6061.829427761101
0.833213	6337.944534023005
0.835227	6595.6784704681
0.837249	6853.745929288826
0.83928	7124.969409589605
0.841321	7432.280365404288
0.843369	7736.007826628185
0.845427	8036.990039932856
0.847493	8354.645384193878
0.849567	8701.228960663564
0.851651	9058.300680801494
0.853742	9422.645369828257
0.855843	9803.685812585936
0.857952	10199.167015466966
0.86007	10601.756925798309
0.862196	10983.60514096019
0.864331	11410.342319688323
0.866474	11900.969037695535
0.868626	12378.232499052465
0.870786	12855.892439682866
0.872955	13363.91550434361
0.875132	13895.21435443847
0.877317	14444.301219572342
0.879511	15012.324795189614
0.881713	15592.066798770478
0.883923	16193.308870844297
0.886142	16828.99187161007
0.888369	17479.06831301603
0.890604	17984.925599764552
0.892847	18546.733338293023
0.895099	19435.489102291154
0.897358	19246.234025570837
0.899626	20252.513894110944
0.901901	21714.39182737983
0.904185	22651.027594703814
0.906476	23520.38725800146
0.908776	24374.81869867688
0.911083	25327.044148579036
0.913398	26299.765587835092
0.915721	27082.762958642437
0.918051	28044.954193218986
0.92039	28851.263751774353
0.922736	30359.588298320912
0.925089	30807.49993860958
0.927451	31105.352625640182
0.929819	30784.149474971146
0.932195	29711.2769575642
0.934579	28918.842799751452
0.93697	32142.0963872117
0.939369	37603.13835812364
0.941774	39557.73711803968
0.944187	41322.4606444336
0.946607	37687.33457753894
0.949035	39075.5049243904
0.951469	43171.99833274054
0.953911	45989.5406914118
0.956359	43082.38267667069
0.958814	48488.85944375394
0.961277	49673.538784140634
0.963746	53177.80330315345
0.966222	54727.96535322508
0.968705	58758.330454166804
0.971194	58975.51727516016
0.97369	60628.70346252708
0.976193	64009.642098310236
0.978702	66996.18418086781
0.981217	69159.73007584216
0.983739	72240.50796983228
0.986268	74343.77418637459
0.988802	77067.22428966677
0.991343	80274.28085198812
0.99389	82896.74025080225
0.996444	86322.57885221306
0.999003	89034.79642741807
1.00157	91801.32998628131
1.00414	94755.51149972908
1.00672	97837.54883960504
1.0093	100836.20568999162
1.01189	104127.60057169106
1.01448	107449.81091081149
1.01708	110796.62362603679
1.01969	114299.92888298287
1.0223	117838.84706174853
1.02492	121432.63555222518
1.02754	125191.06543207333
1.03017	129002.78009478484
1.0328	132855.95370014524
1.03544	136904.56104709764
1.03808	140997.89089148928
1.04073	145216.69251965848
1.04339	149522.14499826112
1.04604	153894.07574217764
1.04871	158392.38755425272
1.05138	163044.2204255145
1.05405	167808.44069358776
1.05673	172675.44833479205
1.05941	177292.29814941084
1.0621	182800.2022696979
1.06479	188563.72389917096
1.06749	193101.47358559334
1.07019	199080.94533001757
1.07289	204848.3451126029
1.0756	210681.42781484209
1.07832	215761.5266102337
1.08104	222269.20635251416
1.08376	228458.49676396782
1.08649	233776.55499822638
1.08922	240140.35780119855
1.09195	245322.08987607516
1.09469	251167.13570292576
1.09743	248793.66683683763
1.10018	249563.59400845141
1.10293	254661.31614338837
1.10568	268647.3820813241
1.10844	275809.75795776414
1.1112	275199.42168673716
1.11396	253839.64629845016
1.11673	248976.3600671439
1.1195	272226.6999625779
1.12228	242839.3218229299
1.12505	233788.2524925392
1.12783	278749.82427844196
1.13062	325667.35254643776
1.13341	302470.12478178745
1.1362	303513.8916717926
1.13899	361873.5423017996
1.14178	369767.06288826984
1.14458	339319.4515193097
1.14738	308745.74678188027
1.15019	336599.1197431471
1.153	404739.47944588354
1.1558	385533.0859540134
1.15862	436930.46071158047
1.16143	443089.1250055499
1.16425	408448.9129281256
1.16707	464802.5286044544
1.16989	441194.34926839394
1.17271	465042.8902789971
1.17554	492971.87273177656
1.17837	510281.8328613813
1.1812	525871.9365143067
1.18403	542155.1152945514
1.18686	552622.3756194441
1.1897	567241.8188379206
1.19253	585742.3758946755
1.19537	598791.240129342
1.19822	594517.1708057959
1.20106	624347.5735087743
1.2039	639065.3182446384
1.20675	657022.4447107649
1.2096	669833.1883059049
1.21245	674301.8529630916
1.2153	695766.6527906592
1.21815	716298.7682804471
1.221	730123.5913645482
1.22385	744127.5018105995
1.22671	761740.0472966036
1.22957	776960.0550190919
1.23242	792383.4320386001
1.23528	810822.7156267626
1.23814	827929.7118508688
1.241	844053.0329546775
1.24387	861272.695742876
1.24673	877605.7567424637
1.24959	894748.0570643392
1.25245	912464.1547933582
1.25532	929754.7017529494
1.25818	948958.6769499998
1.26105	967034.2788625605
1.26392	985872.0139488154
1.26678	1004203.1893558155
1.26965	1018360.0656735636
1.27252	1034242.3593824329
1.27538	1059654.196216594
1.27825	1079824.7757922872
1.28112	1094359.8557851168
1.28399	1101068.94202008
1.28686	1133567.7012999656
1.28973	1152988.139590809
1.2926	1160602.8321318105
1.29546	1124254.9697845422
1.29833	1167791.3170654704
1.3012	1213311.6180643437
1.30407	1240608.112019328
1.30694	1273534.8322915
1.30981	1286995.649167959
1.31267	1288736.0231996912
1.31554	1311165.490278164
1.31841	1276342.7008350552
1.32128	1353505.8713737652
1.32414	1376980.9118329643
1.32701	1416193.5490371573
1.32987	1398965.1498024948
1.33274	1323472.2254535914
1.3356	1321485.8921252945
1.33847	1000380.7979833296
1.34133	847989.1034045096
1.34419	838029.5007211011
1.34705	904759.3471830188
1.34991	825726.1268515117
1.35277	1026685.1588376232
1.35563	798063.7522914993
1.35849	714053.0257317537
1.36135	755461.4088257715
1.3642	894442.301342779
1.36706	961724.3096061313
1.36991	983969.5407309093
1.37277	1160213.0619504333
1.37562	959602.4805854678
1.37847	1455503.5658774409
1.38132	1232969.8602027418
1.38417	1132817.3129217543
1.38701	951891.8440612131
1.38986	1221472.1720007535
1.39271	1094353.1668981246
1.39555	917340.3603520255
1.39839	1147058.0865445703
1.40123	1030970.402575937
1.40407	1380655.5818393172
1.40691	1268975.9165029002
1.40974	1429393.7436520448
1.41258	1496804.8266481254
1.41541	1285125.3737950407
1.41824	1032105.4651655329
1.42107	1065213.383121902
1.4239	913702.0284882048
1.42673	1290384.1299807264
1.42955	1577591.6204654707
1.43237	1401450.575729982
1.43519	1481194.696930119
1.43801	1568344.2756204994
1.44083	1414930.0487472718
1.44365	1630765.3914293002
1.44646	1617032.3577177536
1.44927	1655667.3665153482
1.45208	1791844.7303875745
1.45489	1559201.2881570081
1.45769	2273438.413049043
1.4605	2426878.637987729
1.4633	2052124.8955216294
1.4661	2225226.7364614774
1.4689	2211876.297992244
1.47169	2413149.9750459683
1.47449	2217593.210703457
1.47728	2426623.5371629675
1.48007	2464546.496446007
1.48286	2367174.889624172
1.48564	2520410.348814306
1.48842	2701099.515248071
1.4912	2806795.118355179
1.49398	2842097.2152116797
1.49676	2809028.798922241
1.49953	2922180.2030196763
1.5023	2832994.450477627
1.50507	3097298.3477439103
1.50784	3130538.8391122776
1.51061	3094612.477113221
1.51337	3206286.431282928
1.51613	3231685.7392718536
1.51888	3222405.8746505636
1.52164	3274294.2318071467
1.52439	3358141.804810984
1.52714	3170920.1667023962
1.52989	3259771.8868759745
1.53263	3519296.237478676
1.53538	3703538.28565089
1.53812	3760939.3539883844
1.54086	3771446.9903813237
1.54359	3808483.5054735197
1.54632	3888330.4242507643
1.54905	3940405.33068177
1.55178	3987969.3466806808
1.5545	4013641.970404787
1.55723	4051764.303654988
1.55995	4103893.6761132437
1.56266	4143042.6351166056
1.56538	4213050.288024164
1.56809	4289058.108263743
1.5708	4302935.130638897
1.57351	4359378.035181503
1.57621	4429431.974761885
1.57891	4455974.817594882
1.58161	4498023.03620283
1.5843	4539634.331070825
1.587	4563608.628771496
1.58969	4621877.875153054
1.59238	4668553.655646703
1.59506	4715396.701693359
1.59774	4764040.681340116
1.60042	4812316.214274483
1.6031	4853965.563595451
1.60577	4891977.364860643
1.60844	4932366.343983253
1.61111	4985538.292440961
1.61378	5029160.890070742
1.61644	5071757.907001153
1.6191	5109346.664136725
1.62176	5081207.311492175
1.62441	4938235.524953062
1.62707	4949555.71610703
1.62971	4929509.002840392
1.63236	4841611.269828527
1.635	5105046.052234909
1.63764	5345617.1841618335
1.64028	5389496.438075409
1.64292	5446142.730863229
1.64555	5442235.852655934
1.64818	5447292.352305213
1.65081	5489190.980801924
1.65343	5457193.913144835
1.65605	5209391.023338359
1.65867	5467928.424482847
1.66128	5535825.069776815
1.6639	5548042.836933576
1.66651	4772960.121503881
1.66911	4844386.573131986
1.67172	5722742.58160437
1.67432	5943047.134889547
1.67692	5900653.239182489
1.67951	5924998.990106609
1.68211	5684797.550307269
1.6847	5630304.470964821
1.68728	6092068.580731425
1.68987	6155581.873530925
1.69245	5583168.712330593
1.69503	5319318.243384289
1.6976	5783891.221909641
1.70018	5178658.896564425
1.70275	5033630.466315695
1.70531	5128057.034520987
1.70788	5533670.474325835
1.71044	6222220.056020209
1.713	6454089.359620034
1.71556	6553765.907473567
1.71811	6547342.524240991
1.72066	6298053.095519891
1.72321	5721280.151296083
1.72575	5671121.065443457
1.7283	5751520.651289834
1.73084	5733325.150880022
1.73337	5611875.53459751
1.73591	5532706.274475161
1.73844	6186338.545394065
1.74097	6233874.539550939
1.74349	6292482.1988239065
1.74602	6706478.982985414
1.74854	6956036.207305805
1.75105	6809634.6496086605
1.75357	6348246.0689256815
1.75608	5924320.146018166
1.75859	6004131.964238456
1.7611	6029573.479838929
1.7636	6060740.978491484
1.7661	5507042.002461456
1.7686	5454725.949835929
1.7711	6224035.126148451
1.77359	5508380.493262236
1.77608	4835394.502270379
1.77857	5410443.723077351
1.78105	5476283.450027239
1.78354	4840797.75801051
1.78602	4797411.261783946
1.78849	4763175.909996396
1.79097	4275041.736666648
1.79344	4886936.076215128
1.79591	5314694.131502788
1.79837	5577878.052920009
1.80084	4594555.658380167
1.8033	4899368.289106021
1.80576	4604885.875970413
1.80821	3635099.959627131
1.81067	3261046.964833168
1.81312	4272830.770007832
1.81557	5980599.918629491
1.81801	5722714.418022696
1.82046	5476077.208430927
1.8229	6313473.7709406605
1.82533	6799884.348666458
1.82777	6469949.198624624
1.8302	5960806.132678465
1.83263	5262502.962969382
1.83506	5634019.338575612
1.83749	5968547.07893317
1.83991	5335501.81758852
1.84233	5499403.5353763085
1.84475	5938153.608850765
1.84716	4816803.280561309
1.84957	4918311.722417028
1.85198	6444401.442881178
1.85439	6735639.202189603
1.8568	5709782.498941384
1.8592	4769890.623559475
1.8616	3617330.456734949
1.864	3332668.836055157
1.86639	3953333.542797871
1.86878	3944782.4761818093
1.87118	4310218.345389174
1.87356	4301012.800721723
1.87595	5232514.084767198
1.87833	6636106.026462616
1.88071	6683367.104006103
1.88309	6003972.621643053
1.88547	5370594.942242568
1.88784	5423281.916863964
1.89021	5683793.7984508425
1.89258	5884985.771695996
1.89494	6180414.590873424
1.89731	6369833.990956681
1.89967	5894894.756984195
1.90203	5908843.441186245
1.90439	6571664.024809718
1.90674	7637893.799860467
1.90909	8302103.8710454125
1.91144	6987074.965863394
1.91379	5882569.052819449
1.91613	7022652.198517062
1.91848	8214899.650555962
1.92082	7312818.798189799
1.92315	5722092.276813153
1.92549	6489062.396715373
1.92782	7255393.984182385
1.93015	6538182.153934386
1.93248	6994686.514231294
1.93481	7633541.708762074
1.93713	5863996.374797675
1.93945	3923138.7013407326
1.94177	4786677.086280013
1.94409	5559142.918377066
1.94641	5568963.263245303
1.94872	5586257.441134515
1.95103	6402981.427479462
1.95334	6650624.186589885
1.95564	5138380.126976127
1.95795	4186628.1398829054
1.96025	4151712.588287601
1.96255	5380534.2749552615
1.96484	7273345.506069906
1.96714	8115604.500159081
1.96943	7465324.374947775
1.97172	7660871.951427455
1.97401	8169779.403701394
1.97629	7821836.870082656
1.97858	7955535.614467985
1.98086	7768601.056919918
1.98314	8093481.177198589
1.98541	8910773.34345325
1.98769	8486438.781895047
1.98996	7525756.282388483
1.99223	7688474.157343952
1.9945	8382116.91720876
1.99677	8529509.735037025
1.99903	8030549.619945593
2.00129	7780069.994369619
2.00355	8554732.788775278
2.00581	9471062.514504416
2.00806	9581619.53245529
2.01031	9945190.933363413
2.01256	10776964.816288091
2.01481	10698780.015513368
2.01706	9748467.749619603
2.0193	9834892.894528912
2.02154	11034338.944196595
2.02378	11546214.713823069
2.02602	11230950.936877094
2.02825	10835069.219567278
2.03049	10616862.529851103
2.03272	11179909.035342036
2.03494	11915647.24507308
2.03717	12103464.207010265
2.03939	12095840.490592472
2.04162	12128004.65103892
2.04384	12200600.886928728
2.04605	11954604.105431233
2.04827	11199222.670163503
2.05048	11069018.007485516
2.05269	11694681.702288724
2.0549	12117846.44788166
2.05711	12234973.858668443
2.05931	12000374.078703599
2.06151	11777726.853988703
2.06371	11889316.33064159
2.06591	12097937.29961094
2.06811	12293255.219429748
2.0703	12522916.131222747
2.07249	12791352.122229364
2.07468	12930468.171968397
2.07686	13006084.512077514
2.07905	13176931.755839452
2.08123	13291062.981325537
2.08341	13238973.576215869
2.08559	13125718.995291004
2.08776	13155471.973764492
2.08994	13253043.716477815
2.09211	13314834.299232773
2.09428	13425970.879352413
2.09645	13511274.50508876
2.09861	13477072.86343035
2.10077	13452171.02965164
2.10293	13551658.214092039
2.10509	13666924.110623803
2.10725	13609979.00171595
2.1094	13334797.399550105
2.11155	12937238.260060763
2.1137	12765857.808144342
2.11585	13017087.927764775
2.11799	13429864.313072773
2.12013	13792763.008981552
2.12227	14002869.12276086
2.12441	14072512.378581993
2.12655	14098754.930239584
2.12868	14116936.070120722
2.13081	14148999.940747362
2.13294	14216353.226027327
2.13507	14290658.212241972
2.13719	14341769.506446488
2.13931	14364068.128552962
2.14143	14352062.325708266
2.14355	14346766.965107339
2.14567	14344818.951796403
2.14778	14230915.531334614
2.14989	14022729.15621666
2.152	13635663.588026453
2.1541	13036143.052082716
2.15621	13094225.990068825
2.15831	13808000.858978288
2.16041	14112150.613913871
2.16251	14275706.399390751
2.1646	14517838.121737896
2.1667	14668828.167247517
2.16879	14728825.815848475
2.17087	14624695.433236307
2.17296	14418628.323350824
2.17504	14426352.016945364
2.17713	14673226.039197411
2.1792	14886100.64114476
2.18128	14950624.368792208
2.18336	14922966.48607251
2.18543	14921392.790120926
2.1875	14951495.299394537
2.18957	14988904.861427575
2.19163	15032759.21537185
2.1937	14972843.603752235
2.19576	14527782.247404912
2.19782	13355105.550440898
2.19987	12358618.31343509
2.20193	12396492.03531601
2.20398	13177097.464963969
2.20603	14207793.908657989
2.20808	14978387.755261328
2.21012	15312681.711804835
2.21217	15248449.908770882
2.21421	14682181.053726675
2.21625	13926469.133662207
2.21828	13758892.741875602
2.22032	14084872.482457073
2.22235	14119304.695991306
2.22438	13726555.93969244
2.22641	13489709.97122649
2.22843	13645811.511762094
2.23046	13693910.436105791
2.23248	13624010.778783394
2.2345	13989068.476857739
2.23651	14367866.486565128
2.23853	13812116.953287575
2.24054	12528120.023688966
2.24255	12192153.994293168
2.24456	12933591.304820256
2.24657	13018839.95103121
2.24857	12471634.695670916
2.25057	12061330.853769934
2.25257	11861226.023881413
2.25457	11440404.53918319
2.25656	11548447.260241142
2.25856	12188757.004558576
2.26055	12523122.917961182
2.26254	12623663.109706523
2.26453	12966053.418069504
2.26651	13162381.215524044
2.2685	13141565.467208998
2.27048	13177132.185316097
2.27246	13298389.264305297
2.27443	12746887.548866108
2.27641	12087107.78731427
2.27838	12646143.386867864
2.28036	14060113.582906362
2.28233	14326090.473607084
2.28429	12531703.305486059
2.28626	10747205.994807882
2.28823	11028633.324408289
2.29019	12001061.531678274
2.29215	11702992.169549484
2.29411	10791252.101599064
2.29607	10152630.995391022
2.29802	10154247.663760718
2.29998	10764237.816835051
2.30193	12166523.22300381
2.30388	13501961.068873284
2.30583	14348633.480957305
2.30778	14547653.777606217
2.30972	14595850.778799983
2.31167	14652868.737196663
2.31361	13482460.593064763
2.31555	11000732.887507757
2.31749	9715230.481886914
2.31943	10309202.63469121
2.32137	10617244.497972405
2.32331	9660215.388295148
2.32524	8845121.511678534
2.32718	9199301.759799447
2.32911	9631865.145116715
2.33104	9902720.30964526
2.33297	10299787.072090564
2.3349	10881932.374001725
2.33683	11301984.370812522
2.33876	11506500.111774035
2.34068	11296878.117615828
2.34261	10945608.354023146
2.34453	10491413.909257865
2.34646	9669590.251199456
2.34838	9452602.065276805
2.3503	9692271.110726684
2.35223	10486201.829146963
2.35415	11004539.994840309
2.35607	11286334.033417102
2.35799	11619254.765543278
2.35991	12252044.97964348
2.36183	13164035.774996819
2.36375	14104235.667987261
2.36566	13786117.812165063
2.36758	11467304.424791032
2.3695	9115247.87010212
2.37142	8329161.053680613
2.37334	7965247.138292777
2.37526	7787008.003051249
2.37718	8272958.416527495
2.3791	9671203.091783918
2.38101	11034934.830397831
2.38293	11928872.140566863
2.38485	11630776.84356407
2.38677	11469023.050236437
2.3887	12716263.740484305
2.39062	14787491.235786265
2.39254	15527815.803571729
2.39446	14771628.593299996
2.39639	12787191.621989949
2.39831	10475122.55312344
2.40024	8529579.884404661
2.40216	7466620.740100773
2.40409	7544601.982538848
2.40602	8726900.842780387
2.40795	10340039.725224575
2.40989	11548955.599188194
2.41182	11771889.180491991
2.41376	10791310.841507887
2.4157	9521567.819144413
2.41764	8482839.48593024
2.41958	8176945.181389929
2.42152	8198424.4277807195
2.42347	8432401.557217482
2.42542	7986385.362195128
