#wavelength	surface flux
0.7	1537.0873029280397
0.7001166666666666	1541.8553493321997
0.7002333527777778	1546.6810855028307
0.700350058336574	1551.6498044618224
0.7004667833462966	1556.5304341219664
0.7005835278101878	1561.3453722583695
0.7007002917314895	1566.027509778491
0.7008170751134447	1570.6877113622904
0.7009338779592968	1575.3441966902653
0.7010507002722901	1580.0117220825528
0.7011675420556689	1584.6934136599702
0.701284403312678	1589.3931857149112
0.7014012840465635	1594.099333700072
0.7015181842605713	1598.710697481918
0.701635103957948	1603.2123918470822
0.701752043141941	1607.4573991220407
0.701869001815798	1612.2707241051448
0.7019859799827672	1617.4794110552452
0.7021029776460976	1622.0473279463608
0.7022199948090387	1626.6050903982327
0.7023370314748403	1631.534664803046
0.7024540876467528	1636.4923777997035
0.702571163328027	1641.4827246709285
0.7026882585219152	1646.1943013983898
0.7028053732316688	1650.8287881556562
0.7029225074605406	1655.7447188718202
0.7030396612117841	1660.5450783960978
0.7031568344886527	1665.1187890623032
0.7032740272944008	1670.2093693291677
0.7033912396322832	1675.601791725393
0.7035084715055552	1680.7413948989606
0.7036257229174727	1685.7217691672865
0.7037429938712924	1690.206190246667
0.7038602843702709	1695.1340294896406
0.7039775944176659	1700.4813582948752
0.7040949240167356	1705.4331494298322
0.7042122731707383	1710.3214123743626
0.7043296418829335	1715.4608168211378
0.7044470301565806	1720.4850384453782
0.70456443799494	1725.3364711053293
0.7046818654012724	1730.4225158511392
0.7047993123788394	1735.6109885157648
0.7049167789309024	1740.5101700361054
0.7050342650607243	1745.5293507768847
0.7051517707715678	1750.8430314686848
0.7052692960666963	1756.1081478450506
0.705386840949374	1761.3397194493539
0.7055044054228656	1766.4728097793584
0.7056219894904361	1771.6516024531702
0.7057395931553511	1777.0807087490298
0.705857216420877	1782.4549003203342
0.7059748592902804	1787.7710456578066
0.7060925217668288	1792.9715461230842
0.70621020385379	1798.152841492331
0.7063279055544321	1803.457184554278
0.7064456268720246	1808.7172908186046
0.7065633678098366	1813.9069669906887
0.7066811283711383	1819.0912637965966
0.7067989085592001	1824.2736046649236
0.7069167083772933	1829.4818392431873
0.7070345278286895	1834.6468890710928
0.707152366916661	1839.7059484513854
0.7072702256444803	1844.4925511215363
0.7073881040154211	1849.0945451298269
0.7075060020327569	1855.3391967479797
0.7076239196997625	1861.6289937552083
0.7077418570197124	1867.368854788019
0.7078598139958823	1872.9274734621642
0.7079777906315483	1878.3098801215638
0.7080957869299869	1883.7446610951094
0.7082138028944751	1889.2304534159487
0.7083318385282908	1895.005379326714
0.7084498938347124	1900.650858082097
0.708567968817018	1906.1190915131253
0.7086860634784875	1911.12577152176
0.7088041778224007	1915.9211877410544
0.7089223118520377	1919.6277429414886
0.7090404655706796	1924.7052701349087
0.709158638981608	1932.4149675471047
0.709276832088105	1938.531864056501
0.7093950448934531	1943.791492779352
0.7095132774009353	1946.0055280165936
0.7096315296138355	1949.8822729338779
0.7097498015354378	1958.6993761970427
0.7098680931690269	1966.0842718090496
0.7099864045178884	1972.413311479395
0.7101047355853081	1978.6310152648214
0.7102230863745722	1984.7643090803845
0.7103414568889679	1990.60619932639
0.7104598471317828	1996.4123215308664
0.7105782571063047	2002.183464314075
0.7106966868158224	2007.4112863645146
0.710815136263625	2012.6646290266217
0.7109336054530023	2018.9228315763992
0.7110520943872445	2025.1396914262752
0.7111706030696424	2031.3035575946685
0.7112891315034873	2037.404156257899
0.7114076796920712	2043.4709768272533
0.7115262476386865	2049.3426416921275
0.7116448353466263	2055.163161317973
0.711763442819184	2060.898895081048
0.711882070059654	2066.8560938589235
0.7120007170713306	2072.911197037717
0.7121193838575091	2078.7488521108485
0.7122380704214853	2084.6763139710833
0.7123567767665555	2090.7929054844035
0.7124755028960166	2096.718221273418
0.7125942488131658	2102.5344228290865
0.7127130145213015	2108.375743568193
0.7128318000237216	2114.3072016171172
0.7129506053237256	2120.4802237719914
0.7130694304246129	2126.349190546935
0.7131882753296837	2132.002054170216
0.7133071400422386	2137.4934899587997
0.7134260245655789	2143.01715423596
0.7135449289030065	2148.716911240829
0.7136638530578235	2155.773665546971
0.7137827970333332	2164.0013357491066
0.7139017608328388	2170.207612674009
0.7140207444596443	2176.1167613098337
0.7141397479170543	2182.23458241159
0.7142587712083737	2188.100674143465
0.7143778143369084	2193.7085827769106
0.7144968773059646	2201.0738900486253
0.7146159601188489	2208.6430620452556
0.7147350627788687	2214.9231328550472
0.7148541852893318	2221.1632899700267
0.7149733276535467	2227.3553908314
0.7150924898748222	2233.34681553127
0.715211671956468	2239.41310588364
0.7153308739017941	2246.6968793299343
0.715450095714111	2253.6902339945946
0.71556933739673	2260.282268817043
0.7156885989529628	2265.7705718598986
0.7158078803861218	2270.9709355674386
0.7159271816995193	2277.4951788246262
0.7160465028964692	2283.4718211520226
0.7161658439802853	2288.590132278007
0.7162852049542819	2291.968504500208
0.7164045858217744	2294.6086450678754
0.716523986586078	2296.226498887465
0.7166434072505089	2295.2630311528133
0.716762847818384	2289.777847942666
0.7168823082930204	2298.0025253764575
0.7170017886777359	2312.4383092888447
0.7171212889758488	2328.189871413713
0.7172408091906781	2340.5564932928073
0.7173603493255433	2346.3902956340385
0.7174799093837642	2349.6419380867837
0.7175994893686615	2351.612170359133
0.7177190892835562	2362.3717437754412
0.7178387091317702	2373.7903467210526
0.7179583489166254	2386.506054606972
0.7180780086414448	2394.923804116728
0.7181976883095517	2401.046637352243
0.7183173879242699	2409.011221559892
0.718437107488924	2416.0802093403668
0.7185568470068389	2421.0725009864477
0.7186766064813399	2424.494548685274
0.7187963859157535	2427.0320205868675
0.7189161853134061	2440.1624061622097
0.719036004677625	2452.252640290528
0.7191558440117378	2461.1507645039787
0.7192757033190732	2468.300662756537
0.7193955826029597	2474.4310179421664
0.7195154818667269	2480.8187371735203
0.7196354011137046	2487.6547049036913
0.7197553403472235	2495.5361977749567
0.7198752995706147	2503.215847272865
0.7199952787872098	2510.77626565007
0.720115278000341	2516.7515283447533
0.7202352972133411	2521.8311807493337
0.7203553364295432	2524.915245633002
0.7204753956522815	2531.9718044775027
0.7205954748848902	2541.382889616592
0.7207155741307044	2549.730727958738
0.7208356933930594	2558.218210006074
0.7209558326752915	2567.1328157957955
0.7210759919807375	2574.982142755862
0.7211961713127342	2582.212659990569
0.7213163706746197	2588.271274093404
0.7214365900697322	2594.91713882879
0.7215568295014103	2602.992475480016
0.721677088972994	2611.414849962539
0.7217973684878227	2620.0322509477915
0.7219176680492374	2625.0518317496744
0.7220379876605789	2631.3706883466193
0.722158327325189	2640.6797325970224
0.7222786870464099	2649.767533813767
0.7223990668275843	2658.738837967221
0.7225194666720555	2665.8795775233543
0.7226398865831676	2673.2781562610944
0.7227603265642646	2681.225147175105
0.722880786618692	2687.240888588935
0.7230012667497951	2692.349101539636
0.7231217669609201	2701.2884368656646
0.7232422872554135	2709.0835999883857
0.7233628276366229	2714.7601903841205
0.7234833881078956	2722.532625301305
0.7236039686725803	2731.0383324099353
0.7237245693340255	2733.6081141055874
0.7238451900955812	2739.649849342193
0.7239658309605971	2751.4881779563507
0.7240864919324239	2761.8932531367254
0.7242071730144127	2771.6296709778967
0.724327874209915	2779.7327215592127
0.7244485955222832	2787.5404266294263
0.7245693369548704	2794.9090014298154
0.7246900985110294	2803.1816166377016
0.7248108801941148	2811.8418571018274
0.7249316820074803	2821.3010815769503
0.7250525039544815	2829.806891733183
0.7251733460384739	2837.071281100828
0.7252942082628137	2843.9591700678116
0.7254150906308574	2850.6897537766686
0.7255359931459625	2857.0598633032123
0.7256569158114868	2864.965870904984
0.7257778586307888	2874.599542853771
0.7258988216072273	2881.6557914689124
0.7260198047441617	2888.4919481556803
0.7261408080449525	2897.1517015694026
0.72626183151296	2902.7135921260337
0.7263828751515454	2905.3089169224563
0.7265039389640706	2917.836714724293
0.726625022953898	2930.6307766185637
0.7267461271243904	2938.1572307168567
0.7268672514789111	2945.7413544452183
0.7269883960208241	2953.3719420437355
0.7271095607534942	2963.6804742367453
0.7272307456802866	2974.1800591974015
0.7273519508045666	2984.404230307902
0.7274731761297006	2992.8082245614423
0.7275944216590555	3000.017129572495
0.7277156873959987	3006.989041317207
0.7278369733438982	3013.07746050301
0.727958279506122	3017.1754256088752
0.7280796058860397	3028.024626568675
0.7282009524870207	3042.3843017960303
0.7283223193124353	3052.978058066037
0.7284437063656539	3062.9769264909146
0.7285651136500483	3071.9168338187983
0.7286865411689898	3079.5594194442324
0.7288079889258514	3086.4005653167883
0.7289294569240056	3089.2791023053946
0.7290509451668262	3094.9912000076756
0.7291724536576875	3104.627832016329
0.7292939823999636	3114.4764363693444
0.7294155313970303	3124.4631389584915
0.7295371006522632	3134.9620950309913
0.7296586901690385	3143.8687846255034
0.7297802999507332	3151.068336971036
0.7299019300007252	3159.831227280266
0.7300235803223919	3167.6904606172525
0.7301452509191123	3170.5299386084334
0.7302669417942654	3176.079652587379
0.7303886529512311	3183.846870074926
0.7305103843933897	3181.5711923239633
0.7306321361241218	3186.000032685713
0.7307539081468093	3212.0103894977533
0.7308757004648336	3230.05123013398
0.7309975130815778	3243.2392178905766
0.7311193460004248	3251.361007950353
0.7312411992247582	3260.407023593949
0.7313630727579622	3271.468342167353
0.7314849666034219	3280.9632035153672
0.7316068807645224	3289.6083727722034
0.7317288152446498	3295.419728853811
0.7318507700471907	3301.5731116174743
0.7319727451755319	3308.205797723366
0.732094740633061	3321.400922491081
0.7322167564231665	3335.2203966865295
0.7323387925492371	3341.089949980345
0.7324608490146619	3350.6593244445785
0.732582925822831	3363.9515451582115
0.7327050229771347	3374.4264588536967
0.7328271404809642	3383.89539323692
0.7329492783377112	3391.443461297059
0.7330714365507675	3401.0629739717683
0.7331936151235259	3412.1542169580102
0.7333158140593796	3420.8096047425793
0.7334380333617229	3428.220358501865
0.7335602730339499	3433.1712986126568
0.7336825330794556	3444.8111197991298
0.7338048135016354	3459.4879598235902
0.7339271143038857	3469.6584969458645
0.734049435489603	3477.611502043995
0.7341717770621846	3482.293348186303
0.7342941390250283	3492.6308312421406
0.7344165213815324	3504.2134770759844
0.734538924135096	3512.900271049996
0.7346613472891185	3523.070752390767
0.734783790847	3534.718856323401
0.7349062548121412	3541.0162151811205
0.7350287391879431	3544.2265536479094
0.7351512439778078	3540.0271041532487
0.7352737691851374	3553.381009543763
0.735396314813335	3578.3410172958957
0.7355188808658037	3589.7021431696885
0.7356414673459482	3601.4097743531997
0.7357640742571725	3614.6187783793926
0.7358867016028818	3624.5512378209323
0.7360093493864824	3633.2055193058436
0.7361320176113801	3642.818465084072
0.736254706280982	3651.785125548972
0.7363774153986956	3659.948029618362
0.7365001449679286	3663.71726545586
0.7366228949920899	3667.6624499260924
0.7367456654745885	3676.697402042805
0.7368684564188344	3692.4586957621914
0.7369912678282374	3713.5610735182368
0.7371140997062088	3726.835625515022
0.7372369520561599	3738.612947717004
0.7373598248815024	3748.299703383188
0.7374827181856494	3758.1751655815888
0.7376056319720137	3768.192143344579
0.7377285662440091	3779.2310673221477
0.7378515210050496	3789.0697035824664
0.7379744962585505	3797.2429547348775
0.738097492007927	3807.5174667641186
0.7382205082565949	3818.013189838805
0.738343545007971	3826.8613088903585
0.7384666022654723	3836.891038396162
0.7385896800325165	3847.9229409175978
0.7387127783125219	3859.934352530687
0.7388358971089073	3871.6686928402264
0.7389590364250921	3882.509344612196
0.7390821962644963	3893.3813236582496
0.7392053766305403	3904.26162963131
0.7393285775266454	3914.964066520601
0.7394517989562333	3925.789556631229
0.7395750409227259	3936.7840900723413
0.7396983034295463	3946.6845563666784
0.739821586480118	3955.7101989260377
0.7399448900778645	3961.918774615243
0.7400682142262109	3973.1526007485095
0.740191558928582	3988.448013672871
0.7403149241884034	3998.6998103999986
0.7404383100091014	4008.7798037298776
0.7405617163941028	4019.299444430875
0.7406851433468352	4030.717704059448
0.7408085908707264	4042.1438839589073
0.7409320589692048	4048.259146304281
0.7410555476456997	4059.179327378094
0.7411790569036406	4075.9780182672384
0.7413025867464579	4087.436652676685
0.7414261371775823	4098.025002249919
0.7415497082004452	4109.430466208989
0.7416732998184786	4120.476570479419
0.741796912035115	4131.276609645502
0.7419205448537874	4140.19491352812
0.7420441982779297	4150.2441352250535
0.742167872310976	4162.412514423676
0.7422915669563612	4176.191317504172
0.7424152822175206	4190.104898749177
0.7425390180978901	4200.955491032231
0.7426627746009065	4210.7341045023395
0.7427865517300065	4219.4710515464885
0.7429103494886282	4233.96876234578
0.7430341678802096	4248.510762301198
0.7431580069081896	4261.32283277501
0.7432818665760077	4273.263124830349
0.7434057468871037	4284.719062184147
0.7435296478449182	4295.395649884294
0.7436535694528923	4306.007534405937
0.7437775117144678	4316.533862165573
0.7439014746330868	4326.059017771883
0.7440254582121922	4335.952655422548
0.7441494624552276	4348.12855488294
0.7442734873656368	4359.169919570068
0.7443975329468645	4369.431374706684
0.7445215992023557	4380.760667552877
0.7446456861355559	4392.820882877384
0.7447697937499119	4406.097262534157
0.7448939220488703	4419.162684289202
0.7450180710358784	4432.223659730333
0.7451422407143843	4445.6504948624815
0.7452664310878367	4458.27840223242
0.7453906421596846	4470.211715391074
0.7455148739333779	4482.372667213084
0.7456391264123667	4494.6541743739435
0.7457633996001021	4507.155643964404
0.7458876935000356	4518.72735440645
0.7460120081156189	4529.881927541083
0.7461363434503048	4540.756984284876
0.7462606995075466	4552.457643960224
0.7463850762907978	4565.024319995864
0.7465094738035127	4577.747728154624
0.7466338920491467	4590.631936309455
0.746758331031155	4603.885872475606
0.7468827907529935	4616.315392943624
0.7470072712181189	4628.411248374876
0.7471317724299886	4641.80497802232
0.7472562943920602	4654.704594503252
0.7473808371077922	4667.00470084189
0.7475054005806435	4677.516485333822
0.7476299848140736	4688.5338368302655
0.7477545898115426	4702.170071310869
0.7478792155765113	4714.925804645384
0.7480038621124406	4727.086665546299
0.7481285294227926	4736.407334882703
0.7482532175110298	4748.203985802081
0.7483779263806148	4763.326288561642
0.7485026560350116	4776.190832650248
0.7486274064776842	4788.790840290671
0.748752177712097	4802.172416544853
0.7488769697417158	4815.77928031284
0.749001782570006	4829.519362688571
0.7491266162004343	4842.732921812822
0.7492514706364677	4855.770025788193
0.7493763458815739	4868.554540958527
0.7495012419392209	4881.532620505655
0.7496261588128773	4894.42750493579
0.7497510965060128	4906.8333167037745
0.7498760550220971	4919.558848646974
0.7500010343646007	4932.482223137853
0.7501260345369949	4944.381443122455
0.750251055542751	4956.629171319191
0.7503760973853414	4969.381044065489
0.7505011600682389	4982.424129127455
0.750626243594917	4995.230325825672
0.7507513479688495	5006.880792070777
0.7508764731935109	5019.552544334755
0.7510016192723765	5032.879881906734
0.7511267862089218	5046.580348455793
0.7512519740066232	5060.094690739199
0.7513771826689577	5073.34583850624
0.7515024121994025	5086.555264015363
0.7516276626014359	5099.722775403799
0.751752933878536	5112.771365178273
0.7518782260341824	5125.327818650935
0.7520035390718548	5137.610972973245
0.7521288729950334	5150.655659437275
0.7522542278071992	5163.688450459721
0.7523796035118337	5176.704956438283
0.7525050001124189	5190.179450551227
0.7526304176124378	5203.435420637357
0.7527558560153731	5215.72734908504
0.752881315324709	5229.274584754375
0.7530067955439299	5243.456287996096
0.7531322966765205	5256.797256915874
0.7532578187259665	5270.1603295170025
0.7533833616957542	5283.5489120483335
0.75350892558937	5296.242744812768
0.7536345104103016	5308.899850060879
0.7537601161620366	5321.737593965017
0.7538857428480638	5334.319984344711
0.7540113904718717	5346.778387439175
0.7541370590369503	5359.175763890112
0.7542627485467898	5371.765881743701
0.7543884590048808	5384.549389699001
0.7545141904147151	5398.5858410053015
0.7546399427797842	5412.385673235638
0.7547657161035808	5425.402688240576
0.754891510389598	5438.521514479523
0.7550173256413296	5451.626690839821
0.7551431618622698	5464.401038533922
0.7552690190559135	5477.138396887788
0.7553948972257561	5489.845658229021
0.7555207963752938	5502.600154157353
0.755646716508023	5515.376235057665
0.755772657627441	5528.1842098773
0.7558986197370455	5540.936341272631
0.756024602840335	5553.596894989886
0.7561506069408084	5565.939634527699
0.7562766320419653	5578.509372736864
0.7564026781473054	5591.217586587462
0.75652874526033	5603.530351403574
0.7566548333845401	5615.81172230401
0.7567809425234375	5628.051670481294
0.7569070726805247	5640.329599059897
0.7570332238593047	5652.561690907327
0.7571593960632813	5664.643971813404
0.7572855892959586	5676.056170134077
0.7574118035608413	5687.185757882601
0.7575380388614347	5698.650555717304
0.7576642952012449	5710.136989337492
0.7577905725837782	5721.644349455219
0.7579168710125422	5732.756191335438
0.7580431904910444	5743.965325302032
0.7581695310227928	5755.4217773832615
0.7582958926112967	5766.556974678798
0.7584222752600652	5777.553160093832
0.7585486789726085	5788.37276240326
0.7586751037524372	5798.784209158724
0.7588015496030628	5808.908673765469
0.7589280165279966	5818.34708492542
0.7590545045307512	5827.744289993838
0.7591810136148396	5837.0865539294855
0.7593075437837755	5846.341786436421
0.7594340950410726	5855.394117104034
0.7595606673902461	5863.935893310875
0.7596872608348112	5871.9859369522155
0.7598138753782836	5879.803141041377
0.75994051102418	5887.525306825749
0.7600671677760173	5895.11908545915
0.7601938456373134	5902.59926110184
0.7603205446115863	5908.826689575238
0.7604472647023548	5914.625072096327
0.7605740059131385	5919.808960255636
0.7607007682474575	5924.407732122888
0.7608275517088319	5928.773243916732
0.7609543563007835	5932.841063830819
0.7610811820268336	5935.969643922362
0.7612080288905045	5938.468933772889
0.7613348968953197	5939.469786866982
0.7614617860448022	5939.923061480774
0.7615886963424764	5939.79916377908
0.7617156277918667	5938.318300014545
0.7618425803964988	5936.328527417173
0.7619695541598982	5933.593289684674
0.7620965490855914	5929.546126888331
0.7622235651771058	5924.630033711465
0.7623506024379685	5917.716977790467
0.7624776608717082	5909.292009732445
0.7626047404818536	5899.82691168914
0.7627318412719337	5888.356731763937
0.762858963245479	5875.3737900774
0.7629861064060198	5860.641922142504
0.7631132707570876	5842.50758122955
0.7632404563022137	5823.008235447061
0.7633676630449308	5801.479706870284
0.7634948909887717	5777.071272052271
0.7636221401372697	5750.983447718198
0.7637494104939593	5721.591413718328
0.7638767020623748	5689.626555848398
0.7640040148460518	5655.776818797584
0.7641313488485262	5616.221473816925
0.7642587040733344	5574.13270911931
0.7643860805240132	5529.081453187709
0.7645134782041005	5481.127383317648
0.7646408971171346	5431.108653437429
0.764768337266654	5377.481375532689
0.7648957986561985	5322.410356827983
0.7650232812893079	5265.765714520189
0.7651507851695227	5204.23159839952
0.7652783103003843	5130.083726679946
