#wavelength	surface flux
0.7	17613.695274446865
0.7001166666666666	17625.182007999185
0.7002333527777778	17658.60937642821
0.700350058336574	17746.86627762747
0.7004667833462966	17818.12982132967
0.7005835278101878	17876.684215681595
0.7007002917314895	17926.62683044298
0.7008170751134447	17974.513253723966
0.7009338779592968	18018.621618277106
0.7010507002722901	18056.250434533395
0.7011675420556689	18085.42405817085
0.701284403312678	18139.59791606018
0.7014012840465635	18203.198084172775
0.7015181842605713	18249.11739875243
0.701635103957948	18288.191294074117
0.701752043141941	18311.29678967768
0.701869001815798	18351.595900178123
0.7019859799827672	18403.85075283161
0.7021029776460976	18465.886714529814
0.7022199948090387	18527.514788252825
0.7023370314748403	18580.665278401535
0.7024540876467528	18633.249051105904
0.702571163328027	18685.171394009314
0.7026882585219152	18728.73424023419
0.7028053732316688	18770.031095621263
0.7029225074605406	18820.93016463045
0.7030396612117841	18869.964161602828
0.7031568344886527	18915.345052226516
0.7032740272944008	18967.278178930756
0.7033912396322832	19023.03681311108
0.7035084715055552	19075.871388450352
0.7036257229174727	19126.39087268685
0.7037429938712924	19169.491640523705
0.7038602843702709	19216.991534702236
0.7039775944176659	19268.65314838006
0.7040949240167356	19319.782914569838
0.7042122731707383	19370.993778635944
0.7043296418829335	19423.927168294995
0.7044470301565806	19472.699072498504
0.70456443799494	19515.239196317878
0.7046818654012724	19549.745705559853
0.7047993123788394	19580.764533613514
0.7049167789309024	19650.174576402216
0.7050342650607243	19716.2269619003
0.7051517707715678	19773.556862953417
0.7052692960666963	19828.30223428457
0.705386840949374	19881.250977200834
0.7055044054228656	19931.636472964434
0.7056219894904361	19982.33754926176
0.7057395931553511	20035.792477453724
0.705857216420877	20089.377784780863
0.7059748592902804	20143.100287589677
0.7060925217668288	20194.499539967714
0.70621020385379	20245.50395279221
0.7063279055544321	20298.944345841122
0.7064456268720246	20351.240356425922
0.7065633678098366	20401.722481568937
0.7066811283711383	20451.306327324666
0.7067989085592001	20500.48896638047
0.7069167083772933	20547.006417725624
0.7070345278286895	20594.419793900757
0.707152366916661	20644.044300595233
0.7072702256444803	20690.533982739908
0.7073881040154211	20734.89913977584
0.7075060020327569	20800.597885972453
0.7076239196997625	20866.858730515116
0.7077418570197124	20925.888633304345
0.7078598139958823	20982.462657391734
0.7079777906315483	21036.648878398348
0.7080957869299869	21089.697542692884
0.7082138028944751	21142.9068456843
0.7083318385282908	21199.27915331638
0.7084498938347124	21254.892093310642
0.708567968817018	21309.463896749443
0.7086860634784875	21354.921857937814
0.7088041778224007	21396.135334308205
0.7089223118520377	21414.00411371149
0.7090404655706796	21458.123275298287
0.709158638981608	21552.649476220035
0.709276832088105	21608.237690590617
0.7093950448934531	21642.86170711656
0.7095132774009353	21576.614480128705
0.7096315296138355	21568.887054913474
0.7097498015354378	21734.316156593777
0.7098680931690269	21855.45329275228
0.7099864045178884	21943.93269292805
0.7101047355853081	22010.987927984042
0.7102230863745722	22074.144369840436
0.7103414568889679	22132.661845093928
0.7104598471317828	22188.807555957308
0.7105782571063047	22242.63261020735
0.7106966868158224	22285.879060339495
0.710815136263625	22330.472051548502
0.7109336054530023	22400.472223364388
0.7110520943872445	22467.629256838223
0.7111706030696424	22531.158413995407
0.7112891315034873	22591.299198378332
0.7114076796920712	22650.26310768109
0.7115262476386865	22708.28845557291
0.7116448353466263	22765.186080736832
0.711763442819184	22820.221909760945
0.711882070059654	22878.627270984034
0.7120007170713306	22938.516016275582
0.7121193838575091	22994.560160208388
0.7122380704214853	23051.870356019735
0.7123567767665555	23111.851699841438
0.7124755028960166	23167.332423849246
0.7125942488131658	23220.23976612287
0.7127130145213015	23275.094959695838
0.7128318000237216	23331.747627461482
0.7129506053237256	23393.032332357263
0.7130694304246129	23446.12252661095
0.7131882753296837	23493.38353395061
0.7133071400422386	23511.96707787588
0.7134260245655789	23541.020712110996
0.7135449289030065	23618.638034362906
0.7136638530578235	23708.664143084414
0.7137827970333332	23809.39803846395
0.7139017608328388	23873.430597231443
0.7140207444596443	23931.20336880688
0.7141397479170543	23988.69154847439
0.7142587712083737	24039.08968129546
0.7143778143369084	24082.21648119182
0.7144968773059646	24161.615254139608
0.7146159601188489	24246.236651980118
0.7147350627788687	24310.858818104458
0.7148541852893318	24373.524177205498
0.7149733276535467	24433.841585771228
0.7150924898748222	24488.12454938478
0.715211671956468	24542.15620953558
0.7153308739017941	24609.859581662502
0.715450095714111	24677.429604887115
0.71556933739673	24744.811280544902
0.7156885989529628	24788.86344504941
0.7158078803861218	24822.36056452828
0.7159271816995193	24820.753615413938
0.7160465028964692	24859.406468339057
0.7161658439802853	24961.11900737655
0.7162852049542819	25010.6883854913
0.7164045858217744	25038.91338683457
0.716523986586078	25056.132314698843
0.7166434072505089	25017.67889182567
0.716762847818384	24881.70611279118
0.7168823082930204	24978.411372399965
0.7170017886777359	25179.915409488593
0.7171212889758488	25363.625023558
0.7172408091906781	25497.910158404946
0.7173603493255433	25536.814896320422
0.7174799093837642	25558.009359564396
0.7175994893686615	25570.414914550096
0.7177190892835562	25681.233966899457
0.7178387091317702	25802.502512231174
0.7179583489166254	25944.715764162433
0.7180780086414448	26023.170670614076
0.7181976883095517	26067.577885998
0.7183173879242699	26159.47746661209
0.718437107488924	26240.50825454489
0.7185568470068389	26295.23479290204
0.7186766064813399	26319.282551937395
0.7187963859157535	26326.044718289428
0.7189161853134061	26458.69484866767
0.719036004677625	26578.946185153374
0.7191558440117378	26661.179625900066
0.7192757033190732	26729.42803744126
0.7193955826029597	26789.521325901085
0.7195154818667269	26850.803814439714
0.7196354011137046	26915.556998852106
0.7197553403472235	26988.476331557147
0.7198752995706147	27062.62817909827
0.7199952787872098	27137.51629391637
0.720115278000341	27152.8509059954
0.7202352972133411	27123.47220321917
0.7203553364295432	26992.59903543855
0.7204753956522815	27101.387073321188
0.7205954748848902	27352.2025390301
0.7207155741307044	27470.805997114727
0.7208356933930594	27575.843146489315
0.7209558326752915	27661.009266637997
0.7210759919807375	27730.790796706257
0.7211961713127342	27791.63253268891
0.7213163706746197	27836.157761685256
0.7214365900697322	27883.181728519492
0.7215568295014103	27937.136699403425
0.721677088972994	28028.86154886362
0.7217973684878227	28141.751636416608
0.7219176680492374	28182.073235271957
0.7220379876605789	28238.16333241086
0.722158327325189	28331.948986585394
0.7222786870464099	28427.70636067135
0.7223990668275843	28524.515812068938
0.7225194666720555	28591.55425508034
0.7226398865831676	28660.117914587703
0.7227603265642646	28732.220387197172
0.722880786618692	28781.277509863903
0.7230012667497951	28819.54839462094
0.7231217669609201	28907.777688742965
0.7232422872554135	28983.12392278209
0.7233628276366229	29034.617379390293
0.7234833881078956	29111.37448220875
0.7236039686725803	29196.77584222713
0.7237245693340255	29204.945177936275
0.7238451900955812	29253.248019301733
0.7239658309605971	29368.558080979124
0.7240864919324239	29476.63422240963
0.7242071730144127	29579.685581055324
0.724327874209915	29648.299909828835
0.7244485955222832	29721.90702356006
0.7245693369548704	29802.920988288137
0.7246900985110294	29882.406830489068
0.7248108801941148	29962.000642508443
0.7249316820074803	30047.86604327208
0.7250525039544815	30126.89327415954
0.7251733460384739	30197.015762169856
0.7252942082628137	30260.29231677717
0.7254150906308574	30320.999221155842
0.7255359931459625	30377.231107771033
0.7256569158114868	30445.76596268033
0.7257778586307888	30528.139778494253
0.7258988216072273	30593.44940192302
0.7260198047441617	30659.219278391458
0.7261408080449525	30746.850915705647
0.72626183151296	30800.65868439813
0.7263828751515454	30822.076096544126
0.7265039389640706	30940.803034232224
0.726625022953898	31060.503155969873
0.7267461271243904	31122.31780654923
0.7268672514789111	31184.572083566243
0.7269883960208241	31247.180710487
0.7271095607534942	31349.56726911451
0.7272307456802866	31453.02643353688
0.7273519508045666	31547.21465364475
0.7274731761297006	31624.450354536144
0.7275944216590555	31690.55533415447
0.7277156873959987	31744.439759795903
0.7278369733438982	31777.280220703506
0.727958279506122	31763.455214261994
0.7280796058860397	31874.32816473224
0.7282009524870207	32050.101631975
0.7283223193124353	32164.872031546478
0.7284437063656539	32269.214647887522
0.7285651136500483	32355.003938017584
0.7286865411689898	32426.15117734696
0.7288079889258514	32488.334211011563
0.7289294569240056	32506.96514960033
0.7290509451668262	32557.260204323342
0.7291724536576875	32651.411517356388
0.7292939823999636	32744.236982179402
0.7294155313970303	32837.362000837
0.7295371006522632	32935.126950597594
0.7296586901690385	33010.080107708
0.7297802999507332	33060.57639347356
0.7299019300007252	33129.02293102856
0.7300235803223919	33192.37389450547
0.7301452509191123	33220.06548203125
0.7302669417942654	33270.685700444265
0.7303886529512311	33340.06613802303
0.7305103843933897	33288.669356377075
0.7306321361241218	33313.7861472116
0.7307539081468093	33586.970975800396
0.7308757004648336	33768.90490164071
0.7309975130815778	33895.27209160226
0.7311193460004248	33975.22626666518
0.7312411992247582	34062.179488168054
0.7313630727579622	34164.71997259109
0.7314849666034219	34247.46946378367
0.7316068807645224	34320.04153101931
0.7317288152446498	34366.18976082196
0.7318507700471907	34417.59025367759
0.7319727451755319	34476.35396026331
0.732094740633061	34600.73242817003
0.7322167564231665	34728.97967960486
0.7323387925492371	34762.82933120287
0.7324608490146619	34850.14866105312
0.732582925822831	34991.27047821419
0.7327050229771347	35092.68598763472
0.7328271404809642	35182.26109322712
0.7329492783377112	35252.960947943975
0.7330714365507675	35341.38296031793
0.7331936151235259	35442.396595526785
0.7333158140593796	35485.80341322111
0.7334380333617229	35487.21032244837
0.7335602730339499	35402.65430822644
0.7336825330794556	35550.5738869653
0.7338048135016354	35804.42779191472
0.7339271143038857	35911.46400322685
0.734049435489603	35957.332613005405
0.7341717770621846	35912.98448128095
0.7342941390250283	35994.86859291213
0.7344165213815324	36110.72818659941
0.734538924135096	36201.67005993634
0.7346613472891185	36303.14539237416
0.734783790847	36415.111147733245
0.7349062548121412	36461.760137447745
0.7350287391879431	36464.98935531735
0.7351512439778078	36359.060114994936
0.7352737691851374	36493.67860600513
0.735396314813335	36787.34211341273
0.7355188808658037	36902.33478165194
0.7356414673459482	37019.90916434575
0.7357640742571725	37153.3581960421
0.7358867016028818	37242.00721112393
0.7360093493864824	37312.495931081765
0.7361320176113801	37387.85191849771
0.736254706280982	37455.7010319477
0.7363774153986956	37514.21564857512
0.7365001449679286	37497.46879075763
0.7366228949920899	37492.146677682096
0.7367456654745885	37610.732921870804
0.7368684564188344	37803.15117471609
0.7369912678282374	38054.19675767773
0.7371140997062088	38184.162836934294
0.7372369520561599	38291.679635643675
0.7373598248815024	38368.52431349012
0.7374827181856494	38455.40669611946
0.7376056319720137	38547.241366600785
0.7377285662440091	38640.5084044134
0.7378515210050496	38709.997368378004
0.7379744962585505	38746.50261795809
0.738097492007927	38797.522819277554
0.7382205082565949	38855.44148995957
0.738343545007971	38928.836562124154
0.7384666022654723	39023.16725964205
0.7385896800325165	39135.25221740461
0.7387127783125219	39245.78504543311
0.7388358971089073	39352.86266942275
0.7389590364250921	39451.86599387242
0.7390821962644963	39554.331775696824
0.7392053766305403	39658.41148112167
0.7393285775266454	39759.86181655494
0.7394517989562333	39859.79786905354
0.7395750409227259	39957.63895782154
0.7396983034295463	40015.44524230335
0.739821586480118	40032.04916659728
0.7399448900778645	39902.39167134311
0.7400682142262109	39996.45935185462
0.740191558928582	40271.336713484576
0.7403149241884034	40400.947658622325
0.7404383100091014	40512.91468756206
0.7405617163941028	40609.37341192171
0.7406851433468352	40714.632405348755
0.7408085908707264	40816.91648866843
0.7409320589692048	40826.379433068985
0.7410555476456997	40917.82563280238
0.7411790569036406	41109.576617281185
0.7413025867464579	41201.15301321029
0.7414261371775823	41266.89470592409
0.7415497082004452	41312.557797404384
0.7416732998184786	41383.23145070451
0.741796912035115	41471.07453784002
0.7419205448537874	41542.927369778125
0.7420441982779297	41631.53329807779
0.742167872310976	41750.99177519347
0.7422915669563612	41890.37955904781
0.7424152822175206	42030.7599358447
0.7425390180978901	42128.46143264041
0.7426627746009065	42212.286308669776
0.7427865517300065	42282.62675132545
0.7429103494886282	42428.450531148956
0.7430341678802096	42572.27238927857
0.7431580069081896	42686.65965140866
0.7432818665760077	42789.987074790304
0.7434057468871037	42887.50530090936
0.7435296478449182	42982.108041748565
0.7436535694528923	43075.933240645005
0.7437775117144678	43168.73205963226
0.7439014746330868	43232.25750749012
0.7440254582121922	43293.73716301997
0.7441494624552276	43372.395841871774
0.7442734873656368	43423.577775668324
0.7443975329468645	43455.86020978187
0.7445215992023557	43559.03919272191
0.7446456861355559	43648.0349110809
0.7447697937499119	43710.2033580359
0.7448939220488703	43813.8621195909
0.7450180710358784	43932.560779210944
0.7451422407143843	44061.14278663183
0.7452664310878367	44180.81785202236
0.7453906421596846	44292.748691756664
0.7455148739333779	44406.026805019465
0.7456391264123667	44518.976165726985
0.7457633996001021	44630.952338425406
0.7458876935000356	44732.329718888774
0.7460120081156189	44828.45363131468
0.7461363434503048	44916.752509610735
0.7462606995075466	45010.458616139906
0.7463850762907978	45109.83649668366
0.7465094738035127	45213.11641736108
0.7466338920491467	45322.48165326033
0.746758331031155	45446.66056704963
0.7468827907529935	45555.95985525095
0.7470072712181189	45658.50347358377
0.7471317724299886	45772.78129984505
0.7472562943920602	45883.809773990884
0.7473808371077922	45990.89486538962
0.7475054005806435	46056.29891912394
0.7476299848140736	46120.95833694991
0.7477545898115426	46207.17071822519
0.7478792155765113	46305.504568845055
0.7480038621124406	46408.923422494845
0.7481285294227926	46453.775808325685
0.7482532175110298	46544.45316240674
0.7483779263806148	46696.68831268277
0.7485026560350116	46808.645804529166
0.7486274064776842	46913.59607303668
0.748752177712097	47024.39597429687
0.7488769697417158	47140.89772376235
0.749001782570006	47260.84484009045
0.7491266162004343	47373.508818608956
0.7492514706364677	47479.24001382438
0.7493763458815739	47575.07605365732
0.7495012419392209	47677.19145641322
0.7496261588128773	47778.89269625327
0.7497510965060128	47873.45619942097
0.7498760550220971	47971.013232129655
0.7500010343646007	48070.4152766252
0.7501260345369949	48159.49386427019
0.750251055542751	48243.82048844176
0.7503760973853414	48321.25421736679
0.7505011600682389	48412.55717867409
0.750626243594917	48502.597972368385
0.7507513479688495	48575.50704590908
0.7508764731935109	48644.514795667055
0.7510016192723765	48711.48944928461
0.7511267862089218	48812.470607591145
0.7512519740066232	48911.35461290499
0.7513771826689577	49007.27671548255
0.7515024121994025	49104.10870918829
0.7516276626014359	49199.67181684239
0.751752933878536	49290.013969308304
0.7518782260341824	49373.56607491534
0.7520035390718548	49453.58354581527
0.7521288729950334	49552.422987607046
0.7522542278071992	49647.5728557268
0.7523796035118337	49737.876796957826
0.7525050001124189	49824.557708534216
0.7526304176124378	49906.346412837825
0.7527558560153731	49975.02970321913
0.752881315324709	50071.24948718732
0.7530067955439299	50181.18652426441
0.7531322966765205	50269.41330025176
0.7532578187259665	50355.289172461475
0.7533833616957542	50438.408866779086
0.75350892558937	50512.064719134774
0.7536345104103016	50585.866850315
0.7537601161620366	50663.85682324326
0.7538857428480638	50723.90246769097
0.7540113904718717	50775.87138837578
0.7541370590369503	50830.53396865366
0.7542627485467898	50897.824865626266
0.7543884590048808	50977.786990025284
0.7545141904147151	51069.29214291607
0.7546399427797842	51152.49182362929
0.7547657161035808	51215.322647438195
0.754891510389598	51281.627884503185
0.7550173256413296	51347.566007374015
0.7551431618622698	51403.017793641586
0.7552690190559135	51457.28854191765
0.7553948972257561	51510.58796010581
0.7555207963752938	51568.035029695624
0.755646716508023	51624.130046128674
0.755772657627441	51677.628997620996
0.7558986197370455	51728.59206671008
0.756024602840335	51776.59737904694
0.7561506069408084	51815.29400290494
0.7562766320419653	51850.1245444232
0.7564026781473054	51882.50802564943
0.75652874526033	51916.904955256316
0.7566548333845401	51947.12566280617
0.7567809425234375	51971.91614589038
0.7569070726805247	51994.89070283522
0.7570332238593047	52015.75217506587
0.7571593960632813	52031.6014970188
0.7572855892959586	52026.71303538353
0.7574118035608413	52012.25188448222
0.7575380388614347	52000.39725116163
0.7576642952012449	51997.23830216859
0.7577905725837782	52002.462138839335
0.7579168710125422	51988.007312395195
0.7580431904910444	51971.116411404524
0.7581695310227928	51952.59422183923
0.7582958926112967	51925.213586102596
0.7584222752600652	51892.560615810566
0.7585486789726085	51848.43298003483
0.7586751037524372	51798.524056052534
0.7588015496030628	51744.47639880416
0.7589280165279966	51675.56883279526
0.7590545045307512	51598.97157965473
0.7591810136148396	51512.21936135343
0.7593075437837755	51418.996253452744
0.7594340950410726	51318.47587585607
0.7595606673902461	51201.281429214614
0.7596872608348112	51073.28206199031
0.7598138753782836	50939.16461618096
0.75994051102418	50794.99310684219
0.7600671677760173	50637.87870096602
0.7601938456373134	50469.29425402475
0.7603205446115863	50277.58079014951
0.7604472647023548	50073.17313047195
0.7605740059131385	49849.425039941394
0.7607007682474575	49606.99324850982
0.7608275517088319	49353.44992351721
0.7609543563007835	49077.31308620532
0.7610811820268336	48775.11228921996
0.7612080288905045	48456.20573725371
0.7613348968953197	48107.27861202828
0.7614617860448022	47736.288717923846
0.7615886963424764	47342.047168673525
0.7617156277918667	46911.23118695287
0.7618425803964988	46460.9339191262
0.7619695541598982	45979.17005881558
0.7620965490855914	45454.89122333483
0.7622235651771058	44906.37034487185
0.7623506024379685	44310.46531838429
0.7624776608717082	43670.66728459985
0.7626047404818536	43000.392011874974
0.7627318412719337	42265.21224746767
0.762858963245479	41495.128063731194
0.7629861064060198	40684.70260956827
0.7631132707570876	39799.380168517404
0.7632404563022137	38876.18471342606
0.7633676630449308	37891.61231810494
0.7634948909887717	36840.26556899083
0.7636221401372697	35749.89242228196
0.7637494104939593	34582.66335022629
0.7638767020623748	33356.99643201967
0.7640040148460518	32089.95041876058
0.7641313488485262	30738.116566297937
0.7642587040733344	29345.11646943226
0.7643860805240132	27903.998073476105
0.7645134782041005	26427.162008939802
0.7646408971171346	24934.881781142805
0.764768337266654	23419.404196483825
0.7648957986561985	21921.672026000608
0.7650232812893079	20442.66726766292
0.7651507851695227	19021.73346987364
0.7652783103003843	17678.348208381416
