#wavelength	surface flux
0.8	86465.30033166842
0.8002000000000001	86670.21652104234
0.8004000500000003	86880.00334724053
0.8006001500125003	87302.96483071272
0.8008003000500035	87542.2960891802
0.8010005001250161	87762.92220336552
0.8012007502500472	88069.65967920337
0.8014010504376099	88342.4615070028
0.8016014007002193	88640.14857435935
0.8018018010503944	88910.95520824328
0.8020022515006572	89280.48686035705
0.8022027520635323	89626.88243281467
0.8024033027515483	89955.25281208499
0.8026039035772362	90220.81416165797
0.8028045545531306	90524.95850086946
0.8030052556917691	90810.93844824648
0.803206007005692	91158.70216937797
0.8034068085074435	91470.52281773889
0.8036076602095705	91742.85786115979
0.8038085621246229	92079.66137836553
0.8040095142651542	92367.02643197264
0.8042105166437206	92677.28967044265
0.8044115692728815	92967.3180006556
0.8046126721651998	93173.57252216048
0.8048138253332411	93450.5644258505
0.8050150287895745	93757.19681390654
0.805216282546772	94110.8375591722
0.8054175866174087	94418.98035965156
0.8056189410140631	94733.21656443986
0.8058203457493168	95042.67628870883
0.8060218008357541	95368.18749848809
0.8062233062859632	95639.11324074966
0.8064248621125346	96003.12242044334
0.806626468328063	96349.16229896531
0.8068281249451449	96623.89118237722
0.8070298319763813	96951.05047030521
0.8072315894343755	97264.47706621312
0.8074333973317341	97502.59998338361
0.8076352556810671	97887.70433615505
0.8078371644949874	98255.8612878099
0.8080391237861113	98583.27702948832
0.8082411335670578	98883.46473958225
0.8084431938504498	99215.99805607858
0.8086453046489125	99552.46932541904
0.8088474659750746	99830.78574777329
0.8090496778415686	100151.01967920733
0.809251940261029	100447.97216599228
0.8094542532460944	100599.75302023368
0.8096566168094059	100898.68149722504
0.8098590309636085	101432.63075227471
0.8100614957213493	101778.5994205339
0.8102640110952797	102067.77976793596
0.8104665770980536	102426.74864251526
0.8106691937423283	102672.40934720937
0.8108718610407639	102437.51064200937
0.8110745790060241	102459.29731336122
0.8112773476507757	103396.78327931844
0.8114801669876885	103492.77162890995
0.8116830370294355	103696.68434018584
0.8118859577886929	104616.8329578424
0.8120889292781401	105088.09817519014
0.8122919515104597	105439.92373951974
0.8124950244983374	105809.99658624611
0.8126981482544621	106144.4670957524
0.8129013227915257	106468.55961294702
0.8131045481222237	106741.15927900544
0.8133078242592543	106883.39752881316
0.8135111512153191	106787.52301948614
0.813714529003123	107288.96869067135
0.8139179576353739	108016.34178668409
0.8141214371247829	108141.57144879359
0.8143249674840641	108089.2216590733
0.814528548725935	107853.18079655936
0.8147321808631167	108770.5979566212
0.8149358639083326	109693.33401335597
0.8151395978743097	109790.21822355117
0.8153433827737784	110348.77368576224
0.8155472186194719	110871.98930418037
0.8157511054241268	111259.68337881441
0.815955043200483	111513.64792200467
0.8161590319612831	111936.62521361849
0.8163630717192736	112193.25122828576
0.8165671624872033	112655.0229620769
0.8167713042778252	113127.9336699568
0.8169754971038948	113429.01556380859
0.8171797409781707	113560.35942051098
0.8173840359134155	114110.14030093502
0.8175883819223938	114544.39059740676
0.8177927790178745	114897.5741815611
0.8179972272126291	115088.13040487928
0.8182017265194322	115211.5654125995
0.8184062769510622	114517.24902645346
0.8186108785203001	115967.87295247623
0.8188155312399301	116738.6327687883
0.8190202351227402	117079.21908452557
0.819224990181521	117487.26519854715
0.8194297964290664	117813.31346588417
0.8196346538781738	118059.39979189022
0.8198395625416434	118331.19634024685
0.8200445224322789	118554.82875683346
0.820249533562887	119245.04794294272
0.8204545959462778	119670.76306338915
0.8206597095952644	120047.30795202617
0.8208648745226633	120428.86987956974
0.8210700907412941	120791.02352038377
0.8212753582639793	121195.80748400642
0.8214806771035456	121590.44527460658
0.8216860472728215	121980.26917076843
0.8218914687846397	122375.86343747404
0.822096941651836	122747.69375756777
0.822302465887249	123096.05391609085
0.8225080415037209	123435.48381676771
0.8227136685140968	123430.61677472146
0.8229193469312254	122120.83868822391
0.8231250767679583	122531.70567337492
0.8233308580371503	123913.57620274299
0.8235366907516598	124423.77453298254
0.8237425749243477	124827.9186831019
0.8239485105680789	125835.68856678712
0.824154497695721	126531.65551959255
0.824360536320145	126969.02196768369
0.8245666264542252	127389.13296430217
0.8247727681108388	127812.14127699629
0.8249789613028664	128070.0607673802
0.8251852060431922	128575.77774584989
0.825391502344703	129063.03887418068
0.8255978502202894	129475.12325968032
0.8258042496828445	129875.01238345524
0.8260107007452654	130231.34497026671
0.8262172034204517	130458.82330995264
0.8264237577213068	130410.7972585441
0.8266303636607373	130043.6457838415
0.8268370212516525	131608.16941441354
0.8270437305069654	132323.9196178658
0.8272504914395923	132686.17420455426
0.8274573040624523	133053.21879049492
0.8276641683884679	133448.47626169786
0.8278710844305652	133834.34823874247
0.8280780522016729	134296.00717921418
0.8282850717147234	134659.55021970195
0.8284921429826521	135103.27615139392
0.8286992660183978	135457.47266169047
0.8289064408349024	135478.22435413458
0.8291136674451112	135897.4508417159
0.8293209458619727	136688.5160741737
0.8295282760984382	137155.44915107763
0.829735658167463	137356.11062810133
0.8299430920820048	137762.2552168589
0.8301505778550254	138406.3409750042
0.8303581154994891	138962.5830114334
0.8305657050283641	139374.52672156415
0.8307733464546212	139778.5756186567
0.8309810397912352	140055.274010768
0.8311887850511829	140384.39676399282
0.8313965822474458	140117.28091713873
0.8316044313930077	140794.98120340536
0.8318123325008561	141800.7407850951
0.8320202855839813	142387.0820587636
0.8322282906553774	142822.84926097738
0.8324363477280413	143142.42351398343
0.8326444568149735	143694.58478437754
0.8328526179291771	144181.1866552031
0.8330608310836596	144467.57725371802
0.8332690962914304	144729.9894190608
0.8334774135655034	145360.81999578467
0.833685782918895	145854.48910603035
0.8338942043646247	146313.77472836955
0.834102677915716	146800.73616282325
0.834311203585195	147235.30795045642
0.8345197813860912	147685.9122236535
0.8347284113314379	148194.76150311512
0.8349370934342709	148668.66906340196
0.8351458277076294	149126.00744042316
0.8353546141645565	149540.1317082932
0.8355634528180977	149806.4404032777
0.8357723436813022	150344.91374060122
0.8359812867672226	150832.61092970232
0.8361902820889144	151250.56870172624
0.8363993296594368	151628.25818019235
0.8366084294918518	152151.1827083757
0.8368175815992247	152786.1218126615
0.8370267859946247	153241.3850344628
0.8372360426911234	153647.01462107184
0.8374453517017962	154071.2994904573
0.8376547130397217	154376.9604301346
0.8378641267179816	155059.7950647515
0.8380735927496613	155629.75554936109
0.8382831111478488	155967.0288104111
0.8384926819256358	156117.20820995444
0.8387023050961173	156593.33720272014
0.8389119806723914	157344.29053981195
0.8391217086675596	157982.78984234278
0.8393314890947265	158514.72376621066
0.8395413219670003	158917.74472495695
0.8397512072974922	159393.88594990698
0.8399611450993165	159720.51694777992
0.8401711353855914	159690.80315761897
0.8403811781694378	160527.31217180536
0.8405912734639802	161269.8681620295
0.8408014212823464	161605.48163576444
0.8410116216376671	162281.8376191677
0.8412218745430766	162808.4826945203
0.8414321800117124	163369.8390058775
0.8416425380567154	163833.42465983846
0.8418529486912297	164295.97574001589
0.8420634119284025	164779.6219713626
0.8422739277813847	165350.1194819075
0.8424844962633302	165863.05295647352
0.842695117387396	166270.60975123956
0.8429057911667428	166664.04211958437
0.8431165176145345	167244.9688141774
0.8433272967439382	167855.8216564275
0.8435381285681244	168371.01258955404
0.8437490131002665	168879.70931362303
0.8439599503535415	169353.33108983483
0.84417094034113	169685.38334325954
0.8443819830762154	170258.04049421425
0.8445930785719846	170501.47072220474
0.8448042268416277	171330.398221646
0.8450154278983382	171921.95655001487
0.8452266817553128	172442.154117114
0.8454379884257517	172854.98461084304
0.8456493479228583	173239.56453718644
0.845860760259839	174017.4271661162
0.846072225449904	174559.11414640892
0.8462837435062666	174739.81422096686
0.8464953144421433	174541.27157557348
0.8467069382707537	175292.98898331466
0.8469186150053215	176524.13074908702
0.847130344659073	177157.97499938105
0.8473421272452377	177692.6946910726
0.8475539627770492	178123.5315788007
0.8477658512677435	178733.2317890377
0.8479777927305605	179280.81976559726
0.8481897871787432	179741.59758169146
0.848401834625538	180342.06529037957
0.8486139350841944	180930.06466601513
0.8488260885679657	181262.52384387102
0.8490382950901076	181484.73822073903
0.8492505546638802	182369.14359770552
0.8494628673025462	183055.29438331287
0.8496752330193721	183601.8100182369
0.8498876518276269	184151.37308113824
0.8501001237405839	184729.10121315316
0.8503126487715191	185284.24696293884
0.850525226933712	185847.4198383516
0.8507378582404455	186419.385966212
0.8509505427050057	186987.45968682008
0.8511632803406821	187558.99190081356
0.8513760711607672	188096.1319510205
0.8515889151785576	188633.6885900987
0.8518018124073523	189173.9527902357
0.8520147628604541	189723.18564800272
0.8522277665511693	190181.08343849482
0.8524408234928071	190889.7131732456
0.8526539336986805	191462.41407823222
0.8528670971821053	192002.87201637874
0.8530803139564007	192321.66188425987
0.8532935840348901	192581.88967097335
0.8535069074308987	193155.93854108755
0.8537202841577566	193806.9419674319
0.8539337142287962	194367.1905937667
0.8541471976573534	194738.76276071905
0.8543607344567677	195506.53533714436
0.8545743246403821	196304.85331057344
0.8547879682215422	196900.16401934728
0.8550016652135977	197474.5695202807
0.8552154156299011	198087.35344211286
0.8554292194838088	198739.6567519192
0.8556430767886797	199321.98881712626
0.855856987557877	199982.0335909103
0.8560709518047664	200631.91577538144
0.8562849695427177	201214.2468935814
0.8564990407851035	201776.66957319886
0.8567131655452999	202397.85547422757
0.8569273438366862	203054.13038785278
0.8571415756726455	203656.40531225552
0.8573558610665638	204179.06142849106
0.8575702000318304	204838.79926444122
0.8577845925818384	205466.2285361157
0.857999038729984	206099.52395775603
0.8582135384896665	206566.86016048733
0.858428091874289	206736.25441016222
0.8586426988972576	207292.09597017494
0.8588573595719821	207972.14482362525
0.8590720739118751	208647.24623423596
0.8592868419303532	209287.77676058054
0.8595016636408359	209947.49882987194
0.8597165390567462	210497.10401551193
0.8599314681915105	211026.05764019612
0.8601464510585584	211669.21914458522
0.860361487671323	212355.84092030086
0.8605765780432408	213049.5010481622
0.8607917221877518	213642.4882575068
0.8610069201182988	214252.70191309912
0.8612221718483286	214608.80432980522
0.8614374773912907	214715.71954593438
0.8616528367606385	215443.36072589396
0.8618682499698288	215385.54482520084
0.8620837170323213	215882.55928198525
0.8622992379615795	216915.87493620312
0.8625148127710699	216585.88660750873
0.8627304414742627	217154.27072630913
0.8629461240846313	218950.77954706387
0.8631618606156526	218897.82242898902
0.8633776510808066	219507.06975602472
0.8635934954935769	220337.45933186237
0.8638093938674504	221293.1378884754
0.8640253462159173	221685.54358765294
0.8642413525524714	221276.41986270752
0.8644574128906095	223297.2781614621
0.8646735272438323	223820.1513796872
0.8648896956256433	223977.2016704177
0.8651059180495498	225459.9494830283
0.8653221945290621	226101.33121096517
0.8655385250776946	226929.42884976926
0.8657549097089641	227875.96097984287
0.8659713484363913	228622.66179075028
0.8661878412735006	229319.5046305285
0.866404388233819	229858.92607199098
0.8666209893308775	230593.31115467838
0.8668376445782103	231672.47103123766
0.8670543539893549	232342.980458746
0.8672711175778525	232541.44149750116
0.8674879353572469	232762.97993845746
0.8677048073410862	233580.45887228736
0.8679217335429217	234478.16969714715
0.8681387139763074	235190.5756014631
0.8683557486548015	235442.35551727712
0.8685728375919655	236251.49172134092
0.8687899808013633	237443.53198828755
0.8690071782965637	238369.08937679377
0.869224430091138	239159.25802659424
0.8694417361986609	239562.1408284006
0.8696590966327107	239791.10739271226
0.869876511406869	240407.8958725636
0.8700939805347206	241042.5191063313
0.8703115040298544	242307.61316984295
0.870529081905862	243064.93757912784
0.8707467141763385	243687.7282681056
0.8709644008548827	244169.0739619781
0.8711821419550964	244752.75864089504
0.8713999374905854	245487.12170855893
0.871617787474958	246903.92215528962
0.8718356919218269	247515.66473997387
0.8720536508448075	247615.1589276369
0.8722716642575187	248207.93539835676
0.8724897321735832	249391.39805700866
0.8727078546066265	250454.0622945522
0.8729260315702784	251343.97949926945
0.873144263078171	252105.12911848715
0.8733625491439405	252862.28555200202
0.8735808897812266	253291.64425954796
0.8737992850036719	253952.4526892146
0.874017734824923	254070.42861409014
0.8742362392586293	255595.86027636126
0.874454798318444	256190.2983003274
0.8746734120180236	256843.8784265324
0.8748920803710283	257892.70099709474
0.875110803391121	258556.88344604248
0.8753295810919689	259339.57787356872
0.875548413487242	260259.53637207372
0.8757673005906139	261086.87941803326
0.8759862424157616	261832.50147811015
0.8762052389763657	262484.0974063573
0.8764242902861098	263065.33273001824
0.8766433963586814	264016.2019312779
0.8768625572077712	264362.7110216764
0.8770817728470732	264661.72704272013
0.8773010432902849	265983.2781776348
0.8775203685511077	267172.5641812693
0.8777397486432454	268069.1810631133
0.8779591835804065	268778.54311580147
0.8781786733763015	269524.0840049467
0.8783982180446457	270367.58346725773
0.878617817599157	271074.77257679426
0.8788374720535569	271678.9097001983
0.8790571814215703	272338.44396564993
0.8792769457169257	273088.72520068527
0.879496764953355	274287.5926805643
0.8797166391445934	275215.26193478267
0.8799365683043796	275916.29652409663
0.8801565524464557	276334.92366427457
0.8803765915845676	276992.98112097965
0.8805966857324639	278064.67658177763
0.880816834903897	278690.0894658661
0.881037039112623	279720.9430068181
0.8812572983724012	280457.5286920403
0.8814776126969944	280876.3305974104
0.8816979821001687	281812.98491783254
0.8819184065956938	283040.0467951318
0.8821388861973429	283822.517766174
0.8823594209188923	284249.24277814187
0.882580010774122	285287.05202677846
0.8828006557768155	286285.9147120854
0.8830213559407598	287024.6930879173
0.8832421112797452	287936.0504705222
0.8834629218075651	288295.9107048589
0.8836837875380171	288590.50016063923
0.8839047084849018	289910.0893013118
0.884125684662023	291313.00837421394
0.8843467160831886	292218.3000537695
0.8845678027622095	292961.50339142897
0.8847889447129001	293503.6846187509
0.8850101419490785	294412.4642870119
0.8852313944845657	295098.1608514407
0.885452702333187	296340.27372754604
0.8856740655087704	297124.06213054335
0.8858954840251476	297394.427068753
0.8861169578961539	298225.2726318304
0.886338487135628	299610.373849753
0.886560071757412	300635.4082898991
0.8867817117753515	301507.3739223253
0.8870034072032955	302266.8513935303
0.8872251580550963	302861.75831353216
0.8874469643446101	303781.4438915262
0.8876688260856963	304720.7731340475
0.8878907432922178	305739.7568138449
0.8881127159780409	306598.6768491807
0.8883347441570356	307163.8839551259
0.8885568278430749	307498.2635039121
0.8887789670500358	308752.05146511836
0.8890011617917983	309892.991091851
0.8892234120822464	310993.83598485
0.8894457179352669	311883.55282118835
0.8896680793647509	312526.33329718676
0.8898904963845921	313066.8540518787
0.8901129690086883	314061.8638137308
0.8903354972509405	315272.95957225986
0.8905580811252535	316218.1103895693
0.8907807206455347	316115.408624537
0.8910034158256963	314045.62108670664
0.8912261666796527	316318.756377168
0.8914489732213227	319204.9244942115
0.8916718354646282	319735.0930846
0.8918947534234944	320119.31558009086
0.8921177271118502	320533.1228392474
0.8923407565436284	319452.45177129697
0.8925638417327644	321596.7859027248
0.8927869826931977	324426.87264534354
0.8930101794388711	325557.29735375644
0.8932334319837308	324851.32614095684
0.8934567403417267	324691.8630523321
0.8936801045268123	327599.6314506287
0.8939035245529441	328532.67571669765
0.8941270004340824	329391.8223613286
0.894350532184191	329573.1352743405
0.8945741198172371	331266.5476631427
0.8947977633471915	333208.5531488622
0.8950214627880284	334214.8607975467
0.8952452181537254	334594.4878658583
0.8954690294582639	335111.30199460813
0.8956928967156286	336693.660329711
0.8959168199398075	337385.7286148418
0.8961407991447926	338180.4420777805
0.8963648343445789	338148.4496800298
0.896588925553165	335424.60515837575
0.8968130727845534	337478.2102934017
0.8970372760527496	340053.1400707277
0.8972615353717629	333190.75438028417
0.8974858507556059	332399.2955547991
0.8977102222182949	343563.2750542044
0.8979346497738496	346619.15188575635
0.8981591334362931	347429.61102440767
0.8983836732196523	348062.861544889
0.8986082691379572	349028.6630706621
0.8988329212052417	344960.0640019182
0.8990576294355432	337870.04079525906
0.8992823938429022	343553.631484045
0.8995072144413631	349896.2117852511
0.8997320912449734	353756.67734449514
0.8999570242677847	354925.5780027816
0.9001820135238516	355492.3571500922
0.9004070590272328	355550.7862827336
0.9006321607919896	353736.7323926415
0.9008573188321878	355801.5058523993
0.9010825331618959	356551.94057520403
0.9013078037951865	360056.7228717603
0.9015331307461353	361500.1375481364
0.9017585140288219	362813.11267029133
0.9019839536573292	364056.5782364496
0.9022094496457435	365276.723026679
0.9024350020081551	366199.6401889373
0.9026606107586572	367063.82875983656
0.902886275911347	367938.5975710583
0.9031119974803249	368555.09159715596
0.9033377754796951	369532.5273948767
0.903563609923565	371111.6487896874
0.903789500826046	372173.67537033506
0.9040154482012526	372636.64369160146
0.904241452063303	374174.76476433506
0.9044675124263188	374849.1543968045
0.9046936293044254	375460.37181664794
0.9049198027117517	376650.29785143683
0.9051460326624297	378118.8612655065
0.9053723191705955	379539.4553436516
0.9055986622503881	380652.10055060557
0.9058250619159507	381743.9465339693
0.9060515181814298	382644.5888947605
0.9062780310609752	383020.0002218085
0.9065046005687405	383867.75916517776
0.906731226718883	385288.0253939476
0.9069579095255627	386558.359730274
0.907184649002944	387462.0969507746
0.907411445165195	388619.2230875333
0.9076382980264862	389590.1537153845
0.907865207600993	390433.32572861726
0.9080921739028933	391384.6907532287
0.9083191969463691	392373.10364051705
0.9085462767456058	393270.8713061247
0.9087734133147922	393547.7807126182
0.9090006066681211	395653.6318485112
0.909227856819788	397160.4056239924
0.9094551637839932	398250.3199627456
0.9096825275749393	399264.3174870829
0.9099099482068329	399779.55005766265
0.9101374256938848	400828.60633226787
0.9103649600503083	401885.64336099493
0.9105925512903209	403125.2983500739
0.9108201994281437	401856.88919963554
0.9110479044780008	403822.79715519067
0.9112756664541204	406858.1176305224
0.911503485370734	408276.2380882218
0.9117313612420768	408807.94859436864
0.9119592940823873	410183.9723270299
0.912187283905908	411789.01420147513
0.9124153307268845	412949.3526999228
0.9126434345595664	414033.794617429
0.9128715954182063	414967.88375139557
0.9130998133170609	415730.63343242934
0.9133280882703902	416278.0849853808
0.913556420292458	417672.2146104519
0.9137848093975312	418861.5715798974
0.9140132555998806	420598.26544420904
