#wavelength	surface flux
0.676892	17424.72198085479
0.678297	17878.47807138625
0.679702	18466.294073861936
0.681109	18994.416502362834
0.682517	19483.42282014703
0.683926	19973.18221129067
0.685337	20533.53791906842
0.686749	20985.52446439556
0.688164	21357.63608827395
0.689581	21494.111478037063
0.691	21826.545944180292
0.692422	23179.871041881925
0.693847	23342.631093985645
0.695274	24850.315912309015
0.696705	25608.79224408472
0.698139	25996.015162284843
0.699576	26811.61639061511
0.701017	28012.57944127421
0.702461	28923.210382295565
0.70391	29949.960852281514
0.705362	30846.42798266779
0.706819	31722.316086317893
0.70828	32607.002401751302
0.709745	33491.60067721371
0.711216	34470.41419475873
0.71269	35427.866531135165
0.71417	36409.29543589452
0.715655	37339.71405413751
0.717145	38342.282794594554
0.71864	39533.975644330996
0.72014	40628.70482432565
0.721647	41743.74583019616
0.723158	42924.19772478422
0.724676	44128.587169704755
0.726199	45347.12035154228
0.727728	46583.1485836091
0.729264	47861.41656330846
0.730805	49143.419985954715
0.732353	50518.77378927118
0.733907	51392.06605956145
0.735468	52418.21324940135
0.737035	54124.12456260256
0.738609	55187.99981233759
0.74019	56649.04088354747
0.741777	57782.54833770613
0.743372	59613.26582591153
0.744973	60705.298064971415
0.746582	62685.55741574499
0.748197	64643.06908444879
0.74982	66701.38722092107
0.751451	68231.44904932869
0.753088	70195.48853452662
0.754734	71950.85660770845
0.756386	73562.2185111728
0.758047	74634.12766058824
0.759715	75087.01705677454
0.76139	73791.64518384844
0.763074	67521.5152695803
0.764765	46572.64132562062
0.766464	19005.860016430102
0.768172	29601.76358964713
0.769887	23694.9749719981
0.77161	52503.58379579074
0.773341	82396.56077738649
0.775081	93619.46825840205
0.776829	99781.26345165652
0.778585	102049.63431778448
0.780349	91715.52809794189
0.782121	110793.05584473745
0.783902	115709.95296742396
0.785691	119266.83022992112
0.787489	122668.43959389851
0.789295	126331.25609835978
0.79111	129788.56307179653
0.792933	132334.63443346848
0.794764	121799.71588115075
0.796604	138519.6038794219
0.798453	144507.6390556921
0.80031	148332.64951550856
0.802176	152533.91217056202
0.804051	157033.26276778395
0.805934	161257.5874331067
0.807826	165979.58170571493
0.809727	170453.0272709919
0.811636	174944.32752599285
0.813554	179901.91115440632
0.81548	184968.54837291408
0.817416	190007.98254135886
0.81936	195160.64265395282
0.821313	200749.3683867314
0.823274	205679.35234515005
0.825244	211567.1737533456
0.827223	216952.89789020145
0.829211	223288.96386545172
0.831208	229110.6806514366
0.833213	235512.64197473694
0.835227	241830.33698278322
0.837249	248213.40881792505
0.83928	254704.64498506932
0.841321	261684.20690091274
0.843369	268690.124603174
0.845427	275687.5013318083
0.847493	282936.73219524574
0.849567	290559.8075444655
0.851651	298285.44169571716
0.853742	304930.9300913752
0.855843	313598.3050568312
0.857952	321546.14818051824
0.86007	329089.57218615833
0.862196	336911.67748850264
0.864331	344291.3883213869
0.866474	354860.33128686564
0.868626	364047.39102565154
0.870786	373980.0018269933
0.872955	384548.5342573447
0.875132	394693.14881468355
0.877317	405452.9174833417
0.879511	416412.45180886274
0.881713	427077.63107428345
0.883923	437660.621591283
0.886142	449694.7551423905
0.888369	461365.6710842616
0.890604	471735.85472291644
0.892847	482661.73534894746
0.895099	496242.23426528927
0.897358	503892.423036376
0.899626	518630.3463240756
0.901901	535361.3405475839
0.904185	549119.9030706086
0.906476	562982.784069908
0.908776	576915.8106099467
0.911083	591593.3335333356
0.913398	606325.7431105818
0.915721	620055.6716115846
0.918051	635155.6697278824
0.92039	649447.452221088
0.922736	667747.2214406983
0.925089	679000.7176509092
0.927451	688858.3434550829
0.929819	696575.5773188769
0.932195	703802.348501205
0.934579	701224.9141478871
0.93697	729656.2623176675
0.939369	779226.0607982293
0.941774	803695.0267033371
0.944187	825111.0486559859
0.946607	817053.7892640183
0.949035	835128.9065861763
0.951469	870503.888839369
0.953911	895051.032005337
0.956359	887534.2273695376
0.958814	935994.5433228344
0.961277	949413.5454841779
0.963746	985298.9570921137
0.966222	1006844.9798501874
0.968705	1039302.1051977406
0.971194	1056501.7682159964
0.97369	1075595.5895259425
0.976193	1110093.086871476
0.978702	1138530.3598786013
0.981217	1163084.447789576
0.983739	1190416.177623418
0.986268	1215537.7938274548
0.988802	1242829.819508255
0.991343	1274879.7338305633
0.99389	1302106.9411776608
0.996444	1334433.3558525238
0.999003	1361910.5220136978
1.00157	1389936.5044458897
1.00414	1420728.971923706
1.00672	1451755.6104311827
1.0093	1482632.8353528124
1.01189	1515653.5969517103
1.01448	1548125.142952907
1.01708	1581083.4286862211
1.01969	1615114.838102588
1.0223	1648324.5258150613
1.02492	1683874.5408949994
1.02754	1718807.821428367
1.03017	1754606.8808517877
1.0328	1790218.8215752624
1.03544	1827299.6569589085
1.03808	1864767.3291857825
1.04073	1902879.5036285857
1.04339	1940860.9888150091
1.04604	1979551.3641636015
1.04871	2018810.620419731
1.05138	2058313.3392898724
1.05405	2100251.6152550126
1.05673	2141056.622329361
1.05941	2181956.169297602
1.0621	2228338.5417164685
1.06479	2274830.933116868
1.06749	2317542.432436909
1.07019	2362550.1649818323
1.07289	2409505.1911244155
1.0756	2456405.1628867215
1.07832	2500026.360215548
1.08104	2548811.92428546
1.08376	2597235.3733575908
1.08649	2643281.8147509894
1.08922	2689522.0061046844
1.09195	2734251.8663454344
1.09469	2778268.5954812043
1.09743	2785631.5583576243
1.10018	2814675.79894882
1.10293	2872084.557246929
1.10568	2961160.440496685
1.10844	3012870.5351316095
1.1112	3044433.0776968226
1.11396	2884224.300986934
1.11673	2946935.3693218087
1.1195	3078007.394599215
1.12228	2920800.440053413
1.12505	2866998.4995497284
1.12783	3187844.0089957123
1.13062	3424893.2905476964
1.13341	3369924.0389730013
1.1362	3375859.422485356
1.13899	3610333.021391973
1.14178	3673839.054172598
1.14458	3584137.156492722
1.14738	3474115.8883654177
1.15019	3619347.5527017107
1.153	3945297.2873748858
1.1558	3925528.4637228753
1.15862	4102946.088206219
1.16143	4141855.267934685
1.16425	3979132.760916537
1.16707	4275535.537386543
1.16989	4240628.482229804
1.17271	4350387.30484992
1.17554	4463136.652941902
1.17837	4540794.0138984425
1.1812	4632310.135908209
1.18403	4713175.2762456285
1.18686	4760033.239780303
1.1897	4859036.637473363
1.19253	4950451.1632492645
1.19537	5025287.606839874
1.19822	5063101.529244163
1.20106	5177252.433880105
1.2039	5251099.563394073
1.20675	5339356.031671343
1.2096	5417351.237669742
1.21245	5474642.86581455
1.2153	5569373.938882956
1.21815	5658829.19133592
1.221	5737172.2151216995
1.22385	5816613.83551498
1.22671	5905117.0758445775
1.22957	5985008.665424747
1.23242	6065978.20958626
1.23528	6159360.907438626
1.23814	6243704.708620373
1.241	6326660.670118072
1.24387	6410255.907631189
1.24673	6494788.721643134
1.24959	6584215.522476636
1.25245	6668883.487928944
1.25532	6755656.582124447
1.25818	6848337.764918553
1.26105	6938600.15872419
1.26392	7028070.617559299
1.26678	7118069.802992795
1.26965	7194444.4825667
1.27252	7280491.868811086
1.27538	7382752.356867847
1.27825	7478971.623992934
1.28112	7556035.111797932
1.28399	7617890.680531661
1.28686	7744504.989517509
1.28973	7830594.193651317
1.2926	7897107.796820863
1.29546	7861954.398580102
1.29833	7998373.7135395985
1.3012	8168537.574269614
1.30407	8292049.792346479
1.30694	8400092.723082235
1.30981	8476176.85961734
1.31267	8553034.382112619
1.31554	8623111.826820329
1.31841	8675491.770341622
1.32128	8838652.53994414
1.32414	8914940.679530447
1.32701	9026464.989442738
1.32987	9069437.030857805
1.33274	8892788.856750552
1.3356	8790578.792553235
1.33847	7919863.97982434
1.34133	7324716.58893748
1.34419	6250512.226082081
1.34705	6976968.9575829925
1.34991	6991201.976929639
1.35277	8056823.681298715
1.35563	7195373.660728853
1.35849	7042312.132323841
1.36135	8086177.150892874
1.3642	7780474.293662301
1.36706	8511921.547949186
1.36991	8471250.00718891
1.37277	9131124.732888283
1.37562	8534584.276222926
1.37847	10198573.117286922
1.38132	9616499.878285656
1.38417	9079333.218170486
1.38701	7799582.512055891
1.38986	8927638.86338673
1.39271	9006118.21087275
1.39555	7825901.615568126
1.39839	9060408.949691568
1.40123	9105572.248613993
1.40407	10129340.647986261
1.40691	9926192.857066935
1.40974	10652842.281358214
1.41258	10182496.520303234
1.41541	9360599.338478792
1.41824	8245942.74864104
1.42107	9166556.564204307
1.4239	8396624.16252455
1.42673	10258134.845588168
1.42955	10575111.442369634
1.43237	10210960.238947358
1.43519	11031450.25166192
1.43801	11379896.89242597
1.44083	10869685.22388319
1.44365	11341271.890520029
1.44646	11567802.382486844
1.44927	11446093.886217263
1.45208	11399524.894690357
1.45489	10069091.68649403
1.45769	12473802.805199726
1.4605	13192985.943552442
1.4633	12411605.024478948
1.4661	12818584.434471935
1.4689	12834055.97840861
1.47169	13568446.54314049
1.47449	13113649.844150066
1.47728	13740391.738252709
1.48007	13913211.82559141
1.48286	13607402.927650413
1.48564	13888196.227789896
1.48842	14428369.236945935
1.4912	14800278.776887028
1.49398	14905404.269703947
1.49676	14760421.005155144
1.49953	14938251.30248032
1.5023	14989564.66695342
1.50507	15429781.09613647
1.50784	15519528.926191095
1.51061	15443242.690248612
1.51337	15821598.30009389
1.51613	15948366.644851197
1.51888	16023267.488227533
1.52164	16203384.643860284
1.52439	16232374.395255787
1.52714	15735623.673965605
1.52989	15975940.836021496
1.53263	16577844.13043896
1.53538	17003781.718095258
1.53812	17209729.01056963
1.54086	17303996.113367397
1.54359	17380775.040267944
1.54632	17565471.685483888
1.54905	17701009.69149317
1.55178	17874114.914706443
1.5545	17980794.689113025
1.55723	18053878.564477313
1.55995	18154668.133714788
1.56266	18309385.19661542
1.56538	18488147.649047155
1.56809	18688252.05182949
1.5708	18756071.2955585
1.57351	18906064.477102533
1.57621	19084144.448618058
1.57891	19138201.670359086
1.58161	19266215.68407831
1.5843	19393194.535105534
1.587	19458148.63216791
1.58969	19621615.438494448
1.59238	19748052.337748747
1.59506	19882607.61848466
1.59774	20009364.038710672
1.60042	20140934.64757806
1.6031	20257232.218000174
1.60577	20358512.768114336
1.60844	20454905.975882605
1.61111	20592046.170272566
1.61378	20710854.584056202
1.61644	20833304.658656813
1.6191	20946079.42124558
1.62176	21001427.53384709
1.62441	20991281.62578901
1.62707	21060258.873574194
1.62971	21170834.222136304
1.63236	21221071.372132003
1.635	21439308.705697533
1.63764	21708756.923581045
1.64028	21826278.726407476
1.64292	21898926.815516148
1.64555	21964201.337083284
1.64818	22105024.499588903
1.65081	22243098.888700847
1.65343	22313862.745984692
1.65605	22202504.362891216
1.65867	22388177.20896075
1.66128	22575616.662518032
1.6639	22627202.139431152
1.66651	21953695.81846532
1.66911	22149273.186845582
1.67172	22969218.54706791
1.67432	23210394.76125527
1.67692	23223668.9093639
1.67951	23365999.72206886
1.68211	23267320.639814902
1.6847	23312513.456619456
1.68728	23737978.269461066
1.68987	23843533.469078794
1.69245	23520147.529978633
1.69503	23502859.325177237
1.6976	23915870.564068895
1.70018	23662303.7624061
1.70275	23735124.004132412
1.70531	23920300.788265683
1.70788	24184796.864640273
1.71044	24556638.32249443
1.713	24769246.272596907
1.71556	24877324.27928039
1.71811	24927409.060864326
1.72066	24814645.629724033
1.72321	24451211.599926714
1.72575	24338474.367978014
1.7283	24376729.60521687
1.73084	24510245.940892715
1.73337	24365384.74845186
1.73591	23513300.347039673
1.73844	24221736.367265224
1.74097	24042611.433794748
1.74349	24282426.7238759
1.74602	25270543.34608905
1.74854	25861569.913516138
1.75105	25780538.649697155
1.75357	25130536.439417426
1.75608	24841454.729567777
1.75859	25116778.0817281
1.7611	25155758.96201522
1.7636	24925359.54649597
1.7661	23123644.946149286
1.7686	22481570.912885677
1.7711	24859726.72334063
1.77359	23502053.293341253
1.77608	21664921.62741285
1.77857	23530415.181834582
1.78105	23863586.079983853
1.78354	22972293.776662957
1.78602	23024839.008589923
1.78849	21633962.43754008
1.79097	19447827.648923565
1.79344	21638137.61438704
1.79591	22562754.366264015
1.79837	23065755.459908187
1.80084	21139060.942922108
1.8033	22708029.466379233
1.80576	22084967.960148085
1.80821	18228013.18775506
1.81067	18274641.311851405
1.81312	21975866.545653112
1.81557	25359721.405451998
1.81801	24932787.628918115
1.82046	24437307.302228983
1.8229	26165035.6496168
1.82533	27262823.52030402
1.82777	27140197.854140446
1.8302	26181975.944434628
1.83263	24402304.64513956
1.83506	25792108.985638898
1.83749	26043042.898952425
1.83991	24456274.430286095
1.84233	25471509.92531382
1.84475	25423763.424677804
1.84716	22269586.75668827
1.84957	22565743.719042208
1.85198	25919434.19374556
1.85439	26893162.660961144
1.8568	24303844.559252415
1.8592	21253339.18978451
1.8616	18241545.045405783
1.864	19228548.611859206
1.86639	20533053.987159524
1.86878	19343861.853617214
1.87118	20813726.495620713
1.87356	20318349.763493948
1.87595	23476341.347658914
1.87833	26918353.270428598
1.88071	26522630.967699878
1.88309	25104131.903928418
1.88547	23503632.611272182
1.88784	24163114.914807253
1.89021	24921385.12725775
1.89258	25093566.162423063
1.89494	25210448.989566416
1.89731	26464691.748073205
1.89967	25605042.282436483
1.90203	23617287.34293693
1.90439	25767253.458052807
1.90674	28996754.392696936
1.90909	29968570.403971236
1.91144	28457109.38033472
1.91379	26719686.614020906
1.91613	27789654.841017425
1.91848	29905444.54805176
1.92082	27819654.45944031
1.92315	23635428.129104525
1.92549	26197504.99229065
1.92782	28872149.085681833
1.93015	27989257.07557819
1.93248	28388338.660498895
1.93481	28661207.08307421
1.93713	23833644.230178017
1.93945	20103595.010076597
1.94177	22230964.44478989
1.94409	22818428.273381718
1.94641	22859564.30223724
1.94872	23219465.659013916
1.95103	25536089.018813204
1.95334	26318256.917652763
1.95564	21608265.69077514
1.95795	20527763.181506764
1.96025	22789498.245031588
1.96255	25599770.156818442
1.96484	28660037.748523384
1.96714	29776634.019340377
1.96943	28626246.099115007
1.97172	29097939.71672952
1.97401	29733495.3752444
1.97629	28737413.07303227
1.97858	29238519.209570393
1.98086	29225674.872544587
1.98314	29343915.954940803
1.98541	30210757.773702435
1.98769	28803164.158039838
1.98996	26307878.566783067
1.99223	27034494.344377805
1.9945	29387689.65343717
1.99677	30015677.53670009
1.99903	28821931.24540598
2.00129	27863593.260489535
2.00355	29084323.34143993
2.00581	31161018.875513915
2.00806	31795063.10880775
2.01031	32307818.053781264
2.01256	33388787.023839578
2.01481	33432628.885353643
2.01706	32154265.476009067
2.0193	32075254.872567896
2.02154	33625940.06974834
2.02378	34201193.02453941
2.02602	33378198.663574662
2.02825	32525782.584568564
2.03049	32256829.489225637
2.03272	33515974.971372668
2.03494	34886796.17909393
2.03717	35152757.262564175
2.03939	35220509.11941773
2.04162	35317716.30044547
2.04384	35327931.88204946
2.04605	34894645.56563301
2.04827	33847352.78884155
2.05048	33731213.26921764
2.05269	34558622.5108535
2.0549	35124027.5144332
2.05711	35273008.83295432
2.05931	34609315.63200531
2.06151	34259624.974324636
2.06371	34926223.96521194
2.06591	35601788.64070313
2.06811	36056368.5746965
2.0703	36365985.06990614
2.07249	36600063.81176995
2.07468	36717421.78825263
2.07686	36820489.91673652
2.07905	37026540.0339478
2.08123	37190924.082547456
2.08341	37134642.20995867
2.08559	36856110.14693159
2.08776	36828731.68443141
2.08994	37101913.20198273
2.09211	37274413.41003542
2.09428	37399138.43747532
2.09645	37458007.229436986
2.09861	37374095.240069516
2.10077	37400774.19966124
2.10293	37621274.71891133
2.10509	37797659.96502588
2.10725	37754798.89823431
2.1094	37476293.198386446
2.11155	37079507.61312232
2.1137	36940539.378345326
2.11585	37237695.17134281
2.11799	37690462.291623905
2.12013	38061722.102509014
2.12227	38253107.41216577
2.12441	38306051.377230905
2.12655	38328299.07113436
2.12868	38343507.077925436
2.13081	38380204.71002124
2.13294	38490159.04061629
2.13507	38622635.90220065
2.13719	38706936.49407213
2.13931	38740616.38255022
2.14143	38737604.07627373
2.14355	38758473.2739502
2.14567	38812857.770944856
2.14778	38828666.40336957
2.14989	38807958.1682607
2.152	38722016.460650764
2.1541	38554436.87471427
2.15621	38598637.447484136
2.15831	38875937.84112594
2.16041	39032436.54352137
2.16251	39088766.41487596
2.1646	39122727.00786258
2.1667	39197588.89842746
2.16879	39282193.49344394
2.17087	39222184.06302326
2.17296	39127584.738116495
2.17504	39242978.70501196
2.17713	39467588.30165048
2.1792	39595053.64266039
2.18128	39651859.1545025
2.18336	39674429.41038009
2.18543	39675249.76343984
2.1875	39660469.08852118
2.18957	39668607.18545067
2.19163	39720988.75479012
2.1937	39750465.706827655
2.19576	39628851.11804507
2.19782	39252426.50496438
2.19987	38964095.41215205
2.20193	39019337.338844426
2.20398	39289608.45600386
2.20603	39650599.551596925
2.20808	39945947.34466174
2.21012	40106174.90239936
2.21217	40101791.80665646
2.21421	39860852.02793722
2.21625	39574768.227580674
2.21828	39503965.83151121
2.22032	39558047.81770245
2.22235	39494321.1562425
2.22438	39333193.43544269
2.22641	39293376.23041996
2.22843	39475739.40585558
2.23046	39723290.08819321
2.23248	39894283.969371594
2.2345	39996779.12283575
2.23651	39950935.25567406
2.23853	39636602.82359893
2.24054	39241830.50088829
2.24255	39289584.899172395
2.24456	39657919.8584319
2.24657	39667535.939593166
2.24857	39381885.2565915
2.25057	38996517.67857408
2.25257	38385550.731807254
2.25457	37459457.819088876
2.25656	37523064.19487797
2.25856	38601214.820102
2.26055	39328280.645437494
2.26254	39602127.10550933
2.26453	39803052.376261614
2.26651	39924491.38072995
2.2685	39846024.67267114
2.27048	39630251.68038324
2.27246	39610137.670097575
2.27443	39659016.58475576
2.27641	39707828.62487577
2.27838	39969878.70367873
2.28036	40408780.170305096
2.28233	40095287.05761177
2.28429	38200558.53187748
2.28626	35682242.38140931
2.28823	35429632.06651115
2.29019	36711393.83213657
2.29215	36612789.16771762
2.29411	35676605.63837104
2.29607	35859560.21692412
2.29802	37274271.32169468
2.29998	38564241.92462345
2.30193	39524552.414271645
2.30388	40047559.27940533
2.30583	40300430.30422388
2.30778	40360856.41199059
2.30972	40400643.77644431
2.31167	40312131.5588669
2.31361	39485838.8186294
2.31555	37813279.41827216
2.31749	36877476.90489617
2.31943	36899458.21058301
2.32137	36267534.034063965
2.32331	34857933.75849715
2.32524	34723413.80593419
2.32718	36134040.10050565
2.32911	36669155.12863704
2.33104	35786440.96672565
2.33297	34623405.40465688
2.3349	34860999.85328805
2.33683	36393721.0095392
2.33876	37714721.33176698
2.34068	38191118.77230937
2.34261	37788296.24190358
2.34453	36321083.42880043
2.34646	34426110.571734175
2.34838	34432870.5996319
2.3503	35839643.597851396
2.35223	37130564.93531936
2.35415	36737520.77492992
2.35607	34893221.94301449
2.35799	33583905.957016416
2.35991	33833795.55898923
2.36183	35372774.34997284
2.36375	36313664.27782985
2.36566	34559876.73928305
2.36758	31373617.405301876
2.3695	29974367.51951335
2.37142	31462151.98903386
2.37334	32796063.47845713
2.37526	33525402.08568996
2.37718	32977159.00581401
2.3791	31716847.338176534
2.38101	31591149.23275558
2.38293	33977267.87275484
2.38485	36141318.82793311
2.38677	36887977.10305036
2.3887	37854832.845984064
2.39062	39221650.22872214
2.39254	39734638.95213213
2.39446	39727400.99035835
2.39639	39037146.92170621
2.39831	37336837.431826845
2.40024	35297751.31305695
2.40216	34332243.43872557
2.40409	34512204.38781093
2.40602	34890410.522402406
2.40795	35380130.87194575
2.40989	36167409.10930464
2.41182	36180438.524307966
2.41376	34260543.86106138
2.4157	32335701.537811995
2.41764	32462952.943132304
2.41958	33930764.80566667
2.42152	34268326.57069362
2.42347	33908339.24376933
2.42542	32901633.998759273
2.42737	31957705.11934417
