#wavelength	surface flux
0.8	9897.052427426688
0.8002000000000001	9933.117617494561
0.8004000500000003	9967.378712450018
0.8006001500125003	10007.162330217281
0.8008003000500035	10040.768480297613
0.8010005001250161	10078.718722192023
0.8012007502500472	10118.295283822012
0.8014010504376099	10157.299364300794
0.8016014007002193	10192.456122864087
0.8018018010503944	10225.703236316655
0.8020022515006572	10266.474617667607
0.8022027520635323	10308.797739420088
0.8024033027515483	10347.294274246413
0.8026039035772362	10378.224085872389
0.8028045545531306	10414.07221781349
0.8030052556917691	10447.003791717872
0.803206007005692	10498.531416470123
0.8034068085074435	10541.55296789039
0.8036076602095705	10578.165819029779
0.8038085621246229	10617.813480435421
0.8040095142651542	10655.500907246755
0.8042105166437206	10693.35624933854
0.8044115692728815	10731.16285081588
0.8046126721651998	10762.384023495952
0.8048138253332411	10807.903713126236
0.8050150287895745	10850.292500430976
0.805216282546772	10891.723701851446
0.8054175866174087	10930.878482782491
0.8056189410140631	10970.648465416632
0.8058203457493168	11010.150871385234
0.8060218008357541	11049.769250564432
0.8062233062859632	11085.50326407372
0.8064248621125346	11131.759024000161
0.806626468328063	11174.468095066855
0.8068281249451449	11212.306128887343
0.8070298319763813	11254.559282305261
0.8072315894343755	11292.58386807045
0.8074333973317341	11324.994283379032
0.8076352556810671	11377.90848583079
0.8078371644949874	11422.742638009116
0.8080391237861113	11463.518571174322
0.8082411335670578	11503.963935740252
0.8084431938504498	11543.624727510294
0.8086453046489125	11587.511234520116
0.8088474659750746	11626.594759803744
0.8090496778415686	11664.637555967965
0.809251940261029	11701.59435044087
0.8094542532460944	11718.729538136937
0.8096566168094059	11759.769279056287
0.8098590309636085	11833.4077603539
0.8100614957213493	11878.978330162488
0.8102640110952797	11916.307503294793
0.8104665770980536	11967.515460659235
0.8106691937423283	11995.092911315398
0.8108718610407639	11935.48243545327
0.8110745790060241	11927.090557864136
0.8112773476507757	12095.461231173498
0.8114801669876885	12131.011674248508
0.8116830370294355	12163.0638651024
0.8118859577886929	12260.92462385624
0.8120889292781401	12318.074851434314
0.8122919515104597	12365.095188456122
0.8124950244983374	12414.078313950606
0.8126981482544621	12457.491196873943
0.8129013227915257	12499.510926643225
0.8131045481222237	12545.261472052836
0.8133078242592543	12580.268655517719
0.8135111512153191	12580.473296779037
0.813714529003123	12636.151776348908
0.8139179576353739	12717.951312869602
0.8141214371247829	12758.345028809861
0.8143249674840641	12763.549438627702
0.814528548725935	12694.799747722549
0.8147321808631167	12797.699199642517
0.8149358639083326	12921.886452521016
0.8151395978743097	12915.735071461928
0.8153433827737784	13002.235141779822
0.8155472186194719	13092.647384648866
0.8157511054241268	13143.717366395042
0.815955043200483	13188.259524541365
0.8161590319612831	13240.32297755393
0.8163630717192736	13284.56752255719
0.8165671624872033	13333.301047272236
0.8167713042778252	13385.781966559754
0.8169754971038948	13436.177251225181
0.8171797409781707	13482.505511327703
0.8173840359134155	13529.07177465391
0.8175883819223938	13576.22280247543
0.8177927790178745	13626.428836357469
0.8179972272126291	13663.27021095831
0.8182017265194322	13634.521486773709
0.8184062769510622	13436.98992158445
0.8186108785203001	13735.350146495659
0.8188155312399301	13865.28535038526
0.8190202351227402	13906.176772492818
0.819224990181521	13970.753109680678
0.8194297964290664	14014.411187700656
0.8196346538781738	14043.129987954986
0.8198395625416434	14099.034246710897
0.8200445224322789	14150.136948593
0.820249533562887	14219.412091210543
0.8204545959462778	14269.264394182434
0.8206597095952644	14321.45272027415
0.8208648745226633	14371.357398290324
0.8210700907412941	14419.554327754744
0.8212753582639793	14476.855121877774
0.8214806771035456	14526.89863363857
0.8216860472728215	14578.360774437555
0.8218914687846397	14636.669595756248
0.822096941651836	14688.534125758963
0.822302465887249	14739.528685735057
0.8225080415037209	14792.946903440272
0.8227136685140968	14796.736375372302
0.8229193469312254	14639.83507242155
0.8231250767679583	14717.906749443466
0.8233308580371503	14916.837970339435
0.8235366907516598	14955.749565563165
0.8237425749243477	14973.33257460474
0.8239485105680789	15105.84509012552
0.824154497695721	15211.073852771313
0.824360536320145	15270.32037371928
0.8245666264542252	15326.389992379773
0.8247727681108388	15379.137465335678
0.8249789613028664	15416.25818075879
0.8251852060431922	15480.515481780212
0.825391502344703	15545.152950999582
0.8255978502202894	15602.147512210035
0.8258042496828445	15657.201479660722
0.8260107007452654	15708.464966346088
0.8262172034204517	15747.700713412176
0.8264237577213068	15703.183275311672
0.8266303636607373	15600.356206508894
0.8268370212516525	15877.887443734031
0.8270437305069654	15994.124513969318
0.8272504914395923	16046.442405372518
0.8274573040624523	16101.70460549114
0.8276641683884679	16153.320815562194
0.8278710844305652	16205.656444005539
0.8280780522016729	16273.55436278028
0.8282850717147234	16332.45350826868
0.8284921429826521	16391.01260587635
0.8286992660183978	16440.798134359713
0.8289064408349024	16479.04677759796
0.8291136674451112	16531.606124183312
0.8293209458619727	16608.45464869807
0.8295282760984382	16674.882237256083
0.829735658167463	16720.10587705678
0.8299430920820048	16783.329239997605
0.8301505778550254	16853.17988545539
0.8303581154994891	16917.22276085815
0.8305657050283641	16975.024107009714
0.8307733464546212	17028.089014820554
0.8309810397912352	17058.946791863276
0.8311887850511829	17109.649543025545
0.8313965822474458	17064.705454593288
0.8316044313930077	17133.292170877296
0.8318123325008561	17309.860536804044
0.8320202855839813	17399.486545974847
0.8322282906553774	17461.45388659616
0.8324363477280413	17518.817346188724
0.8326444568149735	17575.492242968285
0.8328526179291771	17640.27153835178
0.8330608310836596	17701.93578003738
0.8332690962914304	17756.658557982268
0.8334774135655034	17820.175332161234
0.833685782918895	17888.436329653385
0.8338942043646247	17944.147579152967
0.834102677915716	18006.921298958216
0.834311203585195	18073.288439005315
0.8345197813860912	18135.8676693513
0.8347284113314379	18203.810377334503
0.8349370934342709	18268.14502030613
0.8351458277076294	18331.754680243845
0.8353546141645565	18395.493159307858
0.8355634528180977	18452.51653327088
0.8357723436813022	18514.83941323192
0.8359812867672226	18570.313723644525
0.8361902820889144	18632.113309267843
0.8363993296594368	18708.148545800886
0.8366084294918518	18759.25152173757
0.8368175815992247	18847.325607442555
0.8370267859946247	18908.65151305161
0.8372360426911234	18957.762981871107
0.8374453517017962	19037.014242176578
0.8376547130397217	19097.445285443522
0.8378641267179816	19172.051298130868
0.8380735927496613	19245.3311427006
0.8382831111478488	19291.19439000529
0.8384926819256358	19305.961886681336
0.8387023050961173	19381.70835390092
0.8389119806723914	19492.995006967034
0.8391217086675596	19575.14864278766
0.8393314890947265	19653.688535269288
0.8395413219670003	19721.97544621727
0.8397512072974922	19782.569959898938
0.8399611450993165	19831.824769145973
0.8401711353855914	19825.77245597855
0.8403811781694378	19929.558751763903
0.8405912734639802	20052.738620316803
0.8408014212823464	20129.972600573736
0.8410116216376671	20199.012147434278
0.8412218745430766	20265.40117878782
0.8414321800117124	20341.575109136964
0.8416425380567154	20412.623546005227
0.8418529486912297	20482.180809266883
0.8420634119284025	20553.3619171137
0.8422739277813847	20625.974966267855
0.8424844962633302	20696.804795867036
0.842695117387396	20758.73282216136
0.8429057911667428	20817.1073979488
0.8431165176145345	20894.32125870764
0.8433272967439382	20978.294784826783
0.8435381285681244	21052.602464553547
0.8437490131002665	21126.455125140197
0.8439599503535415	21190.793404767013
0.84417094034113	21223.97236809236
0.8443819830762154	21312.103306829973
0.8445930785719846	21338.95433060853
0.8448042268416277	21471.447121940007
0.8450154278983382	21565.035423281322
0.8452266817553128	21634.0507010333
0.8454379884257517	21707.395575826216
0.8456493479228583	21782.219090704857
0.845860760259839	21866.2886315889
0.846072225449904	21934.40327553804
0.8462837435062666	21945.861196626967
0.8464953144421433	21896.243314881198
0.8467069382707537	22014.06217402013
0.8469186150053215	22213.313539783878
0.847130344659073	22311.532825593717
0.8473421272452377	22384.89481907074
0.8475539627770492	22443.133067580315
0.8477658512677435	22535.411401955807
0.8479777927305605	22611.2562371679
0.8481897871787432	22673.19030271986
0.848401834625538	22765.855583872184
0.8486139350841944	22857.79108896727
0.8488260885679657	22918.16279056678
0.8490382950901076	22957.83412424453
0.8492505546638802	23061.617648281364
0.8494628673025462	23156.155418022416
0.8496752330193721	23243.492993576532
0.8498876518276269	23328.24556221607
0.8501001237405839	23404.648683577023
0.8503126487715191	23480.352774135776
0.850525226933712	23561.279927091353
0.8507378582404455	23646.66268358385
0.8509505427050057	23726.040819424463
0.8511632803406821	23807.154220384702
0.8513760711607672	23886.70495271427
0.8515889151785576	23967.58568814498
0.8518018124073523	24049.84133323814
0.8520147628604541	24123.77451582232
0.8522277665511693	24190.097152963277
0.8524408234928071	24296.14045507699
0.8526539336986805	24382.685647628176
0.8528670971821053	24461.391273590387
0.8530803139564007	24534.81609716431
0.8532935840348901	24608.953130419482
0.8535069074308987	24693.24871231488
0.8537202841577566	24784.847692310686
0.8539337142287962	24861.52711249416
0.8541471976573534	24903.46482417184
0.8543607344567677	25014.834238404135
0.8545743246403821	25127.348080915082
0.8547879682215422	25212.77431461418
0.8550016652135977	25293.683700617312
0.8552154156299011	25378.42088104142
0.8554292194838088	25468.407453950804
0.8556430767886797	25550.803425977145
0.855856987557877	25643.462897132562
0.8560709518047664	25732.748282897464
0.8562849695427177	25817.45433063661
0.8564990407851035	25903.669720112135
0.8567131655452999	25994.78332346791
0.8569273438366862	26085.10239406624
0.8571415756726455	26170.341565910385
0.8573558610665638	26241.33994311147
0.8575702000318304	26339.60785633051
0.8577845925818384	26429.068719609157
0.857999038729984	26525.273698525707
0.8582135384896665	26613.886680926986
0.858428091874289	26688.831077799467
0.8586426988972576	26774.231178897044
0.8588573595719821	26867.92002856604
0.8590720739118751	26961.428978822743
0.8592868419303532	27048.427054785858
0.8595016636408359	27140.752587661493
0.8597165390567462	27235.636812222023
0.8599314681915105	27325.42419352336
0.8601464510585584	27417.69761233909
0.860361487671323	27512.593362122043
0.8605765780432408	27606.2740845973
0.8607917221877518	27693.695547216223
0.8610069201182988	27787.449903848283
0.8612221718483286	27882.640660158195
0.8614374773912907	27976.929280881806
0.8616528367606385	28069.807047611677
0.8618682499698288	28140.367526280545
0.8620837170323213	28225.788933257474
0.8622992379615795	28332.09748298875
0.8625148127710699	28409.44124383029
0.8627304414742627	28497.586147480524
0.8629461240846313	28620.17255309279
0.8631618606156526	28722.57331199879
0.8633776510808066	28817.230975318857
0.8635934954935769	28917.140976906478
0.8638093938674504	29016.121004124638
0.8640253462159173	29068.911739830277
0.8642413525524714	29095.041905531103
0.8644574128906095	29274.476830493863
0.8646735272438323	29338.39125522246
0.8648896956256433	29383.870845182573
0.8651059180495498	29550.23108019416
0.8653221945290621	29693.122989771105
0.8655385250776946	29785.837449122595
0.8657549097089641	29891.71992122852
0.8659713484363913	29996.66885508603
0.8661878412735006	30106.454951853255
0.866404388233819	30205.973435325366
0.8666209893308775	30298.23071892804
0.8668376445782103	30405.208823463887
0.8670543539893549	30508.11944577247
0.8672711175778525	30594.20791576711
0.8674879353572469	30681.802156601854
0.8677048073410862	30793.07121170635
0.8679217335429217	30898.872948303408
0.8681387139763074	31000.888967108956
0.8683557486548015	31090.745065336476
0.8685728375919655	31203.703920644628
0.8687899808013633	31314.645577034822
0.8690071782965637	31421.839093385926
0.869224430091138	31527.00742630598
0.8694417361986609	31632.08827682417
0.8696590966327107	31727.21880405429
0.869876511406869	31800.80914525773
0.8700939805347206	31899.64402954121
0.8703115040298544	32037.105517655065
0.870529081905862	32158.126115835912
0.8707467141763385	32271.907557018298
0.8709644008548827	32373.094909804335
0.8711821419550964	32470.857030447773
0.8713999374905854	32573.822059357975
0.871617787474958	32690.538693784318
0.8718356919218269	32790.00641503196
0.8720536508448075	32897.82929208932
0.8722716642575187	33017.18891211255
0.8724897321735832	33130.14402574809
0.8727078546066265	33239.94433964301
0.8729260315702784	33352.029251384214
0.873144263078171	33459.91604287826
0.8733625491439405	33574.171398955295
0.8735808897812266	33686.588096408734
0.8737992850036719	33766.925724771354
0.874017734824923	33811.3618692549
0.8742362392586293	33992.37416313623
0.874454798318444	34116.42678571206
0.8746734120180236	34233.97115668423
0.8748920803710283	34347.85844390529
0.875110803391121	34460.48407007535
0.8753295810919689	34574.3643508464
0.875548413487242	34692.20565495924
0.8757673005906139	34807.39893144328
0.8759862424157616	34915.40256640328
0.8762052389763657	35025.727938095464
0.8764242902861098	35144.73858691623
0.8766433963586814	35254.0958920782
0.8768625572077712	35375.51109214885
0.8770817728470732	35489.82963475693
0.8773010432902849	35612.29714368195
0.8775203685511077	35733.59535574569
0.8777397486432454	35851.67252125291
0.8779591835804065	35968.46829484411
0.8781786733763015	36081.644126952386
0.8783982180446457	36195.548733387004
0.878617817599157	36307.33686392186
0.8788374720535569	36434.26936568597
0.8790571814215703	36551.95150434181
0.8792769457169257	36669.72896116367
0.879496764953355	36796.99703458033
0.8797166391445934	36919.79172543328
0.8799365683043796	37040.506851780076
0.8801565524464557	37157.80692262565
0.8803765915845676	37277.84771698327
0.8805966857324639	37400.631693430136
0.880816834903897	37516.581516002276
0.881037039112623	37624.747974688384
0.8812572983724012	37749.16119006297
0.8814776126969944	37868.93208027615
0.8816979821001687	38006.78456130953
0.8819184065956938	38136.695297188504
0.8821388861973429	38254.12497965116
0.8823594209188923	38375.86339317664
0.882580010774122	38507.66520009259
0.8828006557768155	38635.57845754931
0.8830213559407598	38757.424687346575
0.8832421112797452	38877.46411761843
0.8834629218075651	38939.78282298768
0.8836837875380171	38971.618523307974
0.8839047084849018	39161.24853786244
0.884125684662023	39378.25839135042
0.8843467160831886	39517.45116096423
0.8845678027622095	39644.2517116761
0.8847889447129001	39769.4196358256
0.8850101419490785	39897.66228068851
0.8852313944845657	40026.139320016635
0.885452702333187	40160.279030904174
0.8856740655087704	40280.79767027697
0.8858954840251476	40365.39930876697
0.8861169578961539	40498.33844618363
0.886338487135628	40669.10834356605
0.886560071757412	40807.9535401563
0.8867817117753515	40943.214858752595
0.8870034072032955	41077.524452256
0.8872251580550963	41206.963308579805
0.8874469643446101	41332.109002836994
0.8876688260856963	41457.99993567934
0.8878907432922178	41602.088675738574
0.8881127159780409	41733.20445673435
0.8883347441570356	41842.79630451863
0.8885568278430749	41971.36292729686
0.8887789670500358	42126.828730798945
0.8890011617917983	42264.6891653215
0.8892234120822464	42412.899946220794
0.8894457179352669	42550.7583922808
0.8896680793647509	42682.19626644197
0.8898904963845921	42785.801746078934
0.8901129690086883	42923.77252585034
0.8903354972509405	43094.35741666079
0.8905580811252535	43231.40699633485
0.8907807206455347	43200.16647659829
0.8910034158256963	42829.25652959226
0.8912261666796527	43325.86757024946
0.8914489732213227	43729.105313163185
0.8916718354646282	43758.53527835109
0.8918947534234944	43824.53428161898
0.8921177271118502	43886.67262537014
0.8923407565436284	43558.00059248577
0.8925638417327644	44079.71470104597
0.8927869826931977	44574.69764255206
0.8930101794388711	44739.89152802353
0.8932334319837308	44556.68640154791
0.8934567403417267	44355.8350957028
0.8936801045268123	45047.47779732534
0.8939035245529441	45291.304222580584
0.8941270004340824	45380.00016298552
0.894350532184191	45286.782251979115
0.8945741198172371	45548.576277128544
0.8947977633471915	45900.8082779807
0.8950214627880284	46078.26898884798
0.8952452181537254	46197.826297795655
0.8954690294582639	46324.697519419315
0.8956928967156286	46501.87613550528
0.8959168199398075	46594.67441084281
0.8961407991447926	46682.64361666133
0.8963648343445789	46716.01952238443
0.896588925553165	46573.18779206569
0.8968130727845534	46955.11794702027
0.8970372760527496	46943.09787596145
0.8972615353717629	45269.861929607774
0.8974858507556059	45085.07691376495
0.8977102222182949	47433.32537109715
0.8979346497738496	48017.35358141654
0.8981591334362931	48167.666520672894
0.8983836732196523	48315.48857496681
0.8986082691379572	48416.939380772594
0.8988329212052417	47326.07156768266
0.8990576294355432	45655.5351692579
0.8992823938429022	47370.49264370467
0.8995072144413631	48763.799676350616
0.8997320912449734	49201.31999282941
0.8999570242677847	49378.51008421423
0.9001820135238516	49489.7130816282
0.9004070590272328	49336.834679591295
0.9006321607919896	48766.6626944743
0.9008573188321878	49265.87977563539
0.9010825331618959	49418.3855957967
0.9013078037951865	50172.91089923432
0.9015331307461353	50442.44298561249
0.9017585140288219	50615.632095229965
0.9019839536573292	50809.64293439633
0.9022094496457435	50982.061983379135
0.9024350020081551	51129.35058947296
0.9026606107586572	51278.062364144025
0.902886275911347	51428.87182378327
0.9031119974803249	51510.57047032149
0.9033377754796951	51704.91981011588
0.903563609923565	51934.52145420534
0.903789500826046	52055.020027861785
0.9040154482012526	52077.63386599055
0.904241452063303	52381.97883498724
0.9044675124263188	52510.19187710394
0.9046936293044254	52599.53114052365
0.9049198027117517	52823.7596469582
0.9051460326624297	53040.050338006906
0.9053723191705955	53247.769808036974
0.9055986622503881	53430.789044338984
0.9058250619159507	53598.28714258312
0.9060515181814298	53747.104420213014
0.9062780310609752	53784.04121249385
0.9065046005687405	53924.819367568554
0.906731226718883	54191.608505346674
0.9069579095255627	54388.55749463341
0.907184649002944	54530.69566070062
0.907411445165195	54744.37017351945
0.9076382980264862	54850.766521221325
0.907865207600993	54972.64806762889
0.9080921739028933	55214.3702756683
0.9083191969463691	55390.26801834076
0.9085462767456058	55448.33582962683
0.9087734133147922	55458.83218543711
0.9090006066681211	55864.88549021031
0.909227856819788	56111.694275396294
0.9094551637839932	56260.43015733998
0.9096825275749393	56470.83842396208
0.9099099482068329	56497.765016712045
0.9101374256938848	56661.59117206226
0.9103649600503083	56763.789217324535
0.9105925512903209	57110.73988851011
0.9108201994281437	57304.06944649071
0.9110479044780008	57470.56394801193
0.9112756664541204	57688.1480303055
0.911503485370734	57883.75311155324
0.9117313612420768	58065.28829161464
0.9119592940823873	58266.893928289486
0.912187283905908	58468.05045295803
0.9124153307268845	58652.94087939236
0.9126434345595664	58830.37351269178
0.9128715954182063	59004.00160350274
0.9130998133170609	59166.645298308744
0.9133280882703902	59270.16172868504
0.913556420292458	59469.89931299422
0.9137848093975312	59684.67596197733
0.9140132555998806	59920.90728013188
0.9142417589137806	60050.9749331383
