#wavelength	surface flux
0.6450077295303345	3316.8090290916207
0.6472567915916443	3526.903741456931
0.6494921445846558	3744.299317793818
0.6517150402069092	3969.4913753523037
0.6539263725280762	4204.243160510395
0.6561272740364075	4450.112124211463
0.6583186388015747	4703.607392982472
0.6605015397071838	4977.734401348648
0.6626768708229065	5258.719288473255
0.6648455858230591	5550.936145862802
0.6670085787773132	5858.134900904882
0.6691668033599854	6172.530793256049
0.6713210344314575	6437.523673201122
0.6734722256660461	6857.4328720764415
0.6756211519241333	7221.6727759026
0.6777685880661011	7586.665516523815
0.6799154281616211	7988.5088995119
0.6820623278617859	8398.815852948695
0.6842101216316223	8837.222090813057
0.6863595843315125	9287.173311056104
0.688511312007904	9753.536814016761
0.6906660795211792	10235.433433021835
0.6928245425224304	10721.008385584997
0.6949873566627502	11284.337197811035
0.6971551775932312	11842.959953705924
0.6993286609649658	12378.058464240337
0.7015084028244019	13038.447998983436
0.7036949396133423	13674.80071704426
0.7058889269828796	14340.397954432394
0.7080909013748169	15025.398867681939
0.710301399230957	15733.817037498637
0.712520956993103	16498.535153687302
0.7147500514984131	17280.293569706097
0.7169892191886902	18013.250191141247
0.7192389369010925	18944.69435841343
0.7214996814727783	19835.679981499667
0.723771870136261	20778.32004582672
0.7260559797286987	21753.151434451127
0.7283523678779602	22770.10286986388
0.7306615710258484	23785.89351966261
0.7329838871955872	24904.4931494856
0.7353196740150452	25973.835103907182
0.7376693487167358	27197.81256700584
0.7400332689285278	28387.46163033647
0.7424117922782898	29633.718105768807
0.7448052167892456	30900.001392369082
0.7472138404846191	32242.082522739358
0.7496379613876343	33571.889794852716
0.7520779371261597	34777.86045633401
0.7545340061187744	35824.812954282716
0.7570064663887024	36408.77919630781
0.7594954967498779	35818.63193740136
0.7620013952255249	31947.275004043782
0.7645244002342224	19641.23371857717
0.7670646905899048	9912.61365557005
0.7696225643157959	11562.27407736653
0.7721980810165405	26457.363357693335
0.7747915983200073	43086.91018021206
0.7774031162261963	50592.174797162865
0.7800329327583313	44930.60017641697
0.7826811671257019	59237.14505174564
0.7853479981422424	63129.526340757555
0.7880334854125977	66606.3150624136
0.7907378077507019	70034.44547800384
0.7934610247612	71149.45283830877
0.7962033748626709	73215.35368090293
0.7989648580551147	80786.96365993455
0.801745593547821	84654.77648694847
0.8045456409454346	88690.76361961293
0.8073651194572449	92835.04376251041
0.8102040886878967	96888.60299186425
0.8130625486373901	101251.83926912428
0.8159406185150146	106113.73530204888
0.8188382983207703	110859.12002090304
0.8217556476593018	116108.72499659249
0.8246926665306091	121346.29622448649
0.8276493549346924	126882.20744733758
0.8306257724761963	132637.03452915407
0.8336219191551208	138793.05406872075
0.8366377949714661	144925.1288359046
0.8396733403205872	151437.4222538997
0.8427285552024841	158434.3916618236
0.8458034992218018	165374.38051328214
0.8488980531692505	172784.71503627437
0.8520121574401855	180570.9630209625
0.8551458716392517	188519.39728394852
0.8582990765571594	196883.22214149957
0.8614717125892639	204259.88899967982
0.8646637797355652	212718.08885710014
0.8678751587867737	223176.34948546035
0.8711057901382446	232770.41549490523
0.8743556141853333	243223.5159519359
0.87762451171875	253978.31458853564
0.8809124231338501	264945.0241745473
0.8842192888259888	276566.62052524724
0.8875449895858765	288524.07400048396
0.8908893465995789	299844.5479226561
0.894252359867096	312492.22326035786
0.8976338505744934	322151.02991485794
0.9010337591171265	339182.11645136867
0.9044519662857056	354823.0572004797
0.9078882932662964	369261.7642073539
0.9113426208496094	384262.535054789
0.914814829826355	400221.1434011927
0.9183048605918884	415821.0879856579
0.9218124747276306	433567.2248104125
0.925337553024292	446764.20368431637
0.9288799166679382	450194.6851069401
0.9324395060539246	448554.4471558275
0.9360161423683167	482084.33372514736
0.9396095871925354	521512.0884913233
0.943219780921936	543573.4315382754
0.9468464851379395	545371.7295711541
0.9504896402359009	566036.4194422876
0.9541489481925964	599192.8706066279
0.9578243494033813	626319.4654860504
0.9615156054496765	646768.4427567377
0.9652225375175476	676466.7974506023
0.9689450263977051	713773.4689644097
0.9726828336715698	728699.1243840815
0.9764357805252075	769148.7048673484
0.9802037477493286	795902.6191676194
0.983986496925354	830807.3487540163
0.9877838492393494	863915.6822738298
0.9915955662727356	897830.6434415785
0.9954215884208679	932524.6770864476
0.9992615580558777	965865.5981263632
1.0031154155731201	1000728.1683305609
1.0069829225540161	1036613.134405879
1.0108637809753418	1073912.7068558012
1.0147579908370972	1111927.3159727922
1.018665075302124	1150979.601393804
1.022585153579712	1190945.8149536992
1.0265177488327026	1232003.2269208909
1.0304628610610962	1274118.793116497
1.0344202518463135	1316896.8315012152
1.0383895635604858	1361403.8154864947
1.0423706769943237	1406915.6465751317
1.0463634729385376	1453061.7493442341
1.0503677129745483	1500532.5155533722
1.0543830394744873	1549304.4902860168
1.058409333229065	1599386.6820183627
1.0624464750289917	1653197.8993016756
1.0664942264556885	1705707.2140398591
1.0705522298812866	1759911.1025878612
1.0746204853057861	1816094.4916546505
1.0786986351013184	1870350.666704311
1.0827864408493042	1929627.5095865524
1.086883783340454	1985790.9392395774
1.0909905433654785	2040102.210037372
1.0951062440872192	2091539.3913610252
1.0992310047149658	2118658.6115737204
1.10336434841156	2146539.5399964354
1.1075061559677124	2193017.7558065928
1.1116561889648438	2194936.686662937
1.115814208984375	1985999.8018406385
1.1199802160263062	2233592.5154792923
1.124153733253479	2042181.866793442
1.1283347606658936	2457530.0160688194
1.1325229406356812	2497400.095406537
1.1367181539535522	2576765.130517487
1.1409201622009277	2807805.7757941317
1.145128846168518	2724053.666085719
1.1493438482284546	2646481.3252695464
1.1535650491714478	2937311.2269337755
1.1577922105789185	3089065.7654563957
1.1620250940322876	3128197.6927677984
1.1662636995315552	3226373.4664297462
1.170507550239563	3280665.001399968
1.174756646156311	3404111.670357595
1.1790107488632202	3552558.8072964386
1.1832695007324219	3665078.3357688794
1.1875330209732056	3763147.6008830583
1.191800832748413	3876810.0239378894
1.1960728168487549	3978435.2144673886
1.2003488540649414	4075897.70898984
1.2046287059783936	4190487.766711704
1.2089121341705322	4291587.142941009
1.2131990194320679	4383216.760400745
1.2174891233444214	4505910.527412103
1.2217823266983032	4608846.854735434
1.2260783910751343	4718494.335979725
1.230377197265625	4827080.976823746
1.2346785068511963	4943522.697294019
1.238982081413269	5057032.537246595
1.2432878017425537	5168236.8595109545
1.2475954294204712	5278400.626738573
1.2519049644470215	5398404.006888137
1.256216049194336	5514856.975885609
1.2605286836624146	5631295.156487639
1.2648425102233887	5746783.054712911
1.2691574096679688	5864269.326746408
1.2734732627868652	5979117.73225033
1.2777899503707886	6108680.292783615
1.2821072340011597	6204212.471477447
1.2864248752593994	6325148.006378466
1.2907428741455078	6444385.459503301
1.2950609922409058	6467565.570132983
1.2993791103363037	6633084.2388062645
1.303696870803833	6794963.4001440015
1.3080145120620728	6947524.704807042
1.3123314380645752	7056155.466899086
1.3166478872299194	7156337.443775045
1.3209635019302368	7286372.51795629
1.3252781629562378	7381134.882690495
1.3295916318893433	7388742.345419332
1.3339040279388428	7047283.100984867
1.3382149934768677	5442303.702542159
1.3425244092941284	4788499.437410631
1.3468321561813354	4304949.16212876
1.3511382341384888	4694716.991737796
1.3554422855377197	4001238.9272593483
1.3597444295883179	3689103.484694
1.3640443086624146	4905496.531012241
1.3683418035507202	5074955.938056163
1.3726370334625244	5935302.279609616
1.3769296407699585	6270902.120526543
1.381219506263733	5757496.584074544
1.3855066299438477	4751725.824280497
1.3897908926010132	5702327.938887544
1.3940720558166504	5048167.280273437
1.3983501195907593	5685824.036136098
1.4026249647140503	6423907.270097239
1.4068963527679443	6503449.955587691
1.4111642837524414	6510800.989340031
1.4154287576675415	6259342.165297575
1.419689416885376	5403833.815053289
1.4239463806152344	5118196.056983454
1.4281994104385376	7261770.053099596
1.4324485063552856	6305395.524471938
1.436693549156189	7547176.583331468
1.440934419631958	7026914.329007149
1.4451709985733032	7915161.540953579
1.449403166770935	8421743.849851847
1.453631043434143	8588197.22757899
1.4578542709350586	10128532.998646475
1.4620729684829712	9626641.138242379
1.4662868976593018	10227018.734174449
1.4704961776733398	10412070.32833059
1.4747005701065063	10553563.06101364
1.4788999557495117	11275575.413168019
1.4830944538116455	10993054.898132293
1.4872838258743286	11581334.129540611
1.491468071937561	11979413.16845969
1.4956470727920532	12108908.983764857
1.4998208284378052	12583329.37059088
1.5039892196655273	12844598.386831535
1.5081522464752197	13053079.625634633
1.5123097896575928	13387800.385381272
1.5164618492126465	13614383.159348676
1.5206083059310913	13900975.99729769
1.5247491598129272	14178594.427548103
1.5288842916488647	13906491.57806033
1.5330137014389038	14717563.004268674
1.5371372699737549	15043108.687357305
1.541254997253418	15166487.68696511
1.545366883277893	15357958.204637358
1.5494728088378906	15683763.961261956
1.5535727739334106	15871875.689240806
1.5576666593551636	16020679.485725561
1.561754584312439	16275549.134714505
1.5658363103866577	16455058.370239925
1.5699119567871094	16736007.651328197
1.5739814043045044	16927067.920717377
1.5780447721481323	17114740.94006717
1.582101821899414	17311821.23802324
1.5861525535583496	17362537.62891519
1.5901970863342285	17594579.584327042
1.5942351818084717	17798484.23715463
1.5982669591903687	18010294.086217042
1.6022924184799194	18212958.846288808
1.606311559677124	18341094.27307746
1.6103241443634033	18536817.67952468
1.6143304109573364	18710917.71395521
1.6183301210403442	18877893.643837634
1.6223233938217163	18866517.701107994
1.6263102293014526	18695016.597433228
1.6302905082702637	18440393.559103895
1.634264349937439	19006191.19685324
1.638231635093689	19585908.721018247
1.6421923637390137	19733847.15921699
1.646146535873413	19830243.207613595
1.6500942707061768	20010379.119624484
1.6540353298187256	20061937.19072627
1.6579699516296387	20007641.167011753
1.661897897720337	20433898.2807006
1.6658192873001099	19220726.715682592
1.6697341203689575	19495742.881697774
1.6736423969268799	20997571.431449845
1.677544116973877	21174210.162366662
1.6814392805099487	21117219.893298782
1.6853278875350952	21071974.588454343
1.6892099380493164	21630915.059774525
1.6930854320526123	20674763.21903506
1.696954369544983	21297606.420433495
1.7008168697357178	20491918.451817513
1.7046726942062378	20958546.61116743
1.708522081375122	21594435.39578081
1.712364912033081	22486094.421138484
1.7162011861801147	22702139.28390077
1.7200311422348022	22546976.093230233
1.723854422569275	21673138.579660024
1.7276713848114014	21768090.97870214
1.731481909751892	21790835.19516856
1.7352858781814575	21310803.194455948
1.7390835285186768	22024948.666784342
1.7428747415542603	21773872.354922306
1.7466596364974976	22341491.678775314
1.7504380941390991	22803265.988930088
1.7542102336883545	20580648.523623817
1.7579760551452637	20845322.394872263
1.7617355585098267	20452124.744637337
1.7654887437820435	19165725.031637833
1.7692357301712036	18794777.755358253
1.7729763984680176	19385311.905686382
1.776710867881775	16117720.990547232
1.7804391384124756	17679427.63917683
1.7841613292694092	14956919.362869902
1.7878772020339966	15034598.444055911
1.7915871143341064	14393878.376394471
1.7952908277511597	16133358.125706976
1.7989884614944458	16309053.386712939
1.8026801347732544	12960794.79278796
1.806365728378296	13066085.721119987
1.8100452423095703	11798525.173316868
1.8137187957763672	15640222.107611733
1.817386507987976	16873958.880183067
1.8210482597351074	15640105.302526362
1.8247040510177612	18603118.880797386
1.828354001045227	16566233.503112571
1.8319982290267944	16147803.366512468
1.8356364965438843	16098410.228170665
1.8392690420150757	15446636.121344976
1.8428958654403687	15905130.896608612
1.8465168476104736	14434840.333293281
1.8501322269439697	15248937.959466804
1.8537418842315674	17752911.126241244
1.8573459386825562	14483217.557518406
1.860944390296936	10744305.881925687
1.864537239074707	10843914.49737333
1.8681244850158691	11155688.096443465
1.871706247329712	11952756.37600792
1.8752825260162354	13704148.02023493
1.8788533210754395	18145923.55285112
1.8824186325073242	18235678.735572364
1.8859784603118896	16257127.69255261
1.8895330429077148	16255781.422821745
1.8930821418762207	18005419.141683437
1.8966259956359863	19648261.171231154
1.9001644849777222	16588959.117626805
1.9036977291107178	17303891.190204825
1.9072256088256836	21208114.349070262
1.9107483625411987	21206654.590234637
1.9142658710479736	17083430.755970854
1.9177782535552979	22031743.47981267
1.9212853908538818	18142188.24512617
1.9247875213623047	17380632.904667407
1.9282845258712769	19825818.968058277
1.9317764043807983	17679637.99922875
1.9352631568908691	18632014.14560426
1.9387450218200684	11300612.981708916
1.942221760749817	14951357.80271
1.9456936120986938	15531941.57592625
1.9491604566574097	14931416.118556466
1.952622413635254	19314324.693605516
1.956079363822937	14930645.039817441
1.959531545639038	14769479.253321962
1.962978720664978	15733174.900415588
1.966421127319336	20087222.55632936
1.9698586463928223	19086447.23316675
1.9732913970947266	20942992.787493523
1.9767193794250488	20086791.747810178
1.9801424741744995	19923579.522987477
1.9835609197616577	21883653.184460856
1.9869745969772339	23733543.812347032
1.990383505821228	18492141.937830783
1.9937876462936401	21030173.890377413
1.9971871376037598	22449293.87174756
2.000581979751587	21688836.63540313
2.003972291946411	24908553.60518712
2.007357597351074	25227167.80324702
2.0107386112213135	26091799.024335336
2.0141148567199707	29256694.256168623
2.017486572265625	27745885.47474392
2.0208535194396973	29986161.234634046
2.0242159366607666	30743673.695682395
2.027573823928833	28853101.65808389
2.0309269428253174	28556688.72940734
2.034275770187378	31871564.190187547
2.0376198291778564	32316517.88731096
2.040959596633911	32147291.889332037
2.044294595718384	32464494.57571248
2.0476250648498535	31915776.006050084
2.0509510040283203	31334379.743374273
2.054272413253784	31904816.00841815
2.057589530944824	32368828.511108086
2.0609018802642822	30796545.384857085
2.0642096996307373	31892707.49346011
2.0675129890441895	33128986.03016166
2.0708119869232178	33782986.74789143
2.074106216430664	34096687.20415716
2.0773961544036865	34212937.42197916
2.080681324005127	34799720.83078431
2.0839622020721436	34686690.04298645
2.087238311767578	34243839.227425344
2.090510129928589	34737337.64817101
2.0937774181365967	34950059.78518646
2.0970399379730225	35043159.46776949
2.1002981662750244	34977469.93973763
2.1035518646240234	35394865.72055255
2.1068007946014404	35377561.40769154
2.1100454330444336	34418954.01300501
2.1132853031158447	33690683.410639055
2.116520881652832	34552559.55042367
2.1197516918182373	35569689.15524865
2.1229779720306396	35912262.85697136
2.12619948387146	35949352.39739752
2.1294167041778564	35934569.35169412
2.132629156112671	36073605.36831533
2.1358368396759033	36336752.6958049
2.139039993286133	36403422.10605161
2.1422386169433594	36315092.8440908
2.145432472229004	36365510.979926206
2.1486217975616455	36233668.70029507
2.151806354522705	35686187.90860629
2.1549863815307617	35119708.66916346
2.1581614017486572	35945940.48682722
2.16133189201355	36381665.285825945
2.1644976139068604	36474779.57651039
2.167658567428589	36652453.095288806
2.1708147525787354	36605695.99018867
2.173966407775879	36408504.490002096
2.1771130561828613	36837632.65433419
2.1802549362182617	37033543.692866325
2.183391809463501	36970010.60919944
2.1865241527557373	36978252.81906385
2.1896514892578125	37004536.10459002
2.1927738189697266	37083640.47782568
2.1958916187286377	36645468.470173426
2.1990041732788086	34933360.64732692
2.2021119594573975	34338893.37534461
2.2052149772644043	35610677.741842516
2.208312749862671	36991136.32694676
2.2114057540893555	37306878.10348891
2.214493751525879	36523312.201319486
2.217576742172241	35609544.62738641
2.2206547260284424	35857691.68375001
2.2237277030944824	35441856.853981264
2.2267956733703613	34665402.91049681
2.2298583984375	34611347.54920037
2.2329163551330566	35088485.89517142
2.235969066619873	35580216.76131697
2.2390167713165283	33983644.73061168
2.2420592308044434	32703560.635101065
2.2450966835021973	34101326.16224447
2.248128890991211	33760962.67574533
2.2511560916900635	32911025.80644101
2.254178285598755	31417236.541412827
2.257194995880127	31988360.99546304
2.260206699371338	33579473.95813681
2.2632133960723877	32881213.729565233
2.266214609146118	33540667.190984327
2.2692108154296875	34569965.52608314
2.2722020149230957	34939604.31993562
2.2751877307891846	34480578.407555915
2.278168201446533	34400449.401994295
2.2811436653137207	35942946.94519054
2.284113883972168	32925572.993323058
2.287078857421875	28912321.629777066
2.290038824081421	30991149.72920818
2.2929933071136475	30371811.929495316
2.295942783355713	29688554.93987111
2.298887014389038	30837973.47471864
2.301826238632202	33215787.164396733
2.304760217666626	34995326.53919177
2.3076889514923096	35361499.72530263
2.310612440109253	35368899.04218543
2.3135311603546143	33754949.76498094
2.3164443969726562	29204039.88532291
2.319352865219116	29648990.128749073
2.322256088256836	30682798.050161723
2.3251543045043945	29594804.453424633
2.328047275543213	30221171.045061868
2.330935478210449	30489711.17587626
2.3338186740875244	30093988.600330513
2.3366971015930176	30137848.526155848
2.3395702838897705	30302599.689878862
2.3424389362335205	29898329.534314018
2.3453025817871094	27978218.02102611
2.348161458969116	26406988.279259037
2.351015567779541	28241519.582505707
2.353865146636963	29919411.66680708
2.3567099571228027	29377254.37372535
2.3595502376556396	29661439.785504144
2.3623859882354736	31689870.863824155
2.3652172088623047	33191272.794547103
2.368043899536133	28240579.19499183
2.370866537094116	24050087.490679055
2.3736846446990967	24301980.137519095
2.3764986991882324	24826980.94103524
2.3793084621429443	26356428.18000238
2.3821144104003906	28572107.79556414
2.384916305541992	29529672.109462105
2.387714147567749	30473238.1987668
2.3905084133148193	34134261.75186663
2.393299102783203	35366615.998878844
2.3960859775543213	32645583.37443408
2.398869514465332	28497025.505746745
2.4016497135162354	26808736.298949175
2.4044265747070312	27055110.471416906
2.407200336456299	27171541.849624794
2.409970998764038	27740347.381661285
2.4127390384674072	27965768.18703586
2.415503978729248	25352281.942649547
2.418266534805298	24129375.536217898
2.4210267066955566	25708707.69721415
2.4237842559814453	26753955.019019462
2.426539897918701	25359132.64588694
2.429293394088745	24196454.048321057
2.4320452213287354	25401922.59442043
2.4347951412200928	24308166.491556615
2.4375438690185547	23082017.05618318
2.440291166305542	24139154.18400577
2.443037271499634	23783163.76658131
2.445782423019409	23979359.699884284
2.4485268592834473	24013335.004240405
2.451270818710327	21237263.846749343
2.454014539718628	20575951.974693317
2.4567582607269287	23091517.340040118
2.4595019817352295	24100249.597487092
2.4622461795806885	25555459.876740847
2.4649908542633057	24344735.960755423
2.4677364826202393	18637751.356014196
2.4704833030700684	16391985.224069513
2.473231554031372	17420528.011911616
2.4759814739227295	19135124.897533566
2.4787333011627197	19366593.737014156
