#wavelength	surface flux
0.8	37578.709157986435
0.8002000000000001	37669.08501195656
0.8004000500000003	37764.866398529884
0.8006001500125003	37941.42121209487
0.8008003000500035	38040.47129753184
0.8010005001250161	38167.12159911718
0.8012007502500472	38297.820137901115
0.8014010504376099	38418.33111890742
0.8016014007002193	38540.15762423902
0.8018018010503944	38645.72917878421
0.8020022515006572	38808.24261974958
0.8022027520635323	38952.64839830642
0.8024033027515483	39087.85414665725
0.8026039035772362	39200.340292129644
0.8028045545531306	39326.39701790175
0.8030052556917691	39450.78667520156
0.803206007005692	39608.03896074357
0.8034068085074435	39746.48239395437
0.8036076602095705	39869.36675510196
0.8038085621246229	40012.60778190014
0.8040095142651542	40140.45762502729
0.8042105166437206	40268.8805453359
0.8044115692728815	40389.3020377634
0.8046126721651998	40487.37066458081
0.8048138253332411	40622.93623125358
0.8050150287895745	40761.240809500734
0.805216282546772	40904.15865744314
0.8054175866174087	41035.460307598856
0.8056189410140631	41172.03028486121
0.8058203457493168	41306.524663935525
0.8060218008357541	41447.994982963486
0.8062233062859632	41565.56352291137
0.8064248621125346	41721.79328402448
0.806626468328063	41868.61561864036
0.8068281249451449	41994.473296386845
0.8070298319763813	42139.32206662282
0.8072315894343755	42265.494814507816
0.8074333973317341	42370.86148303773
0.8076352556810671	42547.19074735502
0.8078371644949874	42702.044816094
0.8080391237861113	42841.90402306148
0.8082411335670578	42976.98098703364
0.8084431938504498	43110.816148036996
0.8086453046489125	43256.52676935877
0.8088474659750746	43387.90396388107
0.8090496778415686	43521.6024228947
0.809251940261029	43648.75287018645
0.8094542532460944	43710.891238283046
0.8096566168094059	43849.827418628265
0.8098590309636085	44086.38514389933
0.8100614957213493	44236.571490463415
0.8102640110952797	44359.389067423166
0.8104665770980536	44524.31886884845
0.8106691937423283	44629.44059396622
0.8108718610407639	44495.89364003511
0.8110745790060241	44498.78866106796
0.8112773476507757	44972.54522659184
0.8114801669876885	45084.60883373852
0.8116830370294355	45197.3954129821
0.8118859577886929	45502.31253704691
0.8120889292781401	45687.71772578841
0.8122919515104597	45844.700752485354
0.8124950244983374	46002.180694799536
0.8126981482544621	46142.121886886285
0.8129013227915257	46284.356415422095
0.8131045481222237	46437.34647855802
0.8133078242592543	46554.9123710101
0.8135111512153191	46573.56974855514
0.813714529003123	46756.54208906145
0.8139179576353739	47012.468655823206
0.8141214371247829	47138.57445174075
0.8143249674840641	47170.75037155485
0.814528548725935	47018.086734489545
0.8147321808631167	47333.878284863546
0.8149358639083326	47705.02669467525
0.8151395978743097	47728.62057108178
0.8153433827737784	47985.27383871607
0.8155472186194719	48246.29872805659
0.8157511054241268	48409.912826061096
0.815955043200483	48554.39413453046
0.8161590319612831	48723.582236059854
0.8163630717192736	48864.881932271164
0.8165671624872033	49027.86334698919
0.8167713042778252	49200.532218896195
0.8169754971038948	49362.8201454888
0.8171797409781707	49513.0701435543
0.8173840359134155	49675.40283786445
0.8175883819223938	49827.996524307935
0.8177927790178745	49984.912607040795
0.8179972272126291	50110.04631629204
0.8182017265194322	50085.972028026306
0.8184062769510622	49642.91692523556
0.8186108785203001	50408.00532846922
0.8188155312399301	50777.91097856974
0.8190202351227402	50918.596028654065
0.819224990181521	51114.56749778726
0.8194297964290664	51256.15896115799
0.8196346538781738	51360.43329835559
0.8198395625416434	51537.693832852485
0.8200445224322789	51701.543113978165
0.820249533562887	51919.71181834653
0.8204545959462778	52086.24828636667
0.8206597095952644	52255.468043850204
0.8208648745226633	52416.167857459965
0.8210700907412941	52569.106162051416
0.8212753582639793	52749.751204932916
0.8214806771035456	52914.19517303045
0.8216860472728215	53084.14025651248
0.8218914687846397	53272.82363460005
0.822096941651836	53441.757623028956
0.822302465887249	53607.31155151072
0.8225080415037209	53776.93272256918
0.8227136685140968	53806.92609419588
0.8229193469312254	53388.988381002535
0.8231250767679583	53628.8267517343
0.8233308580371503	54209.097737290744
0.8235366907516598	54353.66682029904
0.8237425749243477	54420.74623408575
0.8239485105680789	54809.53136432351
0.824154497695721	55126.04295572578
0.824360536320145	55316.87662592003
0.8245666264542252	55497.08751944211
0.8247727681108388	55667.31007863341
0.8249789613028664	55795.6107966297
0.8251852060431922	55995.50043156611
0.825391502344703	56206.40915859607
0.8255978502202894	56387.9290084174
0.8258042496828445	56562.33068874271
0.8260107007452654	56729.59338296187
0.8262172034204517	56857.45549113301
0.8264237577213068	56769.710667746374
0.8266303636607373	56523.66321023945
0.8268370212516525	57302.52302777278
0.8270437305069654	57643.23735131466
0.8272504914395923	57811.76595387888
0.8274573040624523	57986.06560089046
0.8276641683884679	58152.55164936571
0.8278710844305652	58323.14730759126
0.8280780522016729	58539.65118006813
0.8282850717147234	58724.3243816426
0.8284921429826521	58908.29323139764
0.8286992660183978	59069.7240148238
0.8289064408349024	59188.16061838162
0.8291136674451112	59360.98802996303
0.8293209458619727	59612.602912480346
0.8295282760984382	59821.992899667384
0.829735658167463	59966.128550919086
0.8299430920820048	60160.09435300869
0.8301505778550254	60381.81536139692
0.8303581154994891	60587.02988724817
0.8305657050283641	60773.82436423082
0.8307733464546212	60946.289767855276
0.8309810397912352	61057.34523604096
0.8311887850511829	61221.76976146441
0.8313965822474458	61148.92274203561
0.8316044313930077	61374.29498417366
0.8318123325008561	61857.48265464538
0.8320202855839813	62129.98715102013
0.8322282906553774	62323.82212137247
0.8324363477280413	62502.79721169053
0.8326444568149735	62687.560945600766
0.8328526179291771	62897.85214149935
0.8330608310836596	63086.603102221176
0.8332690962914304	63257.02651101419
0.8334774135655034	63463.70114355905
0.833685782918895	63674.317543568905
0.8338942043646247	63855.84830133672
0.834102677915716	64052.49709830365
0.834311203585195	64261.09113656524
0.8345197813860912	64460.79608102811
0.8347284113314379	64667.29035588947
0.8349370934342709	64868.82231657023
0.8351458277076294	65075.72903081219
0.8353546141645565	65277.75610574472
0.8355634528180977	65458.06484312196
0.8357723436813022	65655.88376093272
0.8359812867672226	65840.48076779791
0.8361902820889144	66029.69343729505
0.8363993296594368	66254.31820261567
0.8366084294918518	66423.43475904933
0.8368175815992247	66694.0742230063
0.8370267859946247	66894.56136525831
0.8372360426911234	67058.75472398751
0.8374453517017962	67299.26906078024
0.8376547130397217	67485.22171237678
0.8378641267179816	67718.82760440602
0.8380735927496613	67951.48164696446
0.8382831111478488	68102.6618923288
0.8384926819256358	68172.32961501731
0.8387023050961173	68412.53900920179
0.8389119806723914	68740.66412630455
0.8391217086675596	68985.01816671988
0.8393314890947265	69220.36536572497
0.8395413219670003	69437.82188309099
0.8397512072974922	69638.44236127581
0.8399611450993165	69793.54977455368
0.8401711353855914	69794.8930368814
0.8403811781694378	70107.7642130947
0.8405912734639802	70473.20433374982
0.8408014212823464	70706.3617212848
0.8410116216376671	70925.79605841976
0.8412218745430766	71130.67828873893
0.8414321800117124	71374.13296447376
0.8416425380567154	71595.69569669818
0.8418529486912297	71814.35489693905
0.8420634119284025	72031.82974106475
0.8422739277813847	72257.28477140599
0.8424844962633302	72479.60343731393
0.842695117387396	72671.0797195755
0.8429057911667428	72854.85014191041
0.8431165176145345	73097.81770075476
0.8433272967439382	73358.94266351807
0.8435381285681244	73591.99108758995
0.8437490131002665	73819.88196945787
0.8439599503535415	74020.79401865642
0.84417094034113	74142.36980334463
0.8443819830762154	74407.26620950716
0.8445930785719846	74506.51097678908
0.8448042268416277	74892.34685193529
0.8450154278983382	75172.08738752612
0.8452266817553128	75387.0050681786
0.8454379884257517	75608.82814385789
0.8456493479228583	75837.71827675172
0.845860760259839	76104.03003745536
0.846072225449904	76317.58124613496
0.8462837435062666	76376.14714076351
0.8464953144421433	76270.2102848025
0.8467069382707537	76625.69385524951
0.8469186150053215	77194.67648856438
0.847130344659073	77483.62066975323
0.8473421272452377	77714.20274698889
0.8475539627770492	77900.00443467096
0.8477658512677435	78176.69464674118
0.8479777927305605	78418.23291670869
0.8481897871787432	78611.25446649764
0.848401834625538	78885.67483994353
0.8486139350841944	79163.23418047275
0.8488260885679657	79346.33297623861
0.8490382950901076	79474.05612905722
0.8492505546638802	79796.70019586378
0.8494628673025462	80092.50072235605
0.8496752330193721	80357.38149043998
0.8498876518276269	80612.31927148368
0.8501001237405839	80846.30508170622
0.8503126487715191	81084.63587551839
0.850525226933712	81333.03782982432
0.8507378582404455	81589.00620796587
0.8509505427050057	81825.149403126
0.8511632803406821	82078.35942741857
0.8513760711607672	82329.05609442407
0.8515889151785576	82572.26431699938
0.8518018124073523	82818.58392634029
0.8520147628604541	83053.00953251412
0.8522277665511693	83259.18583266182
0.8524408234928071	83570.49284542502
0.8526539336986805	83833.88566754342
0.8528670971821053	84065.74745953245
0.8530803139564007	84243.60086430889
0.8532935840348901	84412.50878565568
0.8535069074308987	84669.02534098423
0.8537202841577566	84960.25506909439
0.8539337142287962	85198.80887576679
0.8541471976573534	85339.54414345486
0.8543607344567677	85683.1729886087
0.8545743246403821	86033.11539527659
0.8547879682215422	86303.12841303303
0.8550016652135977	86558.74720663589
0.8552154156299011	86823.2460785621
0.8554292194838088	87101.49784269618
0.8556430767886797	87365.2048424595
0.855856987557877	87650.64779459182
0.8560709518047664	87924.60128212061
0.8562849695427177	88180.60399684732
0.8564990407851035	88442.67471063136
0.8567131655452999	88721.13544871942
0.8569273438366862	88993.59664240049
0.8571415756726455	89248.93113188923
0.8573558610665638	89479.58951724197
0.8575702000318304	89778.40527119352
0.8577845925818384	90048.49799931838
0.857999038729984	90335.85950218202
0.8582135384896665	90566.5832605027
0.858428091874289	90707.61036166734
0.8586426988972576	90965.97137136279
0.8588573595719821	91258.6217427128
0.8590720739118751	91549.8619850849
0.8592868419303532	91830.94776988629
0.8595016636408359	92116.2497792649
0.8597165390567462	92377.67842773716
0.8599314681915105	92634.6795383228
0.8601464510585584	92915.37868263184
0.860361487671323	93208.15506130242
0.8605765780432408	93504.82155650442
0.8607917221877518	93788.65059887868
0.8610069201182988	94071.8929074152
0.8612221718483286	94357.86276057217
0.8614374773912907	94635.58751164732
0.8616528367606385	94914.2992333812
0.8618682499698288	95062.9501547286
0.8620837170323213	95316.41566790128
0.8622992379615795	95676.22280936968
0.8625148127710699	95831.85211691963
0.8627304414742627	96098.071302062
0.8629461240846313	96552.73180659387
0.8631618606156526	96781.49147626321
0.8633776510808066	97046.77189202682
0.8635934954935769	97344.56596592789
0.8638093938674504	97663.02595633834
0.8640253462159173	97784.47039578618
0.8642413525524714	97777.95226255686
0.8644574128906095	98448.4961271008
0.8646735272438323	98613.32974329726
0.8648896956256433	98699.13284568179
0.8651059180495498	99254.39347851824
0.8653221945290621	99688.10446747826
0.8655385250776946	99975.44638526431
0.8657549097089641	100324.51927550072
0.8659713484363913	100635.77406418156
0.8661878412735006	100978.88638282262
0.866404388233819	101276.23161491445
0.8666209893308775	101561.44036536344
0.8668376445782103	101902.77660898083
0.8670543539893549	102201.08148927294
0.8672711175778525	102379.42617850286
0.8674879353572469	102548.33574047167
0.8677048073410862	102907.04881807079
0.8679217335429217	103259.99860615979
0.8681387139763074	103579.92099760013
0.8683557486548015	103828.47180149728
0.8685728375919655	104169.19157315062
0.8687899808013633	104531.7848285149
0.8690071782965637	104884.50450110134
0.869224430091138	105211.6771689342
0.8694417361986609	105516.7254124597
0.8696590966327107	105772.13259710539
0.869876511406869	105944.7726113299
0.8700939805347206	106214.30529329307
0.8703115040298544	106673.15482897166
0.870529081905862	107052.6371309674
0.8707467141763385	107407.42559053282
0.8709644008548827	107696.74931638832
0.8711821419550964	107949.09066909133
0.8713999374905854	108240.19757798892
0.871617787474958	108670.23539281897
0.8718356919218269	108968.0070536291
0.8720536508448075	109259.0897168857
0.8722716642575187	109602.11235329119
0.8724897321735832	109966.23113485384
0.8727078546066265	110305.39522747975
0.8729260315702784	110637.00977926012
0.873144263078171	110957.6715504511
0.8733625491439405	111303.77739154646
0.8735808897812266	111632.22731860833
0.8737992850036719	111847.01233533444
0.874017734824923	111918.68086858348
0.8742362392586293	112517.0794015849
0.874454798318444	112859.28055017321
0.8746734120180236	113195.97194452114
0.8748920803710283	113541.19521089636
0.875110803391121	113884.81005435417
0.8753295810919689	114229.54284793597
0.875548413487242	114575.39837304177
0.8757673005906139	114922.36444549786
0.8759862424157616	115257.9869230849
0.8762052389763657	115562.58432061286
0.8764242902861098	115917.25290198291
0.8766433963586814	116243.58997040984
0.8768625572077712	116571.8056459379
0.8770817728470732	116871.47261585636
0.8773010432902849	117268.91147532992
0.8775203685511077	117651.93988995167
0.8777397486432454	117998.4371125118
0.8779591835804065	118343.85137271584
0.8781786733763015	118681.0581342169
0.8783982180446457	119007.34163796823
0.878617817599157	119339.38363686526
0.8788374720535569	119715.85382401619
0.8790571814215703	120031.71313104726
0.8792769457169257	120361.08640062458
0.879496764953355	120764.03398217268
0.8797166391445934	121128.16377856475
0.8799365683043796	121479.24785339485
0.8801565524464557	121815.65989992007
0.8803765915845676	122169.95691216427
0.8805966857324639	122535.93074852656
0.880816834903897	122871.7170256399
0.881037039112623	123199.24530311645
0.8812572983724012	123547.67793186723
0.8814776126969944	123850.32756936512
0.8816979821001687	124235.64352472212
0.8819184065956938	124646.4331225433
0.8821388861973429	125007.27777492834
0.8823594209188923	125337.19552803448
0.882580010774122	125725.40477775696
0.8828006557768155	126096.79898066037
0.8830213559407598	126457.36865006965
0.8832421112797452	126813.59800901792
0.8834629218075651	126956.25710532363
0.8836837875380171	126995.47886253861
0.8839047084849018	127596.46067476827
0.884125684662023	128271.01009967778
0.8843467160831886	128678.94385362347
0.8845678027622095	129039.77782909332
0.8847889447129001	129406.35167869642
0.8850101419490785	129778.55203533925
0.8852313944845657	130130.97569718873
0.885452702333187	130533.9411257321
0.8856740655087704	130875.65771416415
0.8858954840251476	131090.94959274036
0.8861169578961539	131476.5782702107
0.886338487135628	132001.2143036346
0.886560071757412	132402.1081613924
0.8867817117753515	132793.47094047695
0.8870034072032955	133173.9269260251
0.8872251580550963	133547.11235104443
0.8874469643446101	133907.82742817572
0.8876688260856963	134281.5053824233
0.8878907432922178	134688.98408494945
0.8881127159780409	135064.96338793155
0.8883347441570356	135383.980967692
0.8885568278430749	135713.74583289164
0.8887789670500358	136184.7005455048
0.8890011617917983	136602.65645996307
0.8892234120822464	137024.80828150606
0.8894457179352669	137419.4475926635
0.8896680793647509	137782.982544251
0.8898904963845921	138083.4527305698
0.8901129690086883	138486.71036797445
0.8903354972509405	138963.8340301063
0.8905580811252535	139351.40057108374
0.8907807206455347	139312.94203558407
0.8910034158256963	138436.1217046211
0.8912261666796527	139607.555444846
0.8914489732213227	140762.35457361085
0.8916718354646282	140908.21657417537
0.8918947534234944	141126.33163128173
0.8921177271118502	141377.59452240588
0.8923407565436284	140646.08022174507
0.8925638417327644	141939.0407121849
0.8927869826931977	143197.86620514223
0.8930101794388711	143653.79348558135
0.8932334319837308	143284.97890714562
0.8934567403417267	142907.7445541022
0.8936801045268123	144590.10608811045
0.8939035245529441	145171.13985210945
0.8941270004340824	145462.56348145474
0.894350532184191	145375.06207915777
0.8945741198172371	146082.05963642502
0.8947977633471915	146987.23664564145
0.8950214627880284	147458.21749372408
0.8952452181537254	147740.3681881368
0.8954690294582639	148074.93328585403
0.8956928967156286	148663.25196687537
0.8959168199398075	148962.98722571594
0.8961407991447926	149223.32041336806
0.8963648343445789	149368.22900962943
0.896588925553165	149019.7784993763
0.8968130727845534	149972.60869256032
0.8970372760527496	150111.55874352172
0.8972615353717629	146415.0705705712
0.8974858507556059	146116.0916878479
0.8977102222182949	151552.62696881674
0.8979346497738496	152974.96547650005
0.8981591334362931	153388.45132752202
0.8983836732196523	153786.76565988932
0.8986082691379572	154107.29056342843
0.8988329212052417	151841.2819832979
0.8990576294355432	148228.25289196457
0.8992823938429022	151959.8828488344
0.8995072144413631	155160.98143427656
0.8997320912449734	156309.09561816108
0.8999570242677847	156777.82029636903
0.9001820135238516	157061.4171662034
0.9004070590272328	156918.13762561177
0.9006321607919896	155835.54009150967
0.9008573188321878	156975.19678473994
0.9010825331618959	157382.4400804261
0.9013078037951865	159117.21071325996
0.9015331307461353	159802.89864957923
0.9017585140288219	160289.2903913634
0.9019839536573292	160805.66217174623
0.9022094496457435	161291.96669925423
0.9024350020081551	161714.69881814028
0.9026606107586572	162130.15018439654
0.902886275911347	162555.99008910067
0.9031119974803249	162815.68930857553
0.9033377754796951	163335.0758529821
0.903563609923565	163970.11123783994
0.903789500826046	164349.21304136163
0.9040154482012526	164469.25933624027
0.904241452063303	165260.097897944
0.9044675124263188	165623.52152323187
0.9046936293044254	165892.2858376821
0.9049198027117517	166479.67953894188
0.9051460326624297	167071.271815264
0.9053723191705955	167657.82165526735
0.9055986622503881	168155.2279178002
0.9058250619159507	168630.51559261122
0.9060515181814298	169058.12190187295
0.9062780310609752	169215.15926914418
0.9065046005687405	169610.25413681744
0.906731226718883	170284.85955517003
0.9069579095255627	170837.69854004413
0.907184649002944	171254.34331183883
0.907411445165195	171792.43861878174
0.9076382980264862	172104.71518163156
0.907865207600993	172479.41349563558
0.9080921739028933	173133.66864314475
0.9083191969463691	173630.08063156877
0.9085462767456058	173846.2909079194
0.9087734133147922	173965.56182439547
0.9090006066681211	174976.1127201423
0.909227856819788	175606.86523361353
0.9094551637839932	176032.76259663745
0.9096825275749393	176601.6626632234
0.9099099482068329	176766.5706407565
0.9101374256938848	177226.20980142636
0.9103649600503083	177579.55761338328
0.9105925512903209	178410.14187108938
0.9108201994281437	178836.66341262712
0.9110479044780008	179345.74357695435
0.9112756664541204	179972.61879245425
0.911503485370734	180511.14587183166
0.9117313612420768	181005.02409881036
0.9119592940823873	181570.67571907557
0.912187283905908	182141.4009677188
0.9124153307268845	182631.48771274864
0.9126434345595664	183100.65215552173
0.9128715954182063	183573.94886527283
0.9130998133170609	184036.30811728854
0.9133280882703902	184353.03544701438
0.913556420292458	184887.10245731892
0.9137848093975312	185463.25221932857
0.9140132555998806	186118.048075314
0.9142417589137806	186525.35724975067
0.9144703193535092	185751.70825415407
0.9146989369333476	185932.7363856951
