#wavelength	surface flux
0.7	252.03645844500525
0.7001166666666666	253.1547607005469
0.7002333527777778	254.19485317501977
0.700350058336574	255.039210201354
0.7004667833462966	255.95179178589862
0.7005835278101878	256.9154481407137
0.7007002917314895	257.8027034611034
0.7008170751134447	258.68374748867944
0.7009338779592968	259.6012515359628
0.7010507002722901	260.50753563898667
0.7011675420556689	261.3991361126116
0.701284403312678	262.2993219652769
0.7014012840465635	263.2020107892684
0.7015181842605713	264.02453151377523
0.701635103957948	264.81264853663845
0.701752043141941	265.52038031797736
0.701869001815798	266.46149454344237
0.7019859799827672	267.5649134762309
0.7021029776460976	268.355448217094
0.7022199948090387	269.1318119782539
0.7023370314748403	270.0457832993715
0.7024540876467528	271.07097930915774
0.702571163328027	272.22567753506814
0.7026882585219152	273.2337563786321
0.7028053732316688	274.1883871051868
0.7029225074605406	275.02586064445484
0.7030396612117841	275.80514329191976
0.7031568344886527	276.4705671275025
0.7032740272944008	277.4850709732795
0.7033912396322832	278.7032626268765
0.7035084715055552	279.774997056134
0.7036257229174727	280.789997390273
0.7037429938712924	281.6447835691538
0.7038602843702709	282.605793854009
0.7039775944176659	283.66729398759105
0.7040949240167356	284.6506282253793
0.7042122731707383	285.6165903735675
0.7043296418829335	286.5909245108786
0.7044470301565806	287.54195202150635
0.70456443799494	288.4580220371021
0.7046818654012724	289.458708846141
0.7047993123788394	290.49625942748685
0.7049167789309024	291.33988308209274
0.7050342650607243	292.2738684023445
0.7051517707715678	293.4299465400796
0.7052692960666963	294.50830252250455
0.705386840949374	295.53260140551873
0.7055044054228656	296.5017402452111
0.7056219894904361	297.4871894906905
0.7057395931553511	298.5733455767847
0.705857216420877	299.633256477483
0.7059748592902804	300.6654396263856
0.7060925217668288	301.689602208644
0.70621020385379	302.71221899004934
0.7063279055544321	303.74037930597467
0.7064456268720246	304.76879329088194
0.7065633678098366	305.79750875509524
0.7066811283711383	306.80958288808347
0.7067989085592001	307.81423289707135
0.7069167083772933	308.7898474855462
0.7070345278286895	309.6961821725809
0.707152366916661	310.43578258190496
0.7072702256444803	311.0497629130711
0.7073881040154211	311.57854138765134
0.7075060020327569	313.1810503845703
0.7076239196997625	314.8136502350943
0.7077418570197124	316.090095666249
0.7078598139958823	317.26603429331703
0.7079777906315483	318.3442468359829
0.7080957869299869	319.3921246551212
0.7082138028944751	320.44863071772545
0.7083318385282908	321.62258465847896
0.7084498938347124	322.762240297393
0.708567968817018	323.8549547852855
0.7086860634784875	324.72348316009675
0.7088041778224007	325.491748938423
0.7089223118520377	325.79950445554573
0.7090404655706796	326.69037080460646
0.709158638981608	328.70096369423686
0.709276832088105	330.0285922427693
0.7093950448934531	330.98854016489344
0.7095132774009353	330.5588756825857
0.7096315296138355	330.9186453568479
0.7097498015354378	333.6176500370271
0.7098680931690269	335.39176478432876
0.7099864045178884	336.4838985964683
0.7101047355853081	337.7815762429689
0.7102230863745722	339.09396964692564
0.7103414568889679	340.3563856451703
0.7104598471317828	341.59249529925614
0.7105782571063047	342.80286768016305
0.7106966868158224	343.7570662267804
0.710815136263625	344.71263646569406
0.7109336054530023	346.07029283489766
0.7110520943872445	347.3912380920928
0.7111706030696424	348.6653187820066
0.7112891315034873	349.9152356403723
0.7114076796920712	351.15569062583876
0.7115262476386865	352.37282811426354
0.7116448353466263	353.5411650237334
0.711763442819184	354.6290745200556
0.711882070059654	355.83063823934907
0.7120007170713306	357.0826905401603
0.7121193838575091	358.29130847788866
0.7122380704214853	359.5005230936197
0.7123567767665555	360.71077632988636
0.7124755028960166	361.7659716447656
0.7125942488131658	362.73244634515737
0.7127130145213015	363.7987599510965
0.7128318000237216	364.9344196298111
0.7129506053237256	366.24562268348694
0.7130694304246129	367.5122918824367
0.7131882753296837	368.7473288305915
0.7133071400422386	369.9421217282644
0.7134260245655789	370.82123899587395
0.7135449289030065	370.5890214540885
0.7136638530578235	371.9314630386181
0.7137827970333332	374.6324781940333
0.7139017608328388	376.1137357649916
0.7140207444596443	377.399260006947
0.7141397479170543	378.73394456986654
0.7142587712083737	379.86654733700556
0.7143778143369084	380.79190254451976
0.7144968773059646	382.49124825929965
0.7146159601188489	384.28909217568025
0.7147350627788687	385.57652174872857
0.7148541852893318	386.86012105680925
0.7149733276535467	388.13908604083696
0.7150924898748222	389.16774828529896
0.715211671956468	390.19335938291704
0.7153308739017941	391.85511376387194
0.715450095714111	393.43486592207967
0.71556933739673	394.9013270125679
0.7156885989529628	396.16701301786026
0.7158078803861218	397.36798930792776
0.7159271816995193	398.63505830979994
0.7160465028964692	399.5047133034973
0.7161658439802853	399.7517731906153
0.7162852049542819	399.4254860565381
0.7164045858217744	398.94092329611385
0.716523986586078	400.2506798813796
0.7166434072505089	398.6572621532051
0.716762847818384	391.97840151376164
0.7168823082930204	395.4767740292271
0.7170017886777359	403.513498843098
0.7171212889758488	407.78190761919177
0.7172408091906781	410.27475912415224
0.7173603493255433	409.341463948838
0.7174799093837642	409.16488008301116
0.7175994893686615	409.3638832876375
0.7177190892835562	412.2317779372234
0.7178387091317702	415.5269802667901
0.7179583489166254	419.691122211769
0.7180780086414448	421.49638143235626
0.7181976883095517	422.0418848759773
0.7183173879242699	424.65261264509525
0.718437107488924	426.85168193422066
0.7185568470068389	428.0429551574062
0.7186766064813399	427.92947974119005
0.7187963859157535	427.08077657160715
0.7189161853134061	430.7483298242118
0.719036004677625	434.0128713463904
0.7191558440117378	436.01106446913946
0.7192757033190732	437.64250012083335
0.7193955826029597	439.06005662549444
0.7195154818667269	440.2023444494733
0.7196354011137046	441.4566339523649
0.7197553403472235	443.00328870944315
0.7198752995706147	444.6730312508333
0.7199952787872098	446.41591384990426
0.720115278000341	447.6265481575472
0.7202352972133411	448.8051228404096
0.7203553364295432	449.9588128986181
0.7204753956522815	451.1553349194444
0.7205954748848902	452.3773198571486
0.7207155741307044	454.0979107065865
0.7208356933930594	455.9275829275892
0.7209558326752915	457.9687634457329
0.7210759919807375	459.40363038443144
0.7211961713127342	460.4860842565377
0.7213163706746197	460.70825446344134
0.7214365900697322	461.50443559898923
0.7215568295014103	463.67755417044384
0.721677088972994	465.8981341395565
0.7217973684878227	468.1454645712278
0.7219176680492374	468.4520948022626
0.7220379876605789	469.4774129919174
0.722158327325189	472.15480297289434
0.7222786870464099	474.58569460092644
0.7223990668275843	476.88618768139736
0.7225194666720555	478.51088623472623
0.7226398865831676	480.0632005138014
0.7227603265642646	481.4797219552581
0.722880786618692	482.14719075974614
0.7230012667497951	482.4660012369871
0.7231217669609201	484.5976580105208
0.7232422872554135	486.46039548858175
0.7233628276366229	487.82519214351385
0.7234833881078956	489.63756131973395
0.7236039686725803	491.5444416938835
0.7237245693340255	490.3588620438872
0.7238451900955812	490.85619071355495
0.7239658309605971	494.1634870075837
0.7240864919324239	497.25409074133034
0.7242071730144127	500.17905953270855
0.724327874209915	501.8334121756722
0.7244485955222832	503.6454227737394
0.7245693369548704	505.69136203324456
0.7246900985110294	507.4744969499029
0.7248108801941148	509.1920553408654
0.7249316820074803	511.14930401936255
0.7250525039544815	512.9612421493006
0.7251733460384739	514.5839485619923
0.7252942082628137	515.9889361922244
0.7254150906308574	517.3102307674948
0.7255359931459625	518.4757927765904
0.7256569158114868	519.857594832378
0.7257778586307888	521.4826302396234
0.7258988216072273	523.2689323529659
0.7260198047441617	525.1419021375469
0.7261408080449525	527.2721594118466
0.72626183151296	528.7711598668599
0.7263828751515454	529.6656607286651
0.7265039389640706	532.1746544561662
0.726625022953898	534.6181575649605
0.7267461271243904	535.7876027936069
0.7268672514789111	536.961402701852
0.7269883960208241	538.1387310509041
0.7271095607534942	540.8612101233001
0.7272307456802866	543.5234201748302
0.7273519508045666	545.5259387933278
0.7274731761297006	547.1280853175058
0.7275944216590555	548.4673419789455
0.7277156873959987	549.6020064484745
0.7278369733438982	549.9556093682535
0.727958279506122	548.5499684640037
0.7280796058860397	551.599964173742
0.7282009524870207	556.966396892335
0.7283223193124353	559.8395380184104
0.7284437063656539	562.3829166142034
0.7285651136500483	564.3396729589474
0.7286865411689898	565.9455830799646
0.7288079889258514	567.3213814996109
0.7289294569240056	567.4361785291477
0.7290509451668262	568.468853247218
0.7291724536576875	570.772858095442
0.7292939823999636	573.3606105699712
0.7294155313970303	576.0045151875592
0.7295371006522632	578.4621570329186
0.7296586901690385	580.4955724209642
0.7297802999507332	582.0741604808056
0.7299019300007252	582.6822293781828
0.7300235803223919	583.0863904952045
0.7301452509191123	583.4225900554447
0.7302669417942654	584.1865032105981
0.7303886529512311	585.3003664074984
0.7305103843933897	581.5759331481968
0.7306321361241218	581.0056230983649
0.7307539081468093	590.6215390340662
0.7308757004648336	596.1844404768267
0.7309975130815778	599.2791169173453
0.7311193460004248	601.821438172705
0.7312411992247582	604.3746433097429
0.7313630727579622	606.9713158522309
0.7314849666034219	608.8551839565017
0.7316068807645224	610.3584168285006
0.7317288152446498	610.6760824243216
0.7318507700471907	611.6968857431434
0.7319727451755319	613.7038196631121
0.732094740633061	617.2339955062077
0.7322167564231665	620.7902186143355
0.7323387925492371	621.7539960362524
0.7324608490146619	623.8353342760895
0.732582925822831	627.0411890616364
0.7327050229771347	629.6176760923794
0.7328271404809642	631.9658452165645
0.7329492783377112	633.8722679223133
0.7330714365507675	636.0037979453074
0.7331936151235259	638.2953158109705
0.7333158140593796	639.9360391030374
0.7334380333617229	641.6488993919545
0.7335602730339499	643.6006293685986
0.7336825330794556	645.999545800223
0.7338048135016354	648.5744545213464
0.7339271143038857	650.1847557825514
0.734049435489603	650.7835565849551
0.7341717770621846	649.8904973110411
0.7342941390250283	653.1800173514896
0.7344165213815324	657.453702832624
0.734538924135096	659.9940903903329
0.7346613472891185	662.5402009045343
0.734783790847	665.0920127611072
0.7349062548121412	665.3657232335763
0.7350287391879431	663.6553842875627
0.7351512439778078	656.605892747225
0.7352737691851374	660.6409934316267
0.735396314813335	672.0048669862576
0.7355188808658037	675.700941035725
0.7356414673459482	679.1004066351755
0.7357640742571725	682.3841573561534
0.7358867016028818	684.5590485144727
0.7360093493864824	686.2484143177453
0.7361320176113801	687.6215215818137
0.736254706280982	688.6925055365839
0.7363774153986956	689.3878784545166
0.7365001449679286	687.4465730458543
0.7366228949920899	685.7783249458724
0.7367456654745885	687.8967114629246
0.7368684564188344	693.908095430481
0.7369912678282374	703.0106259413417
0.7371140997062088	707.0614950726315
0.7372369520561599	710.2039599334914
0.7373598248815024	712.1326093888339
0.7374827181856494	714.2326388768895
0.7376056319720137	716.4163707013848
0.7377285662440091	718.605831932902
0.7378515210050496	720.1206250716342
0.7379744962585505	720.6995829682605
0.738097492007927	723.8759820158099
0.7382205082565949	727.3812574955475
0.738343545007971	729.1312592252933
0.7384666022654723	731.6845406162635
0.7385896800325165	734.9190087255527
0.7387127783125219	737.6257656346545
0.7388358971089073	740.1620187025313
0.7389590364250921	742.4007345052637
0.7390821962644963	744.8477447080492
0.7392053766305403	747.3981078294153
0.7393285775266454	749.9337215771004
0.7394517989562333	752.4175275167852
0.7395750409227259	754.8297180417501
0.7396983034295463	757.2910872070627
0.739821586480118	759.7233040851646
0.7399448900778645	761.9582670505915
0.7400682142262109	764.3316814146716
0.740191558928582	766.8170631762805
0.7403149241884034	768.3502187889579
0.7404383100091014	769.9399513977173
0.7405617163941028	771.8104807871525
0.7406851433468352	774.3216789361278
0.7408085908707264	776.8177304203463
0.7409320589692048	775.2552886805084
0.7410555476456997	777.2932893213042
0.7411790569036406	783.7364289407134
0.7413025867464579	786.7440521403079
0.7414261371775823	789.3829661431306
0.7415497082004452	793.2617046009727
0.7416732998184786	796.2781061818046
0.741796912035115	798.7028095983013
0.7419205448537874	799.3631260474309
0.7420441982779297	800.9501948220981
0.742167872310976	804.284926233283
0.7422915669563612	808.2148811071689
0.7424152822175206	812.1496232387822
0.7425390180978901	814.6334141959752
0.7426627746009065	816.2842863905232
0.7427865517300065	817.1257641538778
0.7429103494886282	821.1053516711912
0.7430341678802096	825.144569178227
0.7431580069081896	828.3354568994544
0.7432818665760077	831.0954792293617
0.7434057468871037	833.6197982651571
0.7435296478449182	835.8393700734265
0.7436535694528923	838.2139652684657
0.7437775117144678	840.7920947131607
0.7439014746330868	842.0729062652204
0.7440254582121922	843.6612539376507
0.7441494624552276	847.5528355293039
0.7442734873656368	849.7474768079614
0.7443975329468645	850.7748508465252
0.7445215992023557	853.2551319494036
0.7446456861355559	856.5824468818736
0.7447697937499119	861.3128261152003
0.7448939220488703	864.859878728701
0.7450180710358784	868.0391561005812
0.7451422407143843	871.2924688557906
0.7452664310878367	874.3344653986184
0.7453906421596846	877.1927354516936
0.7455148739333779	879.9844663429409
0.7456391264123667	882.7804909825559
0.7457633996001021	885.5971938523573
0.7458876935000356	888.2100736858631
0.7460120081156189	890.7531193854552
0.7461363434503048	893.4369903721579
0.7462606995075466	896.1597707159051
0.7463850762907978	898.9233473443347
0.7465094738035127	901.3783868122529
0.7466338920491467	904.0843406989967
0.746758331031155	907.5725099245245
0.7468827907529935	910.3946823692398
0.7470072712181189	912.9457337624755
0.7471317724299886	916.5283342016365
0.7472562943920602	919.7156735394552
0.7473808371077922	922.4236926700092
0.7475054005806435	924.0608173395933
0.7476299848140736	926.1485489387297
0.7477545898115426	930.2723523853352
0.7478792155765113	933.7504648311261
0.7480038621124406	936.8044354752325
0.7481285294227926	938.1659327247085
0.7482532175110298	940.8318044618704
0.7483779263806148	945.2498693731445
0.7485026560350116	948.333249512664
0.7486274064776842	951.1467306042479
0.748752177712097	954.0203046393149
0.7488769697417158	957.5239308121828
0.749001782570006	961.4106204607331
0.7491266162004343	964.6941135919361
0.7492514706364677	967.8319681060971
0.7493763458815739	970.7618876680664
0.7495012419392209	973.8723027419225
0.7496261588128773	976.9525661959666
0.7497510965060128	979.75870331598
0.7498760550220971	982.8569859041966
0.7500010343646007	986.1409154196657
0.7501260345369949	989.1317711746491
0.750251055542751	992.1692615538934
0.7503760973853414	995.2741079324879
0.7505011600682389	998.3238786587314
0.750626243594917	1001.2888196673103
0.7507513479688495	1003.9822862937268
0.7508764731935109	1007.2784333450243
0.7510016192723765	1010.9536835495351
0.7511267862089218	1014.2749081556096
0.7512519740066232	1017.5248918574097
0.7513771826689577	1020.6742662891721
0.7515024121994025	1023.9715935572376
0.7516276626014359	1027.2597737291753
0.751752933878536	1030.3983733464945
0.7518782260341824	1033.2429008170946
0.7520035390718548	1035.9407972247138
0.7521288729950334	1039.6775223299294
0.7522542278071992	1043.2182169416938
0.7523796035118337	1046.5015216615307
0.7525050001124189	1049.7772179168421
0.7526304176124378	1052.876152717668
0.7527558560153731	1055.4266971423667
0.752881315324709	1059.0486220705864
0.7530067955439299	1063.2156639017242
0.7531322966765205	1066.737475780483
0.7532578187259665	1070.225669236428
0.7533833616957542	1073.6743842916037
0.75350892558937	1076.9318178119852
0.7536345104103016	1080.193261725931
0.7537601161620366	1083.541766891358
0.7538857428480638	1086.8315055070418
0.7540113904718717	1090.1048166007718
0.7541370590369503	1093.4852599564908
0.7542627485467898	1096.6192544971034
0.7543884590048808	1099.5059603983761
0.7545141904147151	1103.4939271507876
0.7546399427797842	1107.401816182661
0.7547657161035808	1110.897780540054
0.754891510389598	1114.4640407638124
0.7550173256413296	1118.0348397721339
0.7551431618622698	1121.4673389458742
0.7552690190559135	1124.8459806610344
0.7553948972257561	1128.1803545395296
0.7555207963752938	1131.7537425892222
0.755646716508023	1135.387602867768
0.755772657627441	1139.1065173866712
0.7558986197370455	1142.676813249214
0.756024602840335	1146.2049998612622
0.7561506069408084	1149.728330352636
0.7562766320419653	1153.3189988806987
0.7564026781473054	1156.9516920973908
0.75652874526033	1160.5110420258047
0.7566548333845401	1164.0677629434267
0.7567809425234375	1167.620888727674
0.7569070726805247	1171.2109883516691
0.7570332238593047	1174.8375724905393
0.7571593960632813	1178.5470337188685
0.7572855892959586	1182.1529748771338
0.7574118035608413	1185.6893455916231
0.7575380388614347	1189.0250521886321
0.7576642952012449	1192.6547807551913
0.7577905725837782	1196.5679739435209
0.7579168710125422	1200.25510042531
0.7580431904910444	1203.994918277937
0.7581695310227928	1207.870820105317
0.7582958926112967	1211.5813397373688
0.7584222752600652	1215.2680099055433
0.7585486789726085	1219.0875573567716
0.7586751037524372	1222.8755111257635
0.7588015496030628	1226.6416453064733
0.7589280165279966	1230.3742946890497
0.7590545045307512	1234.0843734861696
0.7591810136148396	1237.7644352157429
0.7593075437837755	1241.6057527229018
0.7594340950410726	1245.42715680377
0.7595606673902461	1249.1165207782037
0.7596872608348112	1252.7994568672946
0.7598138753782836	1256.4990121962824
0.75994051102418	1260.3550537186547
0.7600671677760173	1264.2896734763665
0.7601938456373134	1268.2939862677638
0.7603205446115863	1272.1944389352143
0.7604472647023548	1276.0378508271717
0.7605740059131385	1279.7938788519489
0.7607007682474575	1283.5645801881928
0.7608275517088319	1287.3597799568338
0.7609543563007835	1291.2285426117205
0.7610811820268336	1294.9948351074545
0.7612080288905045	1298.714470681062
0.7613348968953197	1302.5931037795183
0.7614617860448022	1306.391487204214
0.7615886963424764	1310.1052503663018
0.7617156277918667	1313.9077627686838
0.7618425803964988	1317.734735747087
0.7619695541598982	1321.5924896118624
0.7620965490855914	1325.4643826440938
0.7622235651771058	1329.3339592721788
0.7623506024379685	1333.1724871424606
0.7624776608717082	1336.8699598665016
0.7626047404818536	1340.4815261830718
0.7627318412719337	1344.1871299060501
0.762858963245479	1347.900469773825
0.7629861064060198	1351.6226586040204
0.7631132707570876	1355.2100937874434
0.7632404563022137	1358.731876770028
0.7633676630449308	1362.1478063764216
0.7634948909887717	1365.5072117404727
0.7636221401372697	1368.801098068011
0.7637494104939593	1371.874173854022
0.7638767020623748	1374.8995226374511
0.7640040148460518	1377.8837601233733
0.7641313488485262	1380.5676768988476
0.7642587040733344	1382.9012069762844
0.7643860805240132	1384.824776708257
0.7645134782041005	1386.9069773403376
0.7646408971171346	1388.6722445239964
0.764768337266654	1389.7253608068388
0.7648957986561985	1389.9481511425772
0.7650232812893079	1389.791933045087
0.7651507851695227	1389.167858732463
0.7652783103003843	1387.5624178579076
0.7654058566854343	1385.2052655650612
0.7655334243282153	1380.0493509346197
