#wavelength	surface flux
0.8	13572.799227459556
0.8002000000000001	13626.069330525808
0.8004000500000003	13675.184123060142
0.8006001500125003	13727.359476724543
0.8008003000500035	13778.038460240285
0.8010005001250161	13828.226449622134
0.8012007502500472	13885.953683192236
0.8014010504376099	13940.00059707071
0.8016014007002193	13987.61158759615
0.8018018010503944	14037.828612360785
0.8020022515006572	14089.702173796537
0.8022027520635323	14150.70218029463
0.8024033027515483	14205.103617544242
0.8026039035772362	14250.902246668995
0.8028045545531306	14306.17382939687
0.8030052556917691	14355.175565401536
0.803206007005692	14419.722886267775
0.8034068085074435	14475.660536556928
0.8036076602095705	14528.263418101853
0.8038085621246229	14585.43401831576
0.8040095142651542	14637.121094485467
0.8042105166437206	14687.523398063966
0.8044115692728815	14741.241751481659
0.8046126721651998	14785.983905195555
0.8048138253332411	14853.648845984966
0.8050150287895745	14915.118611744116
0.805216282546772	14972.579108541251
0.8054175866174087	15026.45149326997
0.8056189410140631	15081.836977219687
0.8058203457493168	15138.365030129304
0.8060218008357541	15193.33786449843
0.8062233062859632	15242.472290023808
0.8064248621125346	15306.004033287318
0.806626468328063	15363.917761408029
0.8068281249451449	15413.837440215502
0.8070298319763813	15472.62627577131
0.8072315894343755	15530.227458280278
0.8074333973317341	15580.428235516207
0.8076352556810671	15646.716026938819
0.8078371644949874	15708.699411784713
0.8080391237861113	15766.951827427565
0.8082411335670578	15818.38250194397
0.8084431938504498	15881.69995864895
0.8086453046489125	15942.986716245696
0.8088474659750746	15993.540702781202
0.8090496778415686	16051.261485538087
0.809251940261029	16104.667496652466
0.8094542532460944	16141.179434281481
0.8096566168094059	16194.227019365306
0.8098590309636085	16285.494889591895
0.8100614957213493	16346.665776366885
0.8102640110952797	16400.34773588536
0.8104665770980536	16465.51001146218
0.8106691937423283	16510.767130078882
0.8108718610407639	16474.349268100294
0.8110745790060241	16478.418359842824
0.8112773476507757	16635.5510373066
0.8114801669876885	16639.789455525664
0.8116830370294355	16675.221697868485
0.8118859577886929	16869.079860352915
0.8120889292781401	16957.473829745068
0.8122919515104597	17019.905059336885
0.8124950244983374	17087.203284367104
0.8126981482544621	17149.60637336161
0.8129013227915257	17208.583762206512
0.8131045481222237	17245.091737118473
0.8133078242592543	17253.534036099958
0.8135111512153191	17215.170247873462
0.813714529003123	17316.65676371072
0.8139179576353739	17478.271739258016
0.8141214371247829	17481.277032330607
0.8143249674840641	17453.94991811664
0.814528548725935	17434.854039659083
0.8147321808631167	17632.166167619987
0.8149358639083326	17803.74842811183
0.8151395978743097	17808.627009101685
0.8153433827737784	17920.871316725807
0.8155472186194719	18016.77157655827
0.8157511054241268	18090.1943632847
0.815955043200483	18115.405842450506
0.8161590319612831	18207.47827292591
0.8163630717192736	18234.072221546223
0.8165671624872033	18342.748907842633
0.8167713042778252	18453.796741562597
0.8169754971038948	18498.34389910855
0.8171797409781707	18471.30441799046
0.8173840359134155	18625.76686375064
0.8175883819223938	18729.884963122546
0.8177927790178745	18790.223274311917
0.8179972272126291	18805.11798256968
0.8182017265194322	18849.88717778975
0.8184062769510622	18727.305068472957
0.8186108785203001	19008.879432864604
0.8188155312399301	19145.75196648711
0.8190202351227402	19207.00840647255
0.819224990181521	19280.38853104392
0.8194297964290664	19349.127413524133
0.8196346538781738	19397.306947301106
0.8198395625416434	19432.466034473266
0.8200445224322789	19448.117033285165
0.820249533562887	19611.817286345173
0.8204545959462778	19705.158804467057
0.8206597095952644	19773.883955579415
0.8208648745226633	19844.701615970993
0.8210700907412941	19915.399555944245
0.8212753582639793	19990.974305606298
0.8214806771035456	20066.749443842837
0.8216860472728215	20143.613168710937
0.8218914687846397	20214.790721528236
0.822096941651836	20283.520751380885
0.822302465887249	20344.690026989156
0.8225080415037209	20397.568223199185
0.8227136685140968	20381.227591768285
0.8229193469312254	20083.42461421403
0.8231250767679583	20136.370400040847
0.8233308580371503	20387.324065540266
0.8235366907516598	20519.73507004656
0.8237425749243477	20657.080380711515
0.8239485105680789	20868.779213925693
0.824154497695721	20996.864292393017
0.824360536320145	21082.496318059282
0.8245666264542252	21169.32848255218
0.8247727681108388	21260.217790484472
0.8249789613028664	21316.788016536953
0.8251852060431922	21411.382326258732
0.825391502344703	21503.488559446778
0.8255978502202894	21584.952908252788
0.8258042496828445	21659.24830249758
0.8260107007452654	21721.805479134327
0.8262172034204517	21755.171315565953
0.8264237577213068	21782.96037882282
0.8266303636607373	21753.244777209347
0.8268370212516525	22008.29709607936
0.8270437305069654	22131.585899785885
0.8272504914395923	22199.40024792253
0.8274573040624523	22264.623231098143
0.8276641683884679	22349.39876079702
0.8278710844305652	22429.945966503725
0.8280780522016729	22501.644879651685
0.8282850717147234	22548.14976538342
0.8284921429826521	22644.115831350635
0.8286992660183978	22728.00378759739
0.8289064408349024	22690.373797098844
0.8291136674451112	22772.88622093601
0.8293209458619727	22962.401832882068
0.8295282760984382	23050.662141917248
0.829735658167463	23078.891297225757
0.8299430920820048	23165.927985263286
0.8301505778550254	23302.41305249445
0.8303581154994891	23415.52766060541
0.8305657050283641	23494.962726451016
0.8307733464546212	23575.413538646677
0.8309810397912352	23644.399446021678
0.8311887850511829	23704.327855497933
0.8313965822474458	23622.04132392674
0.8316044313930077	23779.33645300022
0.8318123325008561	23956.22080695227
0.8320202855839813	24064.202785449197
0.8322282906553774	24149.881625443024
0.8324363477280413	24181.183564540614
0.8326444568149735	24341.398618335224
0.8328526179291771	24444.994278639606
0.8330608310836596	24466.22011456947
0.8332690962914304	24492.206371468106
0.8334774135655034	24641.00941683059
0.833685782918895	24743.970283989795
0.8338942043646247	24852.131259249963
0.834102677915716	24953.967155869675
0.834311203585195	25035.93454247692
0.8345197813860912	25129.45730490302
0.8347284113314379	25234.76714054184
0.8349370934342709	25325.995340114696
0.8351458277076294	25409.527765640236
0.8353546141645565	25487.18317574343
0.8355634528180977	25519.245673692763
0.8357723436813022	25646.965159671312
0.8359812867672226	25750.404257647373
0.8361902820889144	25833.44720488861
0.8363993296594368	25869.95081222846
0.8366084294918518	26018.001820746642
0.8368175815992247	26141.142765817138
0.8370267859946247	26226.756569523794
0.8372360426911234	26310.585852804743
0.8374453517017962	26376.74774612993
0.8376547130397217	26413.89334417047
0.8378641267179816	26575.780197935404
0.8380735927496613	26704.220022452613
0.8382831111478488	26783.90511341731
0.8384926819256358	26815.643605349756
0.8387023050961173	26888.27795875219
0.8389119806723914	27034.538704490533
0.8391217086675596	27178.90035709383
0.8393314890947265	27284.14451692556
0.8395413219670003	27345.542864241546
0.8397512072974922	27445.01437772474
0.8399611450993165	27508.78643739789
0.8401711353855914	27522.91693019365
0.8403811781694378	27703.22214510049
0.8405912734639802	27827.546531954606
0.8408014212823464	27863.72342264641
0.8410116216376671	28023.467066048266
0.8412218745430766	28148.003242557745
0.8414321800117124	28255.28132105218
0.8416425380567154	28336.22131788643
0.8418529486912297	28425.27683243762
0.8420634119284025	28515.4040086116
0.8422739277813847	28641.18093590275
0.8424844962633302	28754.65488464481
0.842695117387396	28842.82070615101
0.8429057911667428	28920.95877822878
0.8431165176145345	29036.369813917125
0.8433272967439382	29160.585382293048
0.8435381285681244	29260.742265200253
0.8437490131002665	29363.067872255662
0.8439599503535415	29463.025488826017
0.84417094034113	29541.622601085666
0.8443819830762154	29653.523274860327
0.8445930785719846	29719.154126864938
0.8448042268416277	29870.02405053227
0.8450154278983382	29977.80602185148
0.8452266817553128	30084.654410468855
0.8454379884257517	30164.040324114343
0.8456493479228583	30236.120961863668
0.845860760259839	30403.83848865626
0.846072225449904	30519.792245289176
0.8462837435062666	30573.613082569216
0.8464953144421433	30570.82761163423
0.8467069382707537	30709.67786970398
0.8469186150053215	30921.463484511256
0.847130344659073	31041.466859149594
0.8473421272452377	31151.66095560958
0.8475539627770492	31243.475979803396
0.8477658512677435	31361.695508668905
0.8479777927305605	31473.39719788527
0.8481897871787432	31577.837910975904
0.848401834625538	31695.537728340856
0.8486139350841944	31808.250192765452
0.8488260885679657	31881.327672349445
0.8490382950901076	31937.567807617706
0.8492505546638802	32108.993521039174
0.8494628673025462	32241.593439525543
0.8496752330193721	32359.93558997576
0.8498876518276269	32472.438660852342
0.8501001237405839	32584.474835098586
0.8503126487715191	32700.449484872075
0.850525226933712	32818.578058041145
0.8507378582404455	32930.48143469186
0.8509505427050057	33042.38060710624
0.8511632803406821	33160.04885706238
0.8513760711607672	33276.01969466735
0.8515889151785576	33386.85842276434
0.8518018124073523	33489.87088031709
0.8520147628604541	33606.27940009419
0.8522277665511693	33705.08271091059
0.8524408234928071	33847.545409485916
0.8526539336986805	33967.8597012963
0.8528670971821053	34088.17660655485
0.8530803139564007	34199.76377651872
0.8532935840348901	34310.92477644226
0.8535069074308987	34431.24925014917
0.8537202841577566	34552.79764366214
0.8539337142287962	34664.964833745194
0.8541471976573534	34753.13030766004
0.8543607344567677	34895.07548350831
0.8545743246403821	35034.84526633354
0.8547879682215422	35154.8778668242
0.8550016652135977	35265.174485148724
0.8552154156299011	35387.43338279587
0.8554292194838088	35514.17656742135
0.8556430767886797	35629.37232214589
0.855856987557877	35760.85436132957
0.8560709518047664	35887.8514597233
0.8562849695427177	36008.547510795084
0.8564990407851035	36132.22319351453
0.8567131655452999	36257.94469368135
0.8569273438366862	36387.4684004687
0.8571415756726455	36512.36513705031
0.8573558610665638	36621.977689911655
0.8575702000318304	36749.32879380346
0.8577845925818384	36879.96892086977
0.857999038729984	37007.86459900473
0.8582135384896665	37134.10604479212
0.858428091874289	37255.11501004947
0.8586426988972576	37378.07196424176
0.8588573595719821	37508.469422165355
0.8590720739118751	37636.93014046953
0.8592868419303532	37760.271699403784
0.8595016636408359	37893.39851683186
0.8597165390567462	38027.701675881246
0.8599314681915105	38155.8433061559
0.8601464510585584	38284.107717328414
0.860361487671323	38412.67594500213
0.8605765780432408	38546.551923425846
0.8607917221877518	38666.35829297939
0.8610069201182988	38770.44292472813
0.8612221718483286	38809.2065776649
0.8614374773912907	38796.80255118032
0.8616528367606385	38944.062522768785
0.8618682499698288	38972.288561407055
0.8620837170323213	39076.8487575209
0.8622992379615795	39276.42976738895
0.8625148127710699	39263.93249370608
0.8627304414742627	39388.531152885385
0.8629461240846313	39692.633213332316
0.8631618606156526	39735.705454947565
0.8633776510808066	39876.21342409756
0.8635934954935769	40068.522836236174
0.8638093938674504	40240.529872627245
0.8640253462159173	40352.15601984304
0.8642413525524714	40380.20745637617
0.8644574128906095	40677.453522579635
0.8646735272438323	40805.24576985492
0.8648896956256433	40891.55024997256
0.8651059180495498	41165.322435241345
0.8653221945290621	41319.4779739376
0.8655385250776946	41496.69428179604
0.8657549097089641	41665.256344699774
0.8659713484363913	41826.67280311291
0.8661878412735006	41966.59898524112
0.866404388233819	42079.9170323619
0.8666209893308775	42208.93831834318
0.8668376445782103	42415.03307671228
0.8670543539893549	42560.20449873242
0.8672711175778525	42674.54130457487
0.8674879353572469	42813.42648105171
0.8677048073410862	42974.595164079314
0.8679217335429217	43139.50682981888
0.8681387139763074	43266.688389522504
0.8683557486548015	43331.819505642496
0.8685728375919655	43485.512510089655
0.8687899808013633	43714.10281447201
0.8690071782965637	43894.21325470903
0.869224430091138	44055.08920642392
0.8694417361986609	44127.2355363194
0.8696590966327107	44189.01198650288
0.869876511406869	44377.102619768724
0.8700939805347206	44552.07384309331
0.8703115040298544	44770.925008753875
0.870529081905862	44903.67148008372
0.8707467141763385	44998.68703577936
0.8709644008548827	45111.03173502456
0.8711821419550964	45280.15807739102
0.8713999374905854	45445.55087182616
0.871617787474958	45685.788150082226
0.8718356919218269	45823.54929651174
0.8720536508448075	45882.013331441995
0.8722716642575187	46002.29195822192
0.8724897321735832	46209.383667317794
0.8727078546066265	46416.73351648594
0.8729260315702784	46597.68467782862
0.873144263078171	46765.20811002239
0.8733625491439405	46912.28617330497
0.8735808897812266	46988.66149618231
0.8737992850036719	47159.75846848962
0.874017734824923	47276.336225990184
0.8742362392586293	47529.68867775287
0.874454798318444	47689.45896166814
0.8746734120180236	47837.611952252424
0.8748920803710283	48028.81387386376
0.875110803391121	48156.43232035439
0.8753295810919689	48313.78889020286
0.875548413487242	48504.82825382323
0.8757673005906139	48682.11326357999
0.8759862424157616	48850.94612699668
0.8762052389763657	48994.06023138492
0.8764242902861098	49132.06078399509
0.8766433963586814	49327.146433111004
0.8768625572077712	49426.399554430485
0.8770817728470732	49536.28106956737
0.8773010432902849	49772.235874995014
0.8775203685511077	49991.20127267522
0.8777397486432454	50181.45633032748
0.8779591835804065	50334.676977585215
0.8781786733763015	50489.67852025649
0.8783982180446457	50672.256533991145
0.878617817599157	50830.03700041022
0.8788374720535569	50948.61506050219
0.8790571814215703	51111.90273211097
0.8792769457169257	51288.435876695075
0.879496764953355	51504.982137762534
0.8797166391445934	51711.05145516624
0.8799365683043796	51870.13557020434
0.8801565524464557	51960.44651641399
0.8803765915845676	52110.468823215146
0.8805966857324639	52343.07944387455
0.880816834903897	52486.902186060266
0.881037039112623	52680.769248895864
0.8812572983724012	52839.26182364038
0.8814776126969944	52983.91281464554
0.8816979821001687	53209.72844922999
0.8819184065956938	53447.62079774824
0.8821388861973429	53612.29725663875
0.8823594209188923	53726.429119550885
0.882580010774122	53915.654931082274
0.8828006557768155	54123.27123512567
0.8830213559407598	54291.92412896945
0.8832421112797452	54486.05858202065
0.8834629218075651	54606.90197196042
0.8836837875380171	54745.34431260444
0.8839047084849018	54981.876691091944
0.884125684662023	55233.31816272855
0.8843467160831886	55427.474019356225
0.8845678027622095	55578.28416205693
0.8847889447129001	55687.948600622796
0.8850101419490785	55904.51895378971
0.8852313944845657	56090.72850261419
0.885452702333187	56324.98017265332
0.8856740655087704	56493.17441515202
0.8858954840251476	56583.521875709666
0.8861169578961539	56762.96419944041
0.886338487135628	57040.69291017351
0.886560071757412	57264.191331995564
0.8867817117753515	57451.71680039067
0.8870034072032955	57615.41947783176
0.8872251580550963	57735.30347236899
0.8874469643446101	57942.248690413406
0.8876688260856963	58153.68902365871
0.8878907432922178	58380.25682058355
0.8881127159780409	58561.62490224196
0.8883347441570356	58690.713631967206
0.8885568278430749	58805.60905140071
0.8887789670500358	59053.6868618026
0.8890011617917983	59278.985170307904
0.8892234120822464	59539.51553777489
0.8894457179352669	59737.57203386791
0.8896680793647509	59885.41760337331
0.8898904963845921	60016.18855048675
0.8901129690086883	60229.96175203769
0.8903354972509405	60481.41697595176
0.8905580811252535	60688.101018914786
0.8907807206455347	60708.53968727834
0.8910034158256963	60360.172892840055
0.8912261666796527	60880.18232891806
0.8914489732213227	61369.90599526761
0.8916718354646282	61509.32574228305
0.8918947534234944	61594.952891934634
0.8921177271118502	61651.57929177631
0.8923407565436284	61551.06138659404
0.8925638417327644	61952.59672119625
0.8927869826931977	62461.690773355884
0.8930101794388711	62688.11693192132
0.8932334319837308	62564.59253340594
0.8934567403417267	62657.12465404049
0.8936801045268123	63125.40514513021
0.8939035245529441	63344.382061556316
0.8941270004340824	63561.52187771844
0.894350532184191	63647.29769053021
0.8945741198172371	64051.56399812321
0.8947977633471915	64441.094909557454
0.8950214627880284	64619.61114081143
0.8952452181537254	64710.89725420862
0.8954690294582639	64806.69354231347
0.8956928967156286	65143.07142333406
0.8959168199398075	65327.16511946826
0.8961407991447926	65577.04515283633
0.8963648343445789	65474.01214338859
0.896588925553165	64553.28403342449
0.8968130727845534	65012.70621542665
0.8970372760527496	65958.66111879727
0.8972615353717629	64552.65044970206
0.8974858507556059	64282.89649885491
0.8977102222182949	66756.22565992418
0.8979346497738496	67455.49959234109
0.8981591334362931	67607.31867216462
0.8983836732196523	67723.18669512344
0.8986082691379572	67981.7465873708
0.8988329212052417	67050.43259679792
0.8990576294355432	65423.85881240572
0.8992823938429022	66458.11054471013
0.8995072144413631	67843.7836877801
0.8997320912449734	69030.08843050164
0.8999570242677847	69348.71481787956
0.9001820135238516	69420.2364345936
0.9004070590272328	69425.05172815271
0.9006321607919896	69003.40743272223
0.9008573188321878	69432.98570772717
0.9010825331618959	69580.0757651734
0.9013078037951865	70419.83155665972
0.9015331307461353	70775.82475169022
0.9017585140288219	71095.64734722125
0.9019839536573292	71350.82776721963
0.9022094496457435	71685.93686075059
0.9024350020081551	71888.37981869423
0.9026606107586572	72029.87213000441
0.902886275911347	72205.11190494563
0.9031119974803249	72406.23431958031
0.9033377754796951	72606.66745785646
0.903563609923565	72995.11603936303
0.903789500826046	73292.08706050087
0.9040154482012526	73429.99283197093
0.904241452063303	73709.55177854914
0.9044675124263188	73896.46110205496
0.9046936293044254	74051.66309560176
0.9049198027117517	74265.97997661875
0.9051460326624297	74600.47381073178
0.9053723191705955	74926.32941306346
0.9055986622503881	75162.06512012826
0.9058250619159507	75434.04822394816
0.9060515181814298	75655.06983171252
0.9062780310609752	75753.0450506002
0.9065046005687405	75934.34652473289
0.906731226718883	76266.56596441122
0.9069579095255627	76531.36047290561
0.907184649002944	76638.76563183794
0.907411445165195	76877.58977188956
0.9076382980264862	77229.47499261211
0.907865207600993	77452.40223531904
0.9080921739028933	77519.43468547461
0.9083191969463691	77683.85856833673
0.9085462767456058	78017.56061243423
0.9087734133147922	78083.24846199494
0.9090006066681211	78468.7852033142
0.909227856819788	78883.37391660472
0.9094551637839932	79178.10748090954
0.9096825275749393	79331.07304829029
0.9099099482068329	79480.47234301643
0.9101374256938848	79693.48920214582
0.9103649600503083	80013.13769256561
0.9105925512903209	80164.93098952448
0.9108201994281437	79299.96643693374
0.9110479044780008	80026.95322229862
0.9112756664541204	81152.85660905683
0.911503485370734	81529.484508217
0.9117313612420768	81548.76414996812
0.9119592940823873	81855.16201978258
0.912187283905908	82265.49282890756
0.9124153307268845	82593.44846312357
0.9126434345595664	82855.82295038278
0.9128715954182063	83024.5283359698
0.9130998133170609	83109.29426932607
0.9133280882703902	83243.16947194003
0.913556420292458	83611.17504513287
0.9137848093975312	83814.26826755342
0.9140132555998806	84266.21415133789
0.9142417589137806	84600.17482993547
0.9144703193535092	84333.22643272342
