#wavelength	surface flux
0.6450077295303345	8529.243453606674
0.6472567915916443	8998.325305020526
0.6494921445846558	9482.35139534083
0.6517150402069092	9988.18397554985
0.6539263725280762	10489.129518914713
0.6561272740364075	11040.860991234078
0.6583186388015747	11577.378634742057
0.6605015397071838	12216.312728405193
0.6626768708229065	12832.899386077426
0.6648455858230591	13470.906644837713
0.6670085787773132	14132.874633651902
0.6691668033599854	14807.700593676325
0.6713210344314575	14735.594454544334
0.6734722256660461	16275.92151183178
0.6756211519241333	17045.74763504659
0.6777685880661011	17803.496272979657
0.6799154281616211	18663.710163188367
0.6820623278617859	19482.612634250578
0.6842101216316223	20309.59430394442
0.6863595843315125	21177.3475251095
0.688511312007904	21860.07341180356
0.6906660795211792	22461.138677884603
0.6928245425224304	23822.689090656742
0.6949873566627502	25089.113101546067
0.6971551775932312	26289.318199220335
0.6993286609649658	27139.42007967109
0.7015084028244019	28800.093716927768
0.7036949396133423	30250.68284718108
0.7058889269828796	31616.080822308933
0.7080909013748169	32988.051194671694
0.710301399230957	34409.04868337239
0.712520956993103	35911.92267927272
0.7147500514984131	37441.959472940194
0.7169892191886902	38963.24958526321
0.7192389369010925	40744.61440836461
0.7214996814727783	42469.09308345476
0.723771870136261	44297.98091709386
0.7260559797286987	46196.63009195611
0.7283523678779602	48147.19789935758
0.7306615710258484	50165.375626236804
0.7329838871955872	52255.29599760581
0.7353196740150452	53908.20729775409
0.7376693487167358	56305.653190704514
0.7400332689285278	58463.0542447202
0.7424117922782898	60660.12258302828
0.7448052167892456	63044.55222655783
0.7472138404846191	65989.60735959046
0.7496379613876343	69040.38934560448
0.7520779371261597	71788.42501633608
0.7545340061187744	74842.77638636997
0.7570064663887024	77683.88513279938
0.7594954967498779	79920.91565137266
0.7620013952255249	80118.88005984416
0.7645244002342224	65084.54955216719
0.7670646905899048	26433.63316866521
0.7696225643157959	34782.25593057684
0.7721980810165405	80647.65780477664
0.7747915983200073	100365.25807586276
0.7774031162261963	107403.85718994481
0.7800329327583313	99122.7333697924
0.7826811671257019	118201.10449255677
0.7853479981422424	123565.81520870066
0.7880334854125977	128845.53355559545
0.7907378077507019	134316.55594185623
0.7934610247612	137137.9812766737
0.7962033748626709	141635.70424234582
0.7989648580551147	151624.98845159562
0.801745593547821	157834.07068752442
0.8045456409454346	164652.44476318534
0.8073651194572449	171640.83299871947
0.8102040886878967	178652.12459159925
0.8130625486373901	186245.27049116106
0.8159406185150146	194086.33825548444
0.8188382983207703	201825.73000615806
0.8217556476593018	210439.58535062696
0.8246926665306091	219010.92958440364
0.8276493549346924	227886.45939661833
0.8306257724761963	237328.2610787605
0.8336219191551208	247169.35134406498
0.8366377949714661	257192.61717378368
0.8396733403205872	267495.85218511184
0.8427285552024841	278536.11475502606
0.8458034992218018	289610.67945527856
0.8488980531692505	301375.6745500035
0.8520121574401855	313460.57167358854
0.8551458716392517	325466.86999869393
0.8582990765571594	338339.85194392706
0.8614717125892639	351280.8099539072
0.8646637797355652	363627.68199443596
0.8678751587867737	379177.6358933298
0.8711057901382446	394750.7772869325
0.8743556141853333	410878.59732648305
0.87762451171875	427708.32949079847
0.8809124231338501	444817.4920268337
0.8842192888259888	461687.3772341463
0.8875449895858765	480547.97229849745
0.8908893465995789	497953.5133048796
0.894252359867096	517371.218859165
0.8976338505744934	534064.5113393157
0.9010337591171265	557988.482828079
0.9044519662857056	580304.8272191087
0.9078882932662964	602279.7966527616
0.9113426208496094	625484.2587856911
0.914814829826355	648592.532635336
0.9183048605918884	672367.137769788
0.9218124747276306	697652.1763889542
0.925337553024292	720005.4370838703
0.9288799166679382	740490.4612694441
0.9324395060539246	756183.1887980889
0.9360161423683167	783028.46869106
0.9396095871925354	831478.0012979942
0.943219780921936	865991.535244455
0.9468464851379395	875965.2221367753
0.9504896402359009	907338.8697068995
0.9541489481925964	950919.8909857691
0.9578243494033813	990871.2036565242
0.9615156054496765	1018484.8159038146
0.9652225375175476	1060520.29669617
0.9689450263977051	1106929.3841841323
0.9726828336715698	1136993.0479494133
0.9764357805252075	1184692.761426059
0.9802037477493286	1224334.3970730957
0.983986496925354	1268957.477627882
0.9877838492393494	1312600.4333742443
0.9915955662727356	1359752.2313586895
0.9954215884208679	1406375.1311203516
0.9992615580558777	1452927.4670976908
1.0031154155731201	1498943.8055593946
1.0069829225540161	1549548.5663738477
1.0108637809753418	1600291.4487272454
1.0147579908370972	1652669.5159219208
1.018665075302124	1705494.822224629
1.022585153579712	1760748.1338990938
1.0265177488327026	1817062.381641787
1.0304628610610962	1874501.0446284146
1.0344202518463135	1933550.2658751102
1.0383895635604858	1993690.9517780843
1.0423706769943237	2055414.7338209788
1.0463634729385376	2117691.442351192
1.0503677129745483	2180953.8215272236
1.0543830394744873	2247888.6914851074
1.058409333229065	2314276.6778821326
1.0624464750289917	2388473.970774312
1.0664942264556885	2461335.022411284
1.0705522298812866	2533023.1406431105
1.0746204853057861	2608858.9619428264
1.0786986351013184	2681994.619169668
1.0827864408493042	2759821.6652022437
1.086883783340454	2836396.3617411274
1.0909905433654785	2913328.169486702
1.0951062440872192	2986633.177441797
1.0992310047149658	3029212.835715158
1.10336434841156	3119848.8807480377
1.1075061559677124	3229334.510105364
1.1116561889648438	3306216.7256879364
1.115814208984375	3054936.8859499735
1.1199802160263062	3337964.271906671
1.124153733253479	3223765.870533277
1.1283347606658936	3559546.0298366984
1.1325229406356812	3744030.9093981152
1.1367181539535522	3753014.7374084727
1.1409201622009277	3975057.904321075
1.145128846168518	3939240.856992023
1.1493438482284546	3879877.1794108287
1.1535650491714478	4262028.597289556
1.1577922105789185	4397073.832552706
1.1620250940322876	4459775.234701409
1.1662636995315552	4571244.17501845
1.170507550239563	4629695.559203858
1.174756646156311	4803978.149744993
1.1790107488632202	4935527.71327301
1.1832695007324219	5081435.640574487
1.1875330209732056	5176959.614621032
1.191800832748413	5330511.547534813
1.1960728168487549	5447193.787282355
1.2003488540649414	5573100.800424205
1.2046287059783936	5706523.78883422
1.2089121341705322	5835197.455467129
1.2131990194320679	5951173.146914915
1.2174891233444214	6101076.370532911
1.2217823266983032	6233284.987017026
1.2260783910751343	6374181.260215865
1.230377197265625	6505705.559064778
1.2346785068511963	6651897.08930801
1.238982081413269	6791477.761411092
1.2432878017425537	6929171.637503269
1.2475954294204712	7074002.476048892
1.2519049644470215	7218426.839326934
1.256216049194336	7364036.622498063
1.2605286836624146	7512154.552660117
1.2648425102233887	7661035.204280748
1.2691574096679688	7804341.409995139
1.2734732627868652	7952673.781160748
1.2777899503707886	8114375.197124702
1.2821072340011597	8249799.360998242
1.2864248752593994	8412177.59684869
1.2907428741455078	8555615.329611124
1.2950609922409058	8610018.753973175
1.2993791103363037	8798366.452121265
1.303696870803833	9034460.006124387
1.3080145120620728	9195580.017051466
1.3123314380645752	9352964.504603077
1.3166478872299194	9491494.259756593
1.3209635019302368	9659088.393370872
1.3252781629562378	9823224.537198476
1.3295916318893433	9964852.805394001
1.3339040279388428	9794034.498083916
1.3382149934768677	9246446.742282195
1.3425244092941284	8221072.99240025
1.3468321561813354	8005276.889110887
1.3511382341384888	8396662.51161332
1.3554422855377197	8562317.135374958
1.3597444295883179	9310802.150491463
1.3640443086624146	9169851.874111295
1.3683418035507202	9570569.580378894
1.3726370334625244	10551637.894936947
1.3769296407699585	10862314.460700857
1.381219506263733	11120721.079131868
1.3855066299438477	9769579.941811023
1.3897908926010132	10216228.405170022
1.3940720558166504	10172853.901120897
1.3983501195907593	10559491.614689635
1.4026249647140503	11433421.663168851
1.4068963527679443	11550171.493082276
1.4111642837524414	12054060.26900041
1.4154287576675415	10934681.495238503
1.419689416885376	10841471.461560745
1.4239463806152344	10285115.37098292
1.4281994104385376	12408012.596101515
1.4324485063552856	11977404.97548279
1.436693549156189	13036494.078904605
1.440934419631958	12760593.028639933
1.4451709985733032	13326437.600149093
1.449403166770935	13243558.577842755
1.453631043434143	12611283.738886872
1.4578542709350586	14283076.478097066
1.4620729684829712	14305321.211306728
1.4662868976593018	14619216.937407363
1.4704961776733398	15244966.522003375
1.4747005701065063	15032844.289537547
1.4788999557495117	15783786.671242656
1.4830944538116455	15568630.970399834
1.4872838258743286	16066173.99484959
1.491468071937561	16699154.323702445
1.4956470727920532	16794078.62781181
1.4998208284378052	16885148.3653099
1.5039892196655273	17245383.17453698
1.5081522464752197	17472602.042259935
1.5123097896575928	17662811.437063403
1.5164618492126465	17997658.536655065
1.5206083059310913	18144302.287375364
1.5247491598129272	18255904.29820321
1.5288842916488647	17836587.32332206
1.5330137014389038	18748299.75782827
1.5371372699737549	19232782.05209778
1.541254997253418	19444277.915785395
1.545366883277893	19660771.811200544
1.5494728088378906	19911812.90345763
1.5535727739334106	20174760.220265064
1.5576666593551636	20298324.62965573
1.561754584312439	20518500.205074422
1.5658363103866577	20814247.843427926
1.5699119567871094	21080901.71581023
1.5739814043045044	21315753.128540535
1.5780447721481323	21495477.22779806
1.582101821899414	21724360.676057294
1.5861525535583496	21892001.626687918
1.5901970863342285	22136109.957030617
1.5942351818084717	22369859.124889042
1.5982669591903687	22590299.733242728
1.6022924184799194	22826416.387903124
1.606311559677124	23014518.215233494
1.6103241443634033	23223495.657444254
1.6143304109573364	23448223.403144006
1.6183301210403442	23666555.331214502
1.6223233938217163	23808494.8902416
1.6263102293014526	23984690.59491688
1.6302905082702637	24193598.89765791
1.634264349937439	24354788.80437709
1.638231635093689	24673870.150740366
1.6421923637390137	24856716.155070927
1.646146535873413	25018051.207264077
1.6500942707061768	25279550.804860428
1.6540353298187256	25468766.420688327
1.6579699516296387	25582289.013091337
1.661897897720337	25826686.039684575
1.6658192873001099	25872338.807738125
1.6697341203689575	26063402.501848683
1.6736423969268799	26461230.871403422
1.677544116973877	26582512.4597957
1.6814392805099487	26765009.05627397
1.6853278875350952	26938231.421856195
1.6892099380493164	27306909.567980997
1.6930854320526123	27264713.658822827
1.696954369544983	27582373.825939126
1.7008168697357178	27650322.27357851
1.7046726942062378	27884802.975617804
1.708522081375122	28111568.1985352
1.712364912033081	28442551.850201167
1.7162011861801147	28615053.556937378
1.7200311422348022	28689626.95833647
1.723854422569275	28392820.978268754
1.7276713848114014	28362808.76466596
1.731481909751892	28638640.34289337
1.7352858781814575	27692132.840681836
1.7390835285186768	28269923.122641686
1.7428747415542603	28054122.493968297
1.7466596364974976	29560698.11804557
1.7504380941390991	30003400.470248517
1.7542102336883545	29370807.924630105
1.7579760551452637	29495449.687518485
1.7617355585098267	29612351.77382945
1.7654887437820435	28162169.223539278
1.7692357301712036	27392555.745857865
1.7729763984680176	28707642.511462312
1.776710867881775	26144250.191443
1.7804391384124756	28803890.63899003
1.7841613292694092	27938608.82647482
1.7878772020339966	27050175.463506635
1.7915871143341064	23738905.347571407
1.7952908277511597	26941506.250647526
1.7989884614944458	27420165.316737022
1.8026801347732544	26762712.105441768
1.806365728378296	25898095.005193092
1.8100452423095703	22484468.860921934
1.8137187957763672	28496213.470619563
1.817386507987976	30163694.792502385
1.8210482597351074	29674161.130807117
1.8247040510177612	32412191.685222533
1.828354001045227	32468265.495049797
1.8319982290267944	29978526.490956035
1.8356364965438843	31771467.816186067
1.8392690420150757	30200579.124227498
1.8428958654403687	31415319.111724075
1.8465168476104736	28309794.318459034
1.8501322269439697	28874495.23641073
1.8537418842315674	32550409.5601438
1.8573459386825562	28844871.213043988
1.860944390296936	23330077.598366372
1.864537239074707	25582595.469508376
1.8681244850158691	24736108.31546284
1.871706247329712	25777666.165677905
1.8752825260162354	27350731.428621646
1.8788533210754395	32868816.99134236
1.8824186325073242	31290289.344586164
1.8859784603118896	28778261.935986448
1.8895330429077148	30695883.436480314
1.8930821418762207	30985081.8636752
1.8966259956359863	32070387.625684407
1.9001644849777222	30619131.917758107
1.9036977291107178	30076521.02444044
1.9072256088256836	35213277.04051143
1.9107483625411987	35379663.5943644
1.9142658710479736	33180039.000211414
1.9177782535552979	35754201.05980887
1.9212853908538818	32738846.337882683
1.9247875213623047	30655956.468959775
1.9282845258712769	35289013.381640986
1.9317764043807983	34497097.25660911
1.9352631568908691	34407449.99954137
1.9387450218200684	26004671.999851096
1.942221760749817	28376715.013064824
1.9456936120986938	28120447.363894608
1.9491604566574097	29083146.06238789
1.952622413635254	32981477.444949877
1.956079363822937	26478929.539963394
1.959531545639038	28469970.400904268
1.962978720664978	33192697.13867028
1.966421127319336	36640366.7727787
1.9698586463928223	35507874.285437964
1.9732913970947266	37024272.39006619
1.9767193794250488	35537708.783460535
1.9801424741744995	36281904.94495701
1.9835609197616577	36367459.319431916
1.9869745969772339	35930838.42918033
1.990383505821228	32175496.264139995
1.9937876462936401	35381643.31415396
1.9971871376037598	37020986.37091682
2.000581979751587	34754399.9198624
2.003972291946411	36133003.36354777
2.007357597351074	38889595.6525489
2.0107386112213135	39799355.94144461
2.0141148567199707	40784626.372841716
2.017486572265625	39245796.88911566
2.0208535194396973	40382759.2769411
2.0242159366607666	41254202.3055529
2.027573823928833	39679449.72604224
2.0309269428253174	39203241.81793498
2.034275770187378	41832208.31867758
2.0376198291778564	42341907.953518085
2.040959596633911	42572249.741092645
2.044294595718384	42578653.1825402
2.0476250648498535	41468416.41004071
2.0509510040283203	41137855.01945263
2.054272413253784	42261754.43518651
2.057589530944824	42542002.81000765
2.0609018802642822	41431279.10729267
2.0642096996307373	42684513.59430852
2.0675129890441895	43693569.78731459
2.0708119869232178	44227781.991368346
2.074106216430664	44534516.7591635
2.0773961544036865	44758520.204028636
2.080681324005127	45131886.55974254
2.0839622020721436	45093086.73261321
2.087238311767578	44778132.36051194
2.090510129928589	45262754.84400684
2.0937774181365967	45482102.75489935
2.0970399379730225	45588675.721645035
2.1002981662750244	45575812.17866424
2.1035518646240234	45978942.43325508
2.1068007946014404	46100248.93239777
2.1100454330444336	45607163.492312014
2.1132853031158447	45230880.07859777
2.116520881652832	45801393.03685394
2.1197516918182373	46507313.984393254
2.1229779720306396	46799985.41993997
2.12619948387146	46895484.980736375
2.1294167041778564	46937890.46439976
2.132629156112671	47113946.7931508
2.1358368396759033	47395089.950440526
2.139039993286133	47514177.155596174
2.1422386169433594	47518230.12817222
2.145432472229004	47634748.01661156
2.1486217975616455	47744514.185720645
2.151806354522705	47771150.317793705
2.1549863815307617	47786460.448873915
2.1581614017486572	47993609.871145956
2.16133189201355	48170835.983776405
2.1644976139068604	48157042.672667794
2.167658567428589	48299242.36355205
2.1708147525787354	48362865.581892185
2.173966407775879	48371526.17189606
2.1771130561828613	48723701.993343696
2.1802549362182617	48882953.23739845
2.183391809463501	48960886.98152681
2.1865241527557373	48977049.616913915
2.1896514892578125	49004650.66886956
2.1927738189697266	49139531.26854874
2.1958916187286377	49166081.44209217
2.1990041732788086	48982405.00742929
2.2021119594573975	49006675.2804524
2.2052149772644043	49202453.36112652
2.208312749862671	49541504.81412245
2.2114057540893555	49709847.026540585
2.214493751525879	49485409.47405987
2.217576742172241	49354895.04595066
2.2206547260284424	49417344.10331726
2.2237277030944824	49421256.96917079
2.2267956733703613	49574060.5415872
2.2298583984375	49767433.75327953
2.2329163551330566	50107727.992727526
2.235969066619873	50187794.07816062
2.2390167713165283	49949442.76241103
2.2420592308044434	50037096.34711851
2.2450966835021973	50377398.13446456
2.248128890991211	50376229.613287486
2.2511560916900635	50245127.719635345
2.254178285598755	49644597.73135397
2.257194995880127	49654381.99122741
2.260206699371338	50282886.91817172
2.2632133960723877	50404009.97479533
2.266214609146118	50593009.79802643
2.2692108154296875	50507495.37441959
2.2722020149230957	50248589.35291283
2.2751877307891846	50677313.22698286
2.278168201446533	50980599.39828252
2.2811436653137207	51280528.11093764
2.284113883972168	50421199.49157201
2.287078857421875	48869764.25524332
2.290038824081421	49133981.846532896
2.2929933071136475	47315034.69162038
2.295942783355713	47012292.25650445
2.298887014389038	49530021.68745958
2.301826238632202	50903357.33330498
2.304760217666626	51326375.961379826
2.3076889514923096	51356152.236594304
2.310612440109253	51417760.006137066
2.3135311603546143	51158794.08056705
2.3164443969726562	50417426.58634375
2.319352865219116	49461886.592036754
2.322256088256836	46084648.55136904
2.3251543045043945	45118255.889245965
2.328047275543213	47788806.344692744
2.330935478210449	46285725.52835249
2.3338186740875244	43353647.85007054
2.3366971015930176	46134586.49510816
2.3395702838897705	49497114.188847475
2.3424389362335205	49565076.706590116
2.3453025817871094	47290687.90241196
2.348161458969116	47441074.408203065
2.351015567779541	49534579.17166443
2.353865146636963	49520724.41164985
2.3567099571228027	45950668.66350963
2.3595502376556396	44426232.91912959
2.3623859882354736	46583115.862552315
2.3652172088623047	44450399.9003257
2.368043899536133	39537155.052193075
2.370866537094116	41455703.46904455
2.3736846446990967	45778689.112885565
2.3764986991882324	45899181.0706889
2.3793084621429443	41440646.233565986
2.3821144104003906	42408008.60760763
2.384916305541992	48299179.10364665
2.387714147567749	50358639.55425149
2.3905084133148193	50533854.700951785
2.393299102783203	50269312.00384298
2.3960859775543213	50702642.36635077
2.398869514465332	48420794.063909665
2.4016497135162354	45811421.2787409
2.4044265747070312	46146420.079945944
2.407200336456299	46316192.214405484
2.409970998764038	47023520.678302564
2.4127390384674072	46149522.96236671
2.415503978729248	43315301.78071164
2.418266534805298	45055036.70986242
2.4210267066955566	46988901.60159444
2.4237842559814453	45508560.44750887
2.426539897918701	43412682.77717843
2.429293394088745	40322109.59423793
2.4320452213287354	39117816.39768014
2.4347951412200928	39976782.15345102
2.4375438690185547	41097479.30597913
2.440291166305542	40009887.08031303
2.443037271499634	40685065.42299269
2.445782423019409	44792294.12647626
2.4485268592834473	46044243.91522757
2.451270818710327	44166556.10510754
2.454014539718628	42876622.952969395
2.4567582607269287	41295845.86313658
2.4595019817352295	40426938.565439686
2.4622461795806885	44033274.67285384
2.4649908542633057	47567409.28886736
2.4677364826202393	45807817.01239813
2.4704833030700684	42850446.52378921
2.473231554031372	41492634.19667812
2.4759814739227295	42426454.7408772
2.4787333011627197	40045005.39149376
2.481487512588501	33777365.50135584
