#wavelength	surface flux
0.6450077295303345	2325.6759519384727
0.6472567915916443	2452.787958831891
0.6494921445846558	2584.4164477891172
0.6517150402069092	2724.447785676732
0.6539263725280762	2864.5947568982688
0.6561272740364075	3016.958686061221
0.6583186388015747	3168.2066134958245
0.6605015397071838	3342.0190894845973
0.6626768708229065	3513.008366216248
0.6648455858230591	3690.154214054555
0.6670085787773132	3874.634061191598
0.6691668033599854	4062.675958539181
0.6713210344314575	4012.390657021002
0.6734722256660461	4473.347370480084
0.6756211519241333	4689.1842037968445
0.6777685880661011	4902.351466577187
0.6799154281616211	5144.748454684275
0.6820623278617859	5373.54176175682
0.6842101216316223	5597.340691396615
0.6863595843315125	5834.680870341491
0.688511312007904	6000.386618055761
0.6906660795211792	6098.445451522469
0.6928245425224304	6525.4940546794605
0.6949873566627502	6926.427474187149
0.6971551775932312	7276.436282883119
0.6993286609649658	7524.791515078061
0.7015084028244019	8007.692601600288
0.7036949396133423	8435.931322371596
0.7058889269828796	8829.604074971432
0.7080909013748169	9224.845067639628
0.710301399230957	9637.05485233086
0.712520956993103	10069.756416624385
0.7147500514984131	10515.414463768553
0.7169892191886902	10963.082168025521
0.7192389369010925	11476.522388700152
0.7214996814727783	11980.683390567043
0.723771870136261	12514.652023373723
0.7260559797286987	13071.532133989791
0.7283523678779602	13646.34440958928
0.7306615710258484	14239.817246707169
0.7329838871955872	14838.303877508688
0.7353196740150452	15157.457723668178
0.7376693487167358	15898.670006292969
0.7400332689285278	16467.567214289196
0.7424117922782898	17045.054517380613
0.7448052167892456	17721.232922496867
0.7472138404846191	18710.52889708241
0.7496379613876343	19743.840843798367
0.7520779371261597	20600.456895594558
0.7545340061187744	21673.022416585234
0.7570064663887024	22710.501687117496
0.7594954967498779	23703.417680117185
0.7620013952255249	24676.676200186983
0.7645244002342224	24667.30461912622
0.7670646905899048	18286.625518396984
0.7696225643157959	21150.245865107296
0.7721980810165405	28539.377481402113
0.7747915983200073	30695.07179314972
0.7774031162261963	32140.961066981516
0.7800329327583313	32410.005862515736
0.7826811671257019	35069.845760514785
0.7853479981422424	36603.24895470726
0.7880334854125977	38158.79093356193
0.7907378077507019	39811.917130054055
0.7934610247612	41134.57102579299
0.7962033748626709	42819.10403958832
0.7989648580551147	45048.59192248045
0.801745593547821	46932.221424922835
0.8045456409454346	49120.218886704744
0.8073651194572449	51354.27729391827
0.8102040886878967	53620.54812570494
0.8130625486373901	56032.97688787676
0.8159406185150146	58522.88184999766
0.8188382983207703	60978.88066188235
0.8217556476593018	63727.883933491845
0.8246926665306091	66475.39407901227
0.8276493549346924	69319.93604607029
0.8306257724761963	72352.28600572726
0.8336219191551208	75511.21568371567
0.8366377949714661	78753.2854262506
0.8396733403205872	82101.71796613267
0.8427285552024841	85677.19721627125
0.8458034992218018	89298.97235168975
0.8488980531692505	93139.63471740039
0.8520121574401855	97068.7503326599
0.8551458716392517	100889.27315018079
0.8582990765571594	105079.01584579119
0.8614717125892639	109508.64394901582
0.8646637797355652	113811.43694502539
0.8678751587867737	118524.58387352171
0.8711057901382446	123951.40151257897
0.8743556141853333	129372.47831469896
0.87762451171875	135004.1608861661
0.8809124231338501	140805.3441563174
0.8842192888259888	146652.73233305055
0.8875449895858765	152897.87448151823
0.8908893465995789	158889.0315044387
0.894252359867096	165501.6217624428
0.8976338505744934	171238.7727282055
0.9010337591171265	179339.9442907845
0.9044519662857056	186960.10228034135
0.9078882932662964	194576.67925634646
0.9113426208496094	202594.62324100142
0.914814829826355	210596.16706606655
0.9183048605918884	218903.4620625199
0.9218124747276306	227712.32140432738
0.925337553024292	235834.3877404555
0.9288799166679382	243625.9452351394
0.9324395060539246	249625.57461283755
0.9360161423683167	258329.82497795817
0.9396095871925354	275140.62017904304
0.943219780921936	287248.7264894038
0.9468464851379395	291410.83759442286
0.9504896402359009	302682.35636629973
0.9541489481925964	317907.96790410817
0.9578243494033813	332221.0051192048
0.9615156054496765	342543.91957915627
0.9652225375175476	357726.0693177086
0.9689450263977051	374044.89538574324
0.9726828336715698	385472.8620210458
0.9764357805252075	402326.5277471503
0.9802037477493286	416975.5854797876
0.983986496925354	433278.0647324164
0.9877838492393494	449223.28665060643
0.9915955662727356	466475.6107180697
0.9954215884208679	483777.95057763567
0.9992615580558777	501186.69046003575
1.0031154155731201	518634.0949052112
1.0069829225540161	537324.710421308
1.0108637809753418	556581.3008450647
1.0147579908370972	576271.3390986435
1.018665075302124	596471.2158142967
1.022585153579712	617402.2148627429
1.0265177488327026	638843.2154958728
1.0304628610610962	660882.7516550254
1.0344202518463135	683479.5054095435
1.0383895635604858	706735.0975989097
1.0423706769943237	730626.8663778828
1.0463634729385376	754978.8673340522
1.0503677129745483	779633.6215239312
1.0543830394744873	805741.6750747663
1.058409333229065	832047.9039387561
1.0624464750289917	861118.071237014
1.0664942264556885	889908.9392404575
1.0705522298812866	918700.2401647619
1.0746204853057861	948500.5868213959
1.0786986351013184	978027.981432822
1.0827864408493042	1009212.142565701
1.086883783340454	1039995.7897259906
1.0909905433654785	1071646.1788239789
1.0951062440872192	1102631.243492674
1.0992310047149658	1123738.8686546737
1.10336434841156	1161014.2022846167
1.1075061559677124	1204342.4191061924
1.1116561889648438	1238866.5800959936
1.115814208984375	1154419.823780066
1.1199802160263062	1258207.5914617267
1.124153733253479	1225371.044195171
1.1283347606658936	1343175.6963529813
1.1325229406356812	1420599.9765471795
1.1367181539535522	1431221.3819120422
1.1409201622009277	1512100.3590973483
1.145128846168518	1510817.365796637
1.1493438482284546	1489568.0098137995
1.1535650491714478	1636305.5685415238
1.1577922105789185	1691264.5546634102
1.1620250940322876	1720781.9930392872
1.1662636995315552	1769371.4767645376
1.170507550239563	1799464.6399242007
1.174756646156311	1869514.2306340432
1.1790107488632202	1925713.7385708033
1.1832695007324219	1982955.5626465017
1.1875330209732056	2027719.0936797978
1.191800832748413	2090197.5944167655
1.1960728168487549	2141991.6915566274
1.2003488540649414	2194925.637621387
1.2046287059783936	2252997.5280373287
1.2089121341705322	2310430.378482033
1.2131990194320679	2362677.2594069852
1.2174891233444214	2427354.709023903
1.2217823266983032	2484524.1551481984
1.2260783910751343	2545214.2734491187
1.230377197265625	2604379.1295940783
1.2346785068511963	2669060.107510819
1.238982081413269	2732044.7134536896
1.2432878017425537	2795057.8747417177
1.2475954294204712	2859508.0818997556
1.2519049644470215	2924125.788068705
1.256216049194336	2990336.553918437
1.2605286836624146	3056928.389149959
1.2648425102233887	3126405.4335305872
1.2691574096679688	3192466.00043085
1.2734732627868652	3261325.716215812
1.2777899503707886	3333563.796974506
1.2821072340011597	3399053.7118076123
1.2864248752593994	3473554.9591353857
1.2907428741455078	3544094.066529964
1.2950609922409058	3580541.0627837824
1.2993791103363037	3667799.343069041
1.303696870803833	3764953.3613549843
1.3080145120620728	3841394.0411401615
1.3123314380645752	3915851.2284185626
1.3166478872299194	3987003.3155480693
1.3209635019302368	4061503.070239717
1.3252781629562378	4148704.49342224
1.3295916318893433	4222444.737476326
1.3339040279388428	4212320.873359586
1.3382149934768677	4086913.663490787
1.3425244092941284	3644422.9626410427
1.3468321561813354	3573532.348340175
1.3511382341384888	3743831.9255629308
1.3554422855377197	3834160.5167936212
1.3597444295883179	4200269.770005356
1.3640443086624146	4147084.1494486826
1.3683418035507202	4263081.41930306
1.3726370334625244	4684314.122771158
1.3769296407699585	4824702.4652485335
1.381219506263733	4995923.9865345545
1.3855066299438477	4385099.254399444
1.3897908926010132	4584358.983788107
1.3940720558166504	4613435.053294921
1.3983501195907593	4767887.465240769
1.4026249647140503	5168647.546724337
1.4068963527679443	5271476.634463205
1.4111642837524414	5453829.236448032
1.4154287576675415	4997752.394257419
1.419689416885376	5057409.440287528
1.4239463806152344	4835949.675498953
1.4281994104385376	5702505.388798058
1.4324485063552856	5499320.091410676
1.436693549156189	6048696.750885749
1.440934419631958	5967731.330314412
1.4451709985733032	6140370.913044279
1.449403166770935	6144541.398416224
1.453631043434143	5910292.7402625205
1.4578542709350586	6517941.1873107245
1.4620729684829712	6640861.737210424
1.4662868976593018	6793554.432938716
1.4704961776733398	7036388.3925695885
1.4747005701065063	6982442.592734188
1.4788999557495117	7280567.969006083
1.4830944538116455	7254426.274594811
1.4872838258743286	7460541.791721108
1.491468071937561	7701232.953907622
1.4956470727920532	7771785.868729142
1.4998208284378052	7815358.5092178425
1.5039892196655273	7990515.681554143
1.5081522464752197	8112385.804746025
1.5123097896575928	8203172.728274155
1.5164618492126465	8363248.83650009
1.5206083059310913	8431825.75642792
1.5247491598129272	8515443.149806969
1.5288842916488647	8417109.697919047
1.5330137014389038	8767345.92412232
1.5371372699737549	8973164.6274379
1.541254997253418	9079487.606488593
1.545366883277893	9200535.211356051
1.5494728088378906	9321409.144937359
1.5535727739334106	9447939.612546243
1.5576666593551636	9532460.098052794
1.561754584312439	9645963.394791355
1.5658363103866577	9787543.389616685
1.5699119567871094	9920375.852330144
1.5739814043045044	10044602.727264741
1.5780447721481323	10147162.045304246
1.582101821899414	10264883.20537439
1.5861525535583496	10367021.314137269
1.5901970863342285	10493280.920422988
1.5942351818084717	10617703.157498617
1.5982669591903687	10737065.981486326
1.6022924184799194	10857715.874377841
1.606311559677124	10970359.74747578
1.6103241443634033	11082675.018700605
1.6143304109573364	11206612.411046913
1.6183301210403442	11319195.418410227
1.6223233938217163	11415192.154913494
1.6263102293014526	11523993.02097244
1.6302905082702637	11643662.922743201
1.634264349937439	11741288.888223829
1.638231635093689	11893337.788913082
1.6421923637390137	12004287.544012597
1.646146535873413	12102701.32220124
1.6500942707061768	12238618.274731494
1.6540353298187256	12350728.797056235
1.6579699516296387	12443724.435357086
1.661897897720337	12570218.057260325
1.6658192873001099	12640592.07476765
1.6697341203689575	12755732.646434829
1.6736423969268799	12928008.66032655
1.677544116973877	13008464.941186802
1.6814392805099487	13119066.615470663
1.6853278875350952	13225585.885393878
1.6892099380493164	13406310.497450292
1.6930854320526123	13444078.337774305
1.696954369544983	13610871.642581431
1.7008168697357178	13677415.176084578
1.7046726942062378	13796196.339587092
1.708522081375122	13929692.841569457
1.712364912033081	14092925.884842973
1.7162011861801147	14202673.112062126
1.7200311422348022	14262298.991660295
1.723854422569275	14207320.427550435
1.7276713848114014	14278825.529697306
1.731481909751892	14385112.373957448
1.7352858781814575	14128266.616591401
1.7390835285186768	14376360.636742186
1.7428747415542603	14368954.08089115
1.7466596364974976	14958150.82541069
1.7504380941390991	15128280.480886193
1.7542102336883545	15023466.584059129
1.7579760551452637	15030866.241649985
1.7617355585098267	15142034.391042994
1.7654887437820435	14633880.87570894
1.7692357301712036	14243961.228359899
1.7729763984680176	14950861.728110326
1.776710867881775	13706345.934543552
1.7804391384124756	15262196.85028574
1.7841613292694092	14894613.987213142
1.7878772020339966	14579653.102339651
1.7915871143341064	12780577.08703957
1.7952908277511597	14403804.221647255
1.7989884614944458	14556420.528295571
1.8026801347732544	14299234.39058221
1.806365728378296	14159428.05565256
1.8100452423095703	12614759.234629096
1.8137187957763672	15307650.359494464
1.817386507987976	15920057.449716622
1.8210482597351074	16005051.563200848
1.8247040510177612	17166845.568638813
1.828354001045227	17268929.940161385
1.8319982290267944	16041400.126075264
1.8356364965438843	17011202.448308703
1.8392690420150757	16548310.57198013
1.8428958654403687	17062963.09942651
1.8465168476104736	15947082.867098885
1.8501322269439697	16310834.571568059
1.8537418842315674	17542100.020317275
1.8573459386825562	16052742.469591415
1.860944390296936	13033211.617239447
1.864537239074707	14764845.743920915
1.8681244850158691	13889009.944414686
1.871706247329712	14322614.598761521
1.8752825260162354	15184042.335044611
1.8788533210754395	18012635.810534567
1.8824186325073242	17202195.335646074
1.8859784603118896	15979085.871151034
1.8895330429077148	17140882.496241976
1.8930821418762207	17336883.976146817
1.8966259956359863	17870711.86944665
1.9001644849777222	16992380.411768418
1.9036977291107178	16516067.054834034
1.9072256088256836	19100628.76506933
1.9107483625411987	19224965.6970931
1.9142658710479736	18522257.184612773
1.9177782535552979	19478268.729414515
1.9212853908538818	17975628.518627375
1.9247875213623047	17196499.609833468
1.9282845258712769	19366853.514132574
1.9317764043807983	19136872.754229948
1.9352631568908691	18863182.16135503
1.9387450218200684	15006780.094068155
1.942221760749817	16224034.618867269
1.9456936120986938	15913816.895183345
1.9491604566574097	16308386.96579983
1.952622413635254	18259905.66661653
1.956079363822937	15422699.254170086
1.959531545639038	16707202.026301097
1.962978720664978	19198829.129852474
1.966421127319336	20543168.278217603
1.9698586463928223	20406364.43033443
1.9732913970947266	21024581.684854634
1.9767193794250488	20322225.213074293
1.9801424741744995	20751818.843110703
1.9835609197616577	20748800.05959225
1.9869745969772339	20172464.830930088
1.990383505821228	18377785.97163859
1.9937876462936401	20180950.31201634
1.9971871376037598	21196622.399740938
2.000581979751587	20163174.340409834
2.003972291946411	20522076.968524847
2.007357597351074	21925022.43259589
2.0107386112213135	22433732.922797285
2.0141148567199707	22561818.412969753
2.017486572265625	21885958.340281516
2.0208535194396973	22504709.943909157
2.0242159366607666	22866497.746829145
2.027573823928833	22324725.576348256
2.0309269428253174	22000515.6378485
2.034275770187378	23066226.582306188
2.0376198291778564	23399970.005140837
2.040959596633911	23509144.704483178
2.044294595718384	23507974.818517614
2.0476250648498535	23024998.802774355
2.0509510040283203	22941614.491727374
2.054272413253784	23539994.07478632
2.057589530944824	23648381.682164453
2.0609018802642822	23269926.388494022
2.0642096996307373	23751365.17073679
2.0675129890441895	24114134.950963616
2.0708119869232178	24340667.39727744
2.074106216430664	24518437.011508845
2.0773961544036865	24646463.960251737
2.080681324005127	24769136.565993436
2.0839622020721436	24796003.257933024
2.087238311767578	24777580.07211465
2.090510129928589	24951127.886561256
2.0937774181365967	25066170.02820114
2.0970399379730225	25144244.41101055
2.1002981662750244	25188435.467822548
2.1035518646240234	25344258.08118233
2.1068007946014404	25405665.59599775
2.1100454330444336	25236658.485874828
2.1132853031158447	25113524.525139596
2.116520881652832	25390724.07847702
2.1197516918182373	25714133.84198904
2.1229779720306396	25867344.719518576
2.12619948387146	25936241.991393056
2.1294167041778564	25991194.184681263
2.132629156112671	26082665.22517985
2.1358368396759033	26199422.39520767
2.139039993286133	26277669.187279623
2.1422386169433594	26320641.89431621
2.145432472229004	26388371.164280847
2.1486217975616455	26460024.445617948
2.151806354522705	26504938.30838627
2.1549863815307617	26559895.391763266
2.1581614017486572	26673375.986020952
2.16133189201355	26770342.476058785
2.1644976139068604	26805191.24898607
2.167658567428589	26880971.170542803
2.1708147525787354	26922582.39786319
2.173966407775879	26958354.927182022
2.1771130561828613	27117580.50224524
2.1802549362182617	27212981.029906157
2.183391809463501	27282452.78658588
2.1865241527557373	27323886.160480656
2.1896514892578125	27365803.487458155
2.1927738189697266	27439203.65580084
2.1958916187286377	27469435.651322525
2.1990041732788086	27450022.79561291
2.2021119594573975	27519593.803155072
2.2052149772644043	27630170.86997587
2.208312749862671	27764194.438618485
2.2114057540893555	27835642.58288258
2.214493751525879	27754593.592155077
2.217576742172241	27740796.0965245
2.2206547260284424	27821847.31540258
2.2237277030944824	27851380.01325057
2.2267956733703613	27951138.30340353
2.2298583984375	28062118.77766842
2.2329163551330566	28200060.694788236
2.235969066619873	28261995.300769754
2.2390167713165283	28204661.606883988
2.2420592308044434	28261736.639815602
2.2450966835021973	28419645.62058071
2.248128890991211	28466779.970724635
2.2511560916900635	28440754.248511337
2.254178285598755	28253618.190210912
2.257194995880127	28301163.526438013
2.260206699371338	28566928.72045897
2.2632133960723877	28658652.644717682
2.266214609146118	28739803.3419374
2.2692108154296875	28710173.066454656
2.2722020149230957	28643228.171025563
2.2751877307891846	28831624.153980196
2.278168201446533	28972406.98441446
2.2811436653137207	29101269.983858325
2.284113883972168	28805667.18404165
2.287078857421875	28255819.486495633
2.290038824081421	28381074.635658424
2.2929933071136475	27703148.24688974
2.295942783355713	27609548.27179217
2.298887014389038	28718864.64787607
2.301826238632202	29317315.385070026
2.304760217666626	29446025.646542747
2.3076889514923096	29511209.75787374
2.310612440109253	29615038.638672274
2.3135311603546143	29546259.984727338
2.3164443969726562	29255976.20464984
2.319352865219116	28872049.680239495
2.322256088256836	27252159.616942875
2.3251543045043945	26615493.154875357
2.328047275543213	27987182.055560544
2.330935478210449	27628435.064201098
2.3338186740875244	26561483.90271509
2.3366971015930176	27746050.448020227
2.3395702838897705	29197456.39431148
2.3424389362335205	29023454.344833758
2.3453025817871094	27813241.580184404
2.348161458969116	28046510.60782884
2.351015567779541	28978498.373783972
2.353865146636963	28821862.622763395
2.3567099571228027	26947652.825007785
2.3595502376556396	26448703.485141404
2.3623859882354736	27727336.45816301
2.3652172088623047	26188713.75864984
2.368043899536133	23667580.911073547
2.370866537094116	25326339.67544853
2.3736846446990967	27863793.974194434
2.3764986991882324	27929425.246883463
2.3793084621429443	25078587.226108152
2.3821144104003906	25195299.166610394
2.384916305541992	28561254.72897506
2.387714147567749	29750919.76248575
2.3905084133148193	29838346.808442872
2.393299102783203	29870200.78951413
2.3960859775543213	30052430.14273792
2.398869514465332	28856839.279749595
2.4016497135162354	27544600.514785152
2.4044265747070312	27857926.871463057
2.407200336456299	28318055.603185344
2.409970998764038	28772792.9484114
2.4127390384674072	27888272.324490916
2.415503978729248	26277771.460139845
2.418266534805298	27629372.934683982
2.4210267066955566	29002952.586785704
2.4237842559814453	28481687.8076558
2.426539897918701	27264758.225208208
2.429293394088745	25168318.00679533
2.4320452213287354	24453200.356074933
2.4347951412200928	25343352.77122228
2.4375438690185547	26407704.669340603
2.440291166305542	25825293.174061913
2.443037271499634	26105877.322483633
2.445782423019409	28362072.873300426
2.4485268592834473	28861495.234213218
2.451270818710327	27590244.309119925
2.454014539718628	26903135.005385708
2.4567582607269287	25962610.20963132
2.4595019817352295	25516244.461267885
2.4622461795806885	27456145.665357817
2.4649908542633057	29905878.811794825
2.4677364826202393	29946842.4359258
2.4704833030700684	28787544.929836567
2.473231554031372	27886965.57348433
2.4759814739227295	27808598.725040685
