#wavelength	surface flux
0.7	356.0265962684259
0.7001166666666666	357.394488178423
0.7002333527777778	358.73990895855064
0.700350058336574	360.02882982695985
0.7004667833462966	361.3034007169806
0.7005835278101878	362.5672904289486
0.7007002917314895	363.8437990548749
0.7008170751134447	365.1269046008773
0.7009338779592968	366.435605411881
0.7010507002722901	367.72257323912214
0.7011675420556689	368.98112270740677
0.701284403312678	370.26186530970955
0.7014012840465635	371.5508941565841
0.7015181842605713	372.8056975954501
0.701635103957948	374.0129393476875
0.701752043141941	375.10902573530416
0.701869001815798	376.4273260432508
0.7019859799827672	377.9001854161796
0.7021029776460976	379.190565827604
0.7022199948090387	380.4709657729576
0.7023370314748403	381.82285231764183
0.7024540876467528	383.1586120388842
0.702571163328027	384.4755541496827
0.7026882585219152	385.68168862377786
0.7028053732316688	386.8602184933494
0.7029225074605406	388.2152462495375
0.7030396612117841	389.5720530996211
0.7031568344886527	390.9321214379261
0.7032740272944008	392.3764172257623
0.7033912396322832	393.8699429653098
0.7035084715055552	395.2791673233673
0.7036257229174727	396.6356563911101
0.7037429938712924	397.82816460403836
0.7038602843702709	399.14667607106367
0.7039775944176659	400.5843904180238
0.7040949240167356	401.8823818952746
0.7042122731707383	403.17428473966527
0.7043296418829335	404.6953470957349
0.7044470301565806	406.1504035120939
0.70456443799494	407.5065603667277
0.7046818654012724	408.9434469077872
0.7047993123788394	410.4155492285344
0.7049167789309024	411.7645791586737
0.7050342650607243	413.1475562057742
0.7051517707715678	414.6144443451307
0.7052692960666963	416.0561953541352
0.705386840949374	417.48051841448057
0.7055044054228656	418.9127327753175
0.7056219894904361	420.3602520802255
0.7057395931553511	421.86932564396125
0.705857216420877	423.3499984288144
0.7059748592902804	424.80066298980563
0.7060925217668288	426.2524399498713
0.70621020385379	427.70763990240073
0.7063279055544321	429.1941014161891
0.7064456268720246	430.6515146118078
0.7065633678098366	432.06287265652884
0.7066811283711383	433.4611911757843
0.7067989085592001	434.85374775188865
0.7069167083772933	436.4011354261742
0.7070345278286895	437.9198463335313
0.707152366916661	439.36551067061197
0.7072702256444803	440.70123017638497
0.7073881040154211	441.96242235841373
0.7075060020327569	443.70568147306983
0.7076239196997625	445.4574593523819
0.7077418570197124	447.02929455135023
0.7078598139958823	448.5549881761359
0.7079777906315483	450.03582138828705
0.7080957869299869	451.56680656181527
0.7082138028944751	453.1210889987709
0.7083318385282908	454.76223726406266
0.7084498938347124	456.3819298129466
0.708567968817018	457.97220239174175
0.7086860634784875	459.34072194066084
0.7088041778224007	460.6143862958391
0.7089223118520377	461.5489834437615
0.7090404655706796	462.9323653451897
0.709158638981608	465.17742529316644
0.709276832088105	466.96920301853174
0.7093950448934531	468.51702181891403
0.7095132774009353	469.2630043946357
0.7096315296138355	470.41792436060064
0.7097498015354378	472.79420660841794
0.7098680931690269	474.82630376828246
0.7099864045178884	476.6046711479277
0.7101047355853081	478.3255297284625
0.7102230863745722	480.02991604919646
0.7103414568889679	481.69639296472525
0.7104598471317828	483.34667122997126
0.7105782571063047	484.98110446631887
0.7106966868158224	486.40508061807344
0.710815136263625	487.84147902450565
0.7109336054530023	489.6848611776848
0.7110520943872445	491.48081777201986
0.7111706030696424	493.2162278838532
0.7112891315034873	494.95345399938054
0.7114076796920712	496.6883740940834
0.7115262476386865	498.37883411926595
0.7116448353466263	500.0426029969913
0.711763442819184	501.6622724424707
0.711882070059654	503.3521442847137
0.7120007170713306	505.0727201383219
0.7121193838575091	506.67293967935757
0.7122380704214853	508.3214944783563
0.7123567767665555	510.07212872249755
0.7124755028960166	511.79041055751657
0.7125942488131658	513.4902878044611
0.7127130145213015	515.1807791294599
0.7128318000237216	516.870915443743
0.7129506053237256	518.5609377883796
0.7130694304246129	520.2325117465705
0.7131882753296837	521.8910370120818
0.7133071400422386	523.5492334589277
0.7134260245655789	525.1953003123792
0.7135449289030065	526.797604025662
0.7136638530578235	528.7909241342186
0.7137827970333332	531.121640689515
0.7139017608328388	532.9032715718557
0.7140207444596443	534.60755740648
0.7141397479170543	536.3844233907879
0.7142587712083737	538.0846260017018
0.7143778143369084	539.7062001417265
0.7144968773059646	541.7974016284218
0.7146159601188489	543.9462831005809
0.7147350627788687	545.7712877467924
0.7148541852893318	547.5385844778182
0.7149733276535467	549.2366408099507
0.7150924898748222	550.9019824921811
0.715211671956468	552.6106046800037
0.7153308739017941	554.8033568525892
0.715450095714111	556.8649645459722
0.71556933739673	558.7454175992884
0.7156885989529628	560.1330896910076
0.7158078803861218	561.4013660237953
0.7159271816995193	563.3916852476477
0.7160465028964692	565.1693476014108
0.7161658439802853	566.6137344930129
0.7162852049542819	567.307192341457
0.7164045858217744	567.6540532316882
0.716523986586078	566.8607543199365
0.7166434072505089	565.8591137132047
0.716762847818384	564.4926354979619
0.7168823082930204	566.3426884298136
0.7170017886777359	569.6771146606218
0.7171212889758488	575.1079616875671
0.7172408091906781	579.4654780280871
0.7173603493255433	581.751435110843
0.7174799093837642	582.5580257203393
0.7175994893686615	582.6303843940589
0.7177190892835562	586.2345961908873
0.7178387091317702	589.9799134996464
0.7179583489166254	593.9879258083771
0.7180780086414448	596.8342415165429
0.7181976883095517	599.0603078929273
0.7183173879242699	600.832807058683
0.718437107488924	602.3068700540382
0.7185568470068389	603.1359124781204
0.7186766064813399	603.8108840073207
0.7187963859157535	604.3990864538185
0.7189161853134061	609.234640566807
0.719036004677625	613.6152899835656
0.7191558440117378	616.627998547642
0.7192757033190732	618.5818879523912
0.7193955826029597	619.9181225210182
0.7195154818667269	621.8670753008996
0.7196354011137046	624.0623043422847
0.7197553403472235	626.7892378261947
0.7198752995706147	629.1095938488552
0.7199952787872098	631.1888885379146
0.720115278000341	632.9996053599981
0.7202352972133411	634.586875833458
0.7203553364295432	635.6637154044038
0.7204753956522815	637.4335199213509
0.7205954748848902	639.614086440382
0.7207155741307044	642.1006685592064
0.7208356933930594	644.7832679334462
0.7209558326752915	647.9007366441061
0.7210759919807375	650.4529464410612
0.7211961713127342	652.6766904925471
0.7213163706746197	654.6210310265506
0.7214365900697322	656.7898822522524
0.7215568295014103	659.4926208248615
0.721677088972994	661.9690556517406
0.7217973684878227	664.3188977187853
0.7219176680492374	665.6448967590895
0.7220379876605789	667.4671738486268
0.722158327325189	670.4147163443473
0.7222786870464099	673.2036422458407
0.7223990668275843	675.9087553759456
0.7225194666720555	677.8351264833384
0.7226398865831676	679.9496390807305
0.7227603265642646	682.4560805335301
0.722880786618692	684.1565870593935
0.7230012667497951	685.4761314929233
0.7231217669609201	688.1900400983264
0.7232422872554135	690.4006839477887
0.7233628276366229	691.6796450787614
0.7234833881078956	693.7553351443767
0.7236039686725803	696.1257602150546
0.7237245693340255	696.7116351882906
0.7238451900955812	698.612589795898
0.7239658309605971	702.7091763204477
0.7240864919324239	705.9555565134807
0.7242071730144127	708.8435655274342
0.724327874209915	711.3726489546732
0.7244485955222832	713.4874740853755
0.7245693369548704	714.9870786380885
0.7246900985110294	717.5615803355448
0.7248108801941148	720.541142549579
0.7249316820074803	723.9135712159014
0.7250525039544815	726.7064067391226
0.7251733460384739	728.7446856448935
0.7252942082628137	730.3144762415835
0.7254150906308574	731.7824511576104
0.7255359931459625	733.465144196151
0.7256569158114868	736.0584520496859
0.7257778586307888	739.6761140973681
0.7258988216072273	741.724300741209
0.7260198047441617	743.581818075839
0.7261408080449525	746.2614304616042
0.72626183151296	747.5813604392027
0.7263828751515454	747.5992276452042
0.7265039389640706	751.9467588159662
0.726625022953898	756.4255736114864
0.7267461271243904	758.667022184076
0.7268672514789111	761.13561406705
0.7269883960208241	763.7863051914018
0.7271095607534942	766.8428873477343
0.7272307456802866	770.0289450502444
0.7273519508045666	773.4685953397513
0.7274731761297006	776.0516234830814
0.7275944216590555	778.0721333241713
0.7277156873959987	779.8724787253778
0.7278369733438982	781.484331156466
0.727958279506122	782.6901177797695
0.7280796058860397	786.3191720335385
0.7282009524870207	791.2075834750048
0.7283223193124353	794.6607201190419
0.7284437063656539	797.8989039023373
0.7285651136500483	800.7544982169884
0.7286865411689898	802.987278722954
0.7288079889258514	804.8292585504496
0.7289294569240056	804.6847605279934
0.7290509451668262	805.6522225694608
0.7291724536576875	808.1598517249531
0.7292939823999636	811.2763921241033
0.7294155313970303	814.5962800270835
0.7295371006522632	818.0836336998929
0.7296586901690385	820.9575162584399
0.7297802999507332	823.1736767811994
0.7299019300007252	826.4388344663931
0.7300235803223919	829.2010548583193
0.7301452509191123	829.0262438856097
0.7302669417942654	830.1604857365998
0.7303886529512311	832.3657421116369
0.7305103843933897	830.2772385998912
0.7306321361241218	831.1077055557777
0.7307539081468093	841.311913220318
0.7308757004648336	848.0682496099946
0.7309975130815778	852.7250160432258
0.7311193460004248	854.7186064883555
0.7312411992247582	857.264826835854
0.7313630727579622	861.0015697944905
0.7314849666034219	864.2951660556834
0.7316068807645224	867.288115870811
0.7317288152446498	868.4707402142446
0.7318507700471907	869.7293417136337
0.7319727451755319	871.0944220070007
0.732094740633061	875.8839886157247
0.7322167564231665	881.1467634477299
0.7323387925492371	883.1883599952683
0.7324608490146619	886.2589187001988
0.732582925822831	890.3648426845009
0.7327050229771347	893.4975753213962
0.7328271404809642	896.2391715425334
0.7329492783377112	898.1646517153497
0.7330714365507675	901.1293676828177
0.7331936151235259	904.8323551646732
0.7333158140593796	907.6348973494872
0.7334380333617229	909.8769829182467
0.7335602730339499	910.9876371375674
0.7336825330794556	914.8609977841395
0.7338048135016354	919.9927744272005
0.7339271143038857	923.3636655589728
0.734049435489603	926.0043807210933
0.7341717770621846	927.5679860625794
0.7342941390250283	930.5971268947383
0.7344165213815324	933.9078530486019
0.734538924135096	936.2047610727398
0.7346613472891185	939.3723725258288
0.734783790847	943.4071263006414
0.7349062548121412	945.0118838767371
0.7350287391879431	945.6021821602644
0.7351512439778078	944.0919808180108
0.7352737691851374	948.641393570612
0.735396314813335	957.1973590259391
0.7355188808658037	960.6324986439957
0.7356414673459482	964.3455691707223
0.7357640742571725	968.9126429726011
0.7358867016028818	972.1554777940795
0.7360093493864824	974.8723900324635
0.7361320176113801	977.8643588612233
0.736254706280982	980.5895425062124
0.7363774153986956	982.9829767633474
0.7365001449679286	984.3659402660255
0.7366228949920899	985.6766980906892
0.7367456654745885	987.6663056769939
0.7368684564188344	992.5177307031274
0.7369912678282374	999.6415319714694
0.7371140997062088	1003.8880431138107
0.7372369520561599	1007.641972044216
0.7373598248815024	1010.7618859264401
0.7374827181856494	1013.9386468392045
0.7376056319720137	1017.1649604757151
0.7377285662440091	1020.8429704857089
0.7378515210050496	1024.02868609537
0.7379744962585505	1026.5314037665075
0.738097492007927	1029.6666659159991
0.7382205082565949	1032.861783088321
0.738343545007971	1035.527224039148
0.7384666022654723	1038.5177178651645
0.7385896800325165	1041.7839084363204
0.7387127783125219	1046.1615128241879
0.7388358971089073	1050.3298173957294
0.7389590364250921	1053.7413354996345
0.7390821962644963	1057.0065068985139
0.7392053766305403	1060.2100306398645
0.7393285775266454	1063.6559636664504
0.7394517989562333	1067.1559225361566
0.7395750409227259	1070.7301781115514
0.7396983034295463	1073.974847045032
0.739821586480118	1077.0094670552944
0.7399448900778645	1079.447391509285
0.7400682142262109	1083.0121175002107
0.740191558928582	1087.4875981758703
0.7403149241884034	1090.6964276933684
0.7404383100091014	1093.8814410519594
0.7405617163941028	1097.2196933144396
0.7406851433468352	1100.8377967082822
0.7408085908707264	1104.487803836882
0.7409320589692048	1106.877434328283
0.7410555476456997	1110.5654382982684
0.7411790569036406	1115.8418914876427
0.7413025867464579	1119.6387035168887
0.7414261371775823	1123.1005590911752
0.7415497082004452	1126.4388975247514
0.7416732998184786	1129.8653364949905
0.741796912035115	1133.3524215368368
0.7419205448537874	1136.2857256961986
0.7420441982779297	1139.5061813471445
0.742167872310976	1143.2681298772745
0.7422915669563612	1147.680647352821
0.7424152822175206	1152.1781712249876
0.7425390180978901	1155.6558941812932
0.7426627746009065	1158.7566283740098
0.7427865517300065	1161.4910323287972
0.7429103494886282	1166.2626539041325
0.7430341678802096	1171.0633766672104
0.7431580069081896	1175.287679547096
0.7432818665760077	1179.1818153285328
0.7434057468871037	1182.898756019
0.7435296478449182	1186.449846768022
0.7436535694528923	1189.891834141739
0.7437775117144678	1193.1903096761885
0.7439014746330868	1196.1739517572478
0.7440254582121922	1199.2779502608255
0.7441494624552276	1203.1169922652928
0.7442734873656368	1206.9293281757134
0.7443975329468645	1210.7234904365978
0.7445215992023557	1214.372411472884
0.7446456861355559	1218.2151293417967
0.7447697937499119	1222.3951495081237
0.7448939220488703	1226.5591458849833
0.7450180710358784	1230.7475574548923
0.7451422407143843	1235.107511503467
0.7452664310878367	1239.1394954982063
0.7453906421596846	1242.8863146606925
0.7455148739333779	1246.7961471364208
0.7456391264123667	1250.7808393869268
0.7457633996001021	1254.8988845020515
0.7458876935000356	1258.6006109935206
0.7460120081156189	1262.1235639404886
0.7461363434503048	1265.5973658865971
0.7462606995075466	1269.491212149195
0.7463850762907978	1273.825680760432
0.7465094738035127	1278.2110256898939
0.7466338920491467	1282.54562511914
0.746758331031155	1286.7251617510044
0.7468827907529935	1290.7105920119338
0.7470072712181189	1294.6245273466259
0.7471317724299886	1298.9567214597882
0.7472562943920602	1303.2139737397404
0.7473808371077922	1307.3802173303275
0.7475054005806435	1311.0264993992412
0.7476299848140736	1314.7551164410042
0.7477545898115426	1319.040985162921
0.7478792155765113	1323.1143027958688
0.7480038621124406	1327.0382456656007
0.7481285294227926	1330.093923917799
0.7482532175110298	1333.9044628929576
0.7483779263806148	1338.7288921380136
0.7485026560350116	1343.03589108748
0.7486274064776842	1347.2713779769792
0.748752177712097	1351.6469052253397
0.7488769697417158	1356.0547858252814
0.749001782570006	1360.4797952091515
0.7491266162004343	1364.6806704105607
0.7492514706364677	1368.9251694539994
0.7493763458815739	1373.2315841895
0.7495012419392209	1377.531559319102
0.7496261588128773	1381.7888844609363
0.7497510965060128	1385.8894839522713
0.7498760550220971	1390.0656714938118
0.7500010343646007	1394.2874141116308
0.7501260345369949	1398.112835071468
0.750251055542751	1402.073373357621
0.7503760973853414	1406.2294284464492
0.7505011600682389	1410.4255360562831
0.750626243594917	1414.5940221849949
0.7507513479688495	1418.6214836157878
0.7508764731935109	1422.8901696664025
0.7510016192723765	1427.313293312305
0.7511267862089218	1431.7876068698326
0.7512519740066232	1436.1509316990164
0.7513771826689577	1440.3575614830042
0.7515024121994025	1444.5552852588876
0.7516276626014359	1448.775501236994
0.751752933878536	1453.080866599574
0.7518782260341824	1457.2687637139118
0.7520035390718548	1461.3917789768996
0.7521288729950334	1465.7061589210923
0.7522542278071992	1469.9547145435674
0.7523796035118337	1474.1166831832709
0.7525050001124189	1478.4397376946386
0.7526304176124378	1482.7652163826087
0.7527558560153731	1486.9993976784058
0.752881315324709	1491.4401345166482
0.7530067955439299	1495.9780867001161
0.7531322966765205	1500.249640646632
0.7532578187259665	1504.5861853619606
0.7533833616957542	1508.9987332314183
0.75350892558937	1513.1388346229858
0.7536345104103016	1517.2737227925998
0.7537601161620366	1521.5038781488029
0.7538857428480638	1525.5201812275202
0.7540113904718717	1529.4580910227558
0.7541370590369503	1533.6049008501734
0.7542627485467898	1537.8263583578373
0.7543884590048808	1542.1227151361134
0.7545141904147151	1546.6376108475024
0.7546399427797842	1551.0616513718046
0.7547657161035808	1555.2422838074924
0.754891510389598	1559.454860618181
0.7550173256413296	1563.6650948197143
0.7551431618622698	1567.7836325040503
0.7552690190559135	1571.8935980001895
0.7553948972257561	1575.9966226267456
0.7555207963752938	1580.116723469762
0.755646716508023	1584.2445841282256
0.755772657627441	1588.383952225111
0.7558986197370455	1592.482850857866
0.756024602840335	1596.517582820256
0.7561506069408084	1600.3327563340133
0.7562766320419653	1604.214276216813
0.7564026781473054	1608.1391542672827
0.75652874526033	1612.0808388503037
0.7566548333845401	1615.9719864738781
0.7567809425234375	1619.797246213514
0.7569070726805247	1623.7182751628413
0.7570332238593047	1627.6168190963294
0.7571593960632813	1631.4039083549467
0.7572855892959586	1635.0400131487145
0.7574118035608413	1638.5934109379714
0.7575380388614347	1642.037136465718
0.7576642952012449	1645.606780214262
0.7577905725837782	1649.297833019089
0.7579168710125422	1652.7504707935213
0.7580431904910444	1656.1518070956909
0.7581695310227928	1659.490969255616
0.7582958926112967	1662.710300678594
0.7584222752600652	1665.8871710456272
0.7585486789726085	1669.042417178941
0.7586751037524372	1672.16154373414
0.7588015496030628	1675.251558551769
0.7589280165279966	1677.972376519732
0.7590545045307512	1680.6238723182412
0.7591810136148396	1683.1836428346694
0.7593075437837755	1685.9157318121197
0.7594340950410726	1688.5609070669223
0.7595606673902461	1690.8872438739586
0.7596872608348112	1693.11626200264
0.7598138753782836	1695.2788267308345
0.75994051102418	1697.256658025665
0.7600671677760173	1699.125466093729
0.7601938456373134	1700.8977181352825
0.7603205446115863	1702.5317148837044
0.7604472647023548	1703.9644036615505
0.7605740059131385	1705.0702989418685
0.7607007682474575	1706.0301815939533
0.7608275517088319	1706.8600425322031
0.7609543563007835	1707.356967969292
0.7610811820268336	1707.55992354206
0.7612080288905045	1707.579442109742
0.7613348968953197	1707.330833044552
0.7614617860448022	1706.9255198910507
0.7615886963424764	1706.3550383922618
0.7617156277918667	1705.2341313572078
0.7618425803964988	1703.9269863527365
0.7619695541598982	1702.3575440775335
0.7620965490855914	1700.3098096898232
0.7622235651771058	1698.0065457175995
0.7623506024379685	1695.2444152446985
0.7624776608717082	1692.074184783269
0.7626047404818536	1688.6220537765214
0.7627318412719337	1684.6003919923976
0.762858963245479	1680.1827043845906
0.7629861064060198	1675.3071919798733
0.7631132707570876	1669.7361921686443
0.7632404563022137	1663.8017593819852
0.7633676630449308	1657.2718065662361
0.7634948909887717	1650.1766383949973
0.7636221401372697	1642.737155591686
0.7637494104939593	1634.5801294984813
0.7638767020623748	1625.8696712068224
0.7640040148460518	1616.760142385822
0.7641313488485262	1606.6221554839365
0.7642587040733344	1596.0540425549977
0.7643860805240132	1584.983052251468
0.7645134782041005	1573.5692713260519
0.7646408971171346	1561.8456731927743
0.764768337266654	1549.5570949052392
0.7648957986561985	1536.0292769285577
0.7650232812893079	1521.279889955004
0.7651507851695227	1502.9005665214418
0.7652783103003843	1484.9269092359395
0.7654058566854343	1467.1866838678789
