#wavelength	surface flux
0.8	5744.583794207935
0.8002000000000001	5767.272337875382
0.8004000500000003	5788.005315063971
0.8006001500125003	5813.874644355329
0.8008003000500035	5834.439250171716
0.8010005001250161	5858.556041674188
0.8012007502500472	5883.122899861736
0.8014010504376099	5907.3735500113
0.8016014007002193	5929.6803473646305
0.8018018010503944	5949.172812462855
0.8020022515006572	5975.73711976248
0.8022027520635323	6002.408036809191
0.8024033027515483	6026.694115538217
0.8026039035772362	6044.653499916397
0.8028045545531306	6066.763046948094
0.8030052556917691	6085.9381687255545
0.803206007005692	6121.466235987361
0.8034068085074435	6149.057924211998
0.8036076602095705	6172.097501930196
0.8038085621246229	6197.613227588668
0.8040095142651542	6221.265823058625
0.8042105166437206	6244.777499071295
0.8044115692728815	6267.536107424601
0.8046126721651998	6285.224257916566
0.8048138253332411	6315.471111978812
0.8050150287895745	6342.333679260073
0.805216282546772	6368.027097311547
0.8054175866174087	6392.421109359303
0.8056189410140631	6417.49273781191
0.8058203457493168	6443.311231477472
0.8060218008357541	6468.561109408121
0.8062233062859632	6489.9773501859845
0.8064248621125346	6519.991644987108
0.806626468328063	6546.657690892558
0.8068281249451449	6570.098268009228
0.8070298319763813	6597.643655418166
0.8072315894343755	6620.649680445146
0.8074333973317341	6640.816508723555
0.8076352556810671	6675.084464983295
0.8078371644949874	6703.743432780436
0.8080391237861113	6730.1516948744575
0.8082411335670578	6755.718041190489
0.8084431938504498	6780.960785822768
0.8086453046489125	6808.7236230135
0.8088474659750746	6832.255210754274
0.8090496778415686	6855.880259702466
0.809251940261029	6879.109351946169
0.8094542532460944	6887.130429646911
0.8096566168094059	6912.784374995843
0.8098590309636085	6963.636846884532
0.8100614957213493	6992.198633709217
0.8102640110952797	7014.865858561341
0.8104665770980536	7048.643750942136
0.8106691937423283	7062.373455124203
0.8108718610407639	7004.1213821237225
0.8110745790060241	6988.969570304619
0.8112773476507757	7121.010520833623
0.8114801669876885	7142.524456788381
0.8116830370294355	7161.241725756481
0.8118859577886929	7233.116098739186
0.8120889292781401	7270.503505657099
0.8122919515104597	7300.415709729311
0.8124950244983374	7332.266538739362
0.8126981482544621	7359.196463203014
0.8129013227915257	7385.2918923109755
0.8131045481222237	7415.406366182174
0.8133078242592543	7436.250726172687
0.8135111512153191	7425.407246945995
0.813714529003123	7462.265189961521
0.8139179576353739	7522.575627886066
0.8141214371247829	7547.918210280662
0.8143249674840641	7543.085242070088
0.814528548725935	7476.790397080142
0.8147321808631167	7554.531919312488
0.8149358639083326	7647.434352642245
0.8151395978743097	7628.641608433991
0.8153433827737784	7693.970087179823
0.8155472186194719	7762.465718478915
0.8157511054241268	7795.473628281672
0.815955043200483	7824.381582388334
0.8161590319612831	7858.363581611395
0.8163630717192736	7886.186577033602
0.8165671624872033	7917.905032189502
0.8167713042778252	7952.461214737662
0.8169754971038948	7984.756412017619
0.8171797409781707	8014.2082324296825
0.8173840359134155	8043.779478977926
0.8175883819223938	8073.711378396962
0.8177927790178745	8104.600114948319
0.8179972272126291	8125.178256601599
0.8182017265194322	8085.034618043037
0.8184062769510622	7890.75316728388
0.8186108785203001	8154.429736196411
0.8188155312399301	8258.551958997517
0.8190202351227402	8281.381172686833
0.819224990181521	8326.266652899672
0.8194297964290664	8353.005872878715
0.8196346538781738	8367.219584929577
0.8198395625416434	8404.576085565366
0.8200445224322789	8435.954535635492
0.820249533562887	8484.694279560563
0.8204545959462778	8518.003741751645
0.8206597095952644	8552.156265829533
0.8208648745226633	8584.208874526343
0.8210700907412941	8613.310417815112
0.8212753582639793	8651.140787295137
0.8214806771035456	8684.015725987649
0.8216860472728215	8716.896014998132
0.8218914687846397	8755.307727181467
0.822096941651836	8788.750402991514
0.822302465887249	8821.349517235227
0.8225080415037209	8855.397668696243
0.8227136685140968	8849.233272052528
0.8229193469312254	8711.688796256412
0.8231250767679583	8765.648173989108
0.8233308580371503	8919.695521043577
0.8235366907516598	8939.439707706662
0.8237425749243477	8949.566322748124
0.8239485105680789	9049.386340983503
0.824154497695721	9125.409102521638
0.824360536320145	9164.852113877792
0.8245666264542252	9200.752698964634
0.8247727681108388	9234.023828003672
0.8249789613028664	9256.460284826682
0.8251852060431922	9299.373919721655
0.825391502344703	9342.665570725301
0.8255978502202894	9379.577279124958
0.8258042496828445	9415.282135154088
0.8260107007452654	9448.942765841588
0.8262172034204517	9470.131323772519
0.8264237577213068	9424.539160187509
0.8266303636607373	9334.131959141005
0.8268370212516525	9548.701945539557
0.8270437305069654	9633.442589751734
0.8272504914395923	9667.369901691585
0.8274573040624523	9703.574459551313
0.8276641683884679	9737.553536346371
0.8278710844305652	9771.300919167801
0.8280780522016729	9815.630555361302
0.8282850717147234	9854.458809748803
0.8284921429826521	9892.278965868403
0.8286992660183978	9923.30377605829
0.8289064408349024	9945.924891152928
0.8291136674451112	9979.771245229591
0.8293209458619727	10032.089090256888
0.8295282760984382	10076.146649357948
0.829735658167463	10104.250255106126
0.8299430920820048	10145.836672313095
0.8301505778550254	10192.052275811948
0.8303581154994891	10234.779917313619
0.8305657050283641	10272.843360491072
0.8307733464546212	10306.468942928255
0.8309810397912352	10324.4791797267
0.8311887850511829	10354.052852076518
0.8313965822474458	10295.26316716107
0.8316044313930077	10341.687530013116
0.8318123325008561	10486.05546259394
0.8320202855839813	10551.928059705779
0.8322282906553774	10592.35172012754
0.8324363477280413	10629.130714250601
0.8326444568149735	10665.408265573245
0.8328526179291771	10708.911328615151
0.8330608310836596	10748.94988942348
0.8332690962914304	10782.572801059581
0.8334774135655034	10824.141605931527
0.833685782918895	10869.413288850508
0.8338942043646247	10906.307851060745
0.834102677915716	10947.964109094482
0.834311203585195	10991.093724129094
0.8345197813860912	11032.199771037609
0.8347284113314379	11076.70487518512
0.8349370934342709	11117.628857847316
0.8351458277076294	11159.871969214906
0.8353546141645565	11203.18843612348
0.8355634528180977	11239.922236130802
0.8357723436813022	11279.614424795182
0.8359812867672226	11314.421954369902
0.8361902820889144	11355.450875881437
0.8363993296594368	11408.998339709851
0.8366084294918518	11441.69218160551
0.8368175815992247	11500.653307668505
0.8370267859946247	11538.75833118407
0.8372360426911234	11566.740966312296
0.8374453517017962	11622.565102602463
0.8376547130397217	11662.71518498155
0.8378641267179816	11714.310582935099
0.8380735927496613	11763.58189400806
0.8382831111478488	11790.848985216497
0.8384926819256358	11791.815360125756
0.8387023050961173	11842.935887607993
0.8389119806723914	11923.315687792758
0.8391217086675596	11978.724423730324
0.8393314890947265	12032.608226432716
0.8395413219670003	12078.269671588934
0.8397512072974922	12117.240591009297
0.8399611450993165	12147.874584702515
0.8401711353855914	12134.756350494614
0.8403811781694378	12207.491179043122
0.8405912734639802	12296.211977851466
0.8408014212823464	12347.4367601665
0.8410116216376671	12393.7574222865
0.8412218745430766	12437.377495489602
0.8414321800117124	12490.303841552852
0.8416425380567154	12537.76731653362
0.8418529486912297	12583.540349185187
0.8420634119284025	12630.332029838633
0.8422739277813847	12678.026022135307
0.8424844962633302	12724.44436175532
0.842695117387396	12764.390740513303
0.8429057911667428	12802.616269174741
0.8431165176145345	12855.766094507026
0.8433272967439382	12912.84498040469
0.8435381285681244	12962.089411640822
0.8437490131002665	13010.716257120019
0.8439599503535415	13051.509000898875
0.84417094034113	13068.632496267624
0.8443819830762154	13130.668110698547
0.8445930785719846	13142.814814039242
0.8448042268416277	13236.872551634324
0.8450154278983382	13302.739662051343
0.8452266817553128	13348.356685541969
0.8454379884257517	13395.819805618137
0.8456493479228583	13446.67424009032
0.845860760259839	13502.232347619874
0.846072225449904	13546.642401234836
0.8462837435062666	13548.023828507414
0.8464953144421433	13500.413853863472
0.8467069382707537	13584.863820049404
0.8469186150053215	13733.066207293263
0.847130344659073	13799.45584065161
0.8473421272452377	13848.82798952043
0.8475539627770492	13884.466859744402
0.8477658512677435	13948.708629769604
0.8479777927305605	13999.596729618224
0.8481897871787432	14039.791166498759
0.848401834625538	14104.331027526869
0.8486139350841944	14165.695846537683
0.8488260885679657	14204.439321667416
0.8490382950901076	14229.06566234266
0.8492505546638802	14300.548993508535
0.8494628673025462	14364.493984692182
0.8496752330193721	14426.290771463451
0.8498876518276269	14483.669500694925
0.8501001237405839	14534.85479535899
0.8503126487715191	14586.591161835573
0.850525226933712	14640.694059155154
0.8507378582404455	14696.96783610536
0.8509505427050057	14748.438856411845
0.8511632803406821	14803.932013583499
0.8513760711607672	14859.959587783265
0.8515889151785576	14914.269120239942
0.8518018124073523	14967.397642952703
0.8520147628604541	15016.121018789749
0.8522277665511693	15056.055743906405
0.8524408234928071	15132.30192673697
0.8526539336986805	15191.936742302118
0.8528670971821053	15245.540411540218
0.8530803139564007	15294.166472659215
0.8532935840348901	15341.131790791025
0.8535069074308987	15396.850498722491
0.8537202841577566	15457.759381292086
0.8539337142287962	15508.586279612913
0.8541471976573534	15536.009422341613
0.8543607344567677	15613.364633405576
0.8545743246403821	15690.681614148722
0.8547879682215422	15750.496611735927
0.8550016652135977	15805.67321336597
0.8552154156299011	15862.480198890602
0.8554292194838088	15921.899619693666
0.8556430767886797	15977.24742569684
0.855856987557877	16042.862345510532
0.8560709518047664	16103.557536159478
0.8562849695427177	16160.54878062216
0.8564990407851035	16218.828204097083
0.8567131655452999	16281.612558013534
0.8569273438366862	16343.288209483437
0.8571415756726455	16398.9596488971
0.8573558610665638	16446.76668160227
0.8575702000318304	16514.60781207464
0.8577845925818384	16576.333216547344
0.857999038729984	16642.760418041766
0.8582135384896665	16698.94790294433
0.858428091874289	16745.63638345923
0.8586426988972576	16805.55913019882
0.8588573595719821	16870.183953182863
0.8590720739118751	16932.620441158055
0.8592868419303532	16992.03530539431
0.8595016636408359	17055.860095489003
0.8597165390567462	17120.891705926973
0.8599314681915105	17180.61208492181
0.8601464510585584	17242.666637840106
0.860361487671323	17307.169417613193
0.8605765780432408	17372.887262356388
0.8607917221877518	17433.16402733669
0.8610069201182988	17497.308151880992
0.8612221718483286	17564.27447944857
0.8614374773912907	17628.77794027853
0.8616528367606385	17693.51856301633
0.8618682499698288	17748.19071476943
0.8620837170323213	17808.07600519184
0.8622992379615795	17874.628421028094
0.8625148127710699	17932.804311752592
0.8627304414742627	17998.207297792273
0.8629461240846313	18075.493653376874
0.8631618606156526	18137.183503685996
0.8633776510808066	18198.897473818808
0.8635934954935769	18266.369182000348
0.8638093938674504	18333.844360224262
0.8640253462159173	18382.25017541536
0.8642413525524714	18419.766914349962
0.8644574128906095	18521.61906741191
0.8646735272438323	18574.610664198783
0.8648896956256433	18618.694668534088
0.8651059180495498	18715.176915956476
0.8653221945290621	18802.585286217058
0.8655385250776946	18867.960393284913
0.8657549097089641	18939.556603161796
0.8659713484363913	19011.66284609769
0.8661878412735006	19084.185443279985
0.866404388233819	19151.183246810422
0.8666209893308775	19215.508717444405
0.8668376445782103	19290.941042132225
0.8670543539893549	19361.468149382392
0.8672711175778525	19419.346347477127
0.8674879353572469	19477.547766881682
0.8677048073410862	19553.04981479161
0.8679217335429217	19626.84929120214
0.8681387139763074	19697.51183294176
0.8683557486548015	19765.352917050688
0.8685728375919655	19842.517553059242
0.8687899808013633	19915.001408373264
0.8690071782965637	19990.280200318106
0.869224430091138	20062.96298301543
0.8694417361986609	20135.206486724313
0.8696590966327107	20204.351817897394
0.869876511406869	20263.812900105793
0.8700939805347206	20331.56006816918
0.8703115040298544	20418.402068508047
0.870529081905862	20497.7646686685
0.8707467141763385	20576.342503915483
0.8709644008548827	20647.9791567655
0.8711821419550964	20719.420274801963
0.8713999374905854	20793.83531677693
0.871617787474958	20872.11778691374
0.8718356919218269	20940.672375986433
0.8720536508448075	21011.366907147905
0.8722716642575187	21094.3020636457
0.8724897321735832	21172.31497792516
0.8727078546066265	21247.824574926006
0.8729260315702784	21325.893375008298
0.873144263078171	21404.325161087367
0.8733625491439405	21480.920110019706
0.8735808897812266	21558.197294580088
0.8737992850036719	21618.56221319534
0.874017734824923	21669.355491426108
0.8742362392586293	21777.767262466514
0.874454798318444	21854.990700583632
0.8746734120180236	21937.32508086439
0.8748920803710283	22016.37838204267
0.875110803391121	22094.13274518152
0.8753295810919689	22173.282583691194
0.875548413487242	22257.300649387627
0.8757673005906139	22338.428615621615
0.8759862424157616	22412.72259436855
0.8762052389763657	22487.606679726192
0.8764242902861098	22574.597677359492
0.8766433963586814	22650.410066649907
0.8768625572077712	22736.161434132046
0.8770817728470732	22814.341289334967
0.8773010432902849	22898.635517915183
0.8775203685511077	22984.247192255178
0.8777397486432454	23066.3827766396
0.8779591835804065	23148.10607250158
0.8781786733763015	23230.129675738557
0.8783982180446457	23310.638392791694
0.878617817599157	23388.558045791673
0.8788374720535569	23476.441174052077
0.8790571814215703	23559.734312798304
0.8792769457169257	23642.487376813344
0.879496764953355	23728.475932862908
0.8797166391445934	23813.202985446107
0.8799365683043796	23897.764954335962
0.8801565524464557	23982.644480829844
0.8803765915845676	24067.84429153713
0.8805966857324639	24153.34389470072
0.880816834903897	24231.988700780537
0.881037039112623	24303.733587171053
0.8812572983724012	24392.109956531287
0.8814776126969944	24475.342764379817
0.8816979821001687	24574.95670935278
0.8819184065956938	24666.210148722592
0.8821388861973429	24749.12850713849
0.8823594209188923	24836.69135728185
0.882580010774122	24926.387209618904
0.8828006557768155	25015.28242923674
0.8830213559407598	25104.434350485808
0.8832421112797452	25190.744598671467
0.8834629218075651	25249.76392150377
0.8836837875380171	25294.435385816338
0.8839047084849018	25411.974561595474
0.884125684662023	25542.506370140254
0.8843467160831886	25637.457121517946
0.8845678027622095	25729.82682958154
0.8847889447129001	25818.265123362173
0.8850101419490785	25905.2951242546
0.8852313944845657	25998.330188690474
0.885452702333187	26092.951963303145
0.8856740655087704	26177.54429056109
0.8858954840251476	26237.162016593127
0.8861169578961539	26330.480521176774
0.886338487135628	26450.924705783258
0.886560071757412	26551.840697098727
0.8867817117753515	26647.439190684498
0.8870034072032955	26738.7943770704
0.8872251580550963	26832.791709015513
0.8874469643446101	26920.45976092595
0.8876688260856963	27007.746281595286
0.8878907432922178	27108.90873881592
0.8881127159780409	27200.715017960032
0.8883347441570356	27276.175476736746
0.8885568278430749	27370.110775836692
0.8887789670500358	27482.751773671644
0.8890011617917983	27583.13667587481
0.8892234120822464	27685.208980518237
0.8894457179352669	27783.37468948756
0.8896680793647509	27873.534389316825
0.8898904963845921	27948.131593438393
0.8901129690086883	28048.454628927433
0.8903354972509405	28169.737719177385
0.8905580811252535	28265.912393219558
0.8907807206455347	28214.643684136212
0.8910034158256963	27875.239850083344
0.8912261666796527	28320.441602973173
0.8914489732213227	28622.05421230259
0.8916718354646282	28632.89953015924
0.8918947534234944	28667.915838153967
0.8921177271118502	28677.30790058456
0.8923407565436284	28378.041003433336
0.8925638417327644	28817.31087351713
0.8927869826931977	29218.163930977815
0.8930101794388711	29337.665083967073
0.8932334319837308	29151.852234312842
0.8934567403417267	28952.039999629982
0.8936801045268123	29537.328823424305
0.8939035245529441	29740.495282161075
0.8941270004340824	29789.55981912031
0.894350532184191	29668.492145331198
0.8945741198172371	29878.069389183078
0.8947977633471915	30166.44892950006
0.8950214627880284	30296.18429548198
0.8952452181537254	30384.086410589116
0.8954690294582639	30481.36710562875
0.8956928967156286	30598.706464595693
0.8959168199398075	30655.16965438108
0.8961407991447926	30715.71525510118
0.8963648343445789	30705.114178733176
0.896588925553165	30535.7971161218
0.8968130727845534	30863.475392575954
0.8970372760527496	30820.095335731923
0.8972615353717629	29208.049410379175
0.8974858507556059	28972.29431396154
0.8977102222182949	31163.804024684116
0.8979346497738496	31685.304720320397
0.8981591334362931	31793.273706676653
0.8983836732196523	31897.89996549032
0.8986082691379572	31956.64433221249
0.8988329212052417	30837.827371990315
0.8990576294355432	29168.69237195485
0.8992823938429022	30854.072989621938
0.8995072144413631	32150.566979267296
0.8997320912449734	32527.845444640647
0.8999570242677847	32664.6553098363
0.9001820135238516	32755.294585013933
0.9004070590272328	32527.102130304458
0.9006321607919896	31895.56518683106
0.9008573188321878	32369.40642588335
0.9010825331618959	32477.10747603026
0.9013078037951865	33185.88727538255
0.9015331307461353	33413.701809648395
0.9017585140288219	33544.381321960274
0.9019839536573292	33690.883886663854
0.9022094496457435	33815.993729460795
0.9024350020081551	33922.749916312474
0.9026606107586572	34032.10502802036
0.902886275911347	34135.39446741511
0.9031119974803249	34175.43690416968
0.9033377754796951	34321.80767047015
0.903563609923565	34500.81973278332
0.903789500826046	34586.11720478148
0.9040154482012526	34583.87798037261
0.904241452063303	34823.429024822086
0.9044675124263188	34910.26607516916
0.9046936293044254	34962.02313023765
0.9049198027117517	35131.70579791796
0.9051460326624297	35298.68472252846
0.9053723191705955	35458.19105737682
0.9055986622503881	35589.854698855204
0.9058250619159507	35714.818599435275
0.9060515181814298	35818.95147727999
0.9062780310609752	35814.42515313092
0.9065046005687405	35910.1428270052
0.906731226718883	36128.43291859658
0.9069579095255627	36272.69765175123
0.907184649002944	36365.00749151496
0.907411445165195	36535.41619304662
0.9076382980264862	36614.876730856035
0.907865207600993	36687.626691630634
0.9080921739028933	36866.73118256524
0.9083191969463691	36993.67603864893
0.9085462767456058	37009.7790001394
0.9087734133147922	36985.60394079299
0.9090006066681211	37338.56758668112
0.909227856819788	37529.15118380962
0.9094551637839932	37629.26498460233
0.9096825275749393	37784.92670400665
0.9099099482068329	37769.96664002646
0.9101374256938848	37888.17261660243
0.9103649600503083	37935.39338275476
0.9105925512903209	38237.98507798005
0.9108201994281437	38390.41636209618
0.9110479044780008	38511.093522306925
0.9112756664541204	38684.22926624608
0.911503485370734	38831.22510538978
0.9117313612420768	38955.965835731266
0.9119592940823873	39101.421082609595
0.912187283905908	39253.09188503882
0.9124153307268845	39385.38231570025
0.9126434345595664	39516.78147889617
0.9128715954182063	39643.307809926526
0.9130998133170609	39762.56991781886
0.9133280882703902	39824.417199177966
0.913556420292458	39971.79178847627
0.9137848093975312	40133.41618790384
0.9140132555998806	40315.67485291784
0.9142417589137806	40403.19995250659
