#wavelength	surface flux
0.6450077295303345	20.24674401882224
0.6472567915916443	21.882021925495856
0.6494921445846558	23.63157192913736
0.6517150402069092	25.486348291521942
0.6539263725280762	27.465832168275732
0.6561272740364075	29.57000157761392
0.6583186388015747	31.81197868367847
0.6605015397071838	34.19237408332124
0.6626768708229065	36.72381710330659
0.6648455858230591	39.41617665965213
0.6670085787773132	42.27492333787127
0.6691668033599854	45.31251494674264
0.6713210344314575	48.53519890771292
0.6734722256660461	51.95779611937705
0.6756211519241333	55.59182656731391
0.6777685880661011	59.44998436271323
0.6799154281616211	63.53905533574708
0.6820623278617859	67.88115316341603
0.6842101216316223	72.4900196307225
0.6863595843315125	77.37725395373629
0.688511312007904	82.56532558565107
0.6906660795211792	88.0533703303778
0.6928245425224304	93.77643316918024
0.6949873566627502	100.0367311207667
0.6971551775932312	106.65355809023161
0.6993286609649658	113.57622192549245
0.7015084028244019	120.98940402390528
0.7036949396133423	128.81944811205747
0.7058889269828796	137.16628898124273
0.7080909013748169	145.96543804890013
0.710301399230957	155.3107250314489
0.712520956993103	165.24270149261704
0.7147500514984131	175.7342977509112
0.7169892191886902	185.8503242487972
0.7192389369010925	198.39831307990767
0.7214996814727783	211.20270292077907
0.723771870136261	224.41169943785602
0.7260559797286987	238.54236865512644
0.7283523678779602	253.7060268690148
0.7306615710258484	269.1508032734049
0.7329838871955872	286.6441114253613
0.7353196740150452	304.3651602971394
0.7376693487167358	323.7229416445683
0.7400332689285278	344.1159069998455
0.7424117922782898	365.61113964268503
0.7448052167892456	388.49886143627015
0.7472138404846191	412.8335242019891
0.7496379613876343	438.6561784471881
0.7520779371261597	465.9666284510825
0.7545340061187744	495.0024741209832
0.7570064663887024	525.7919482366162
0.7594954967498779	558.4350268050961
0.7620013952255249	593.0757476218578
0.7645244002342224	629.592947544537
0.7670646905899048	668.5281209433873
0.7696225643157959	710.0552271946291
0.7721980810165405	754.1269188095653
0.7747915983200073	800.7519742897223
0.7774031162261963	850.3049302410121
0.7800329327583313	902.7791423219368
0.7826811671257019	958.4479703444665
0.7853479981422424	1017.4607317586783
0.7880334854125977	1080.0055278245047
0.7907378077507019	1146.4435985052844
0.7934610247612	1217.1104317544314
0.7962033748626709	1291.6436003591668
0.7989648580551147	1370.765433032111
0.801745593547821	1454.8507906372247
0.8045456409454346	1544.128272293278
0.8073651194572449	1638.1188706635312
0.8102040886878967	1734.1849740009645
0.8130625486373901	1834.8123972706474
0.8159406185150146	1949.8177375604555
0.8188382983207703	2068.1839466616575
0.8217556476593018	2196.8028039385254
0.8246926665306091	2329.5100090267406
0.8276493549346924	2471.800943163448
0.8306257724761963	2620.741945863195
0.8336219191551208	2781.4827563908816
0.8366377949714661	2946.6899008599967
0.8396733403205872	3127.014731125826
0.8427285552024841	3318.554841699357
0.8458034992218018	3516.5556420570338
0.8488980531692505	3728.1071371496855
0.8520121574401855	3951.8790707409494
0.8551458716392517	4188.1051846950695
0.8582990765571594	4437.495922443366
0.8614717125892639	4683.759760099112
0.8646637797355652	4957.454361772042
0.8678751587867737	5263.449388389958
0.8711057901382446	5571.970675768351
0.8743556141853333	5900.842732054668
0.87762451171875	6247.868487801182
0.8809124231338501	6613.337285252926
0.8842192888259888	6999.454223338125
0.8875449895858765	7404.360471777449
0.8908893465995789	7814.123793637345
0.894252359867096	8244.472317924376
0.8976338505744934	8634.435337287672
0.9010337591171265	9204.222058074169
0.9044519662857056	9774.825112008693
0.9078882932662964	10302.434475546068
0.9113426208496094	10869.3108571896
0.914814829826355	11490.728413697465
0.9183048605918884	12108.222179569522
0.9218124747276306	12814.039166231458
0.925337553024292	13437.916012121497
0.9288799166679382	13637.492379741261
0.9324395060539246	13604.24501843232
0.9360161423683167	15000.219303596232
0.9396095871925354	16497.654899146833
0.943219780921936	17254.16322265269
0.9468464851379395	17683.583041496182
0.9504896402359009	18615.50113412081
0.9541489481925964	19902.201345024518
0.9578243494033813	21117.29570379152
0.9615156054496765	22223.90050807107
0.9652225375175476	23609.582386401282
0.9689450263977051	25229.62727976347
0.9726828336715698	26243.64273606166
0.9764357805252075	27934.1690625125
0.9802037477493286	29333.537708220887
0.983986496925354	31047.092256138767
0.9877838492393494	32737.616233764147
0.9915955662727356	34457.39562281539
0.9954215884208679	36250.81881562599
0.9992615580558777	38080.23289615379
1.0031154155731201	39945.287197336685
1.0069829225540161	41908.70073505065
1.0108637809753418	43955.81085633939
1.0147579908370972	46079.92683156572
1.018665075302124	48297.61780439103
1.022585153579712	50602.89355265024
1.0265177488327026	52998.57426580188
1.0304628610610962	55495.12919241594
1.0344202518463135	58092.92703961978
1.0383895635604858	60789.38491053311
1.0423706769943237	63593.783274476504
1.0463634729385376	66504.15110144521
1.0503677129745483	69527.61931559491
1.0543830394744873	72674.41584576645
1.058409333229065	75924.46423416895
1.0624464750289917	79429.86929957036
1.0664942264556885	82984.14774665218
1.0705522298812866	86647.20139477885
1.0746204853057861	90451.18300610945
1.0786986351013184	94305.41847771089
1.0827864408493042	98422.70449584206
1.086883783340454	102478.17111015755
1.0909905433654785	106687.77403421293
1.0951062440872192	110839.51605026083
1.0992310047149658	114447.80423301237
1.10336434841156	117195.50913045788
1.1075061559677124	120015.14886211461
1.1116561889648438	119300.66558822451
1.115814208984375	110394.88530135958
1.1199802160263062	124094.52427669505
1.124153733253479	115796.65495092775
1.1283347606658936	140629.3014803834
1.1325229406356812	141971.6309634223
1.1367181539535522	152132.8374241284
1.1409201622009277	167082.03540101423
1.145128846168518	162501.12009980253
1.1493438482284546	162291.2594357675
1.1535650491714478	176977.02729012806
1.1577922105789185	190101.83649598027
1.1620250940322876	195484.41171426175
1.1662636995315552	205563.8138481879
1.170507550239563	213946.0033693094
1.174756646156311	223077.88023099696
1.1790107488632202	235236.8933857633
1.1832695007324219	245272.06574524406
1.1875330209732056	254780.3690416512
1.191800832748413	264939.80952205
1.1960728168487549	274458.58941390616
1.2003488540649414	283980.8186567975
1.2046287059783936	294280.35870421433
1.2089121341705322	304133.46166335535
1.2131990194320679	314313.2058795765
1.2174891233444214	325911.4490922811
1.2217823266983032	336863.81290215586
1.2260783910751343	348363.3782447644
1.230377197265625	359812.9938340275
1.2346785068511963	371984.60764183867
1.238982081413269	384207.5127049344
1.2432878017425537	396539.5307267919
1.2475954294204712	409067.51964884606
1.2519049644470215	422171.8845511643
1.256216049194336	435416.9693995383
1.2605286836624146	448898.3649067716
1.2648425102233887	462774.61778157554
1.2691574096679688	476908.12032099394
1.2734732627868652	490676.9145255858
1.2777899503707886	505553.1302627113
1.2821072340011597	519483.2209803651
1.2864248752593994	533794.4588761523
1.2907428741455078	548664.9351629945
1.2950609922409058	558962.2986557273
1.2993791103363037	576947.1767676885
1.303696870803833	593179.9644977266
1.3080145120620728	611497.6579864845
1.3123314380645752	627617.3452322294
1.3166478872299194	642769.3176908148
1.3209635019302368	658988.471475147
1.3252781629562378	676008.4522382237
1.3295916318893433	677689.2532223236
1.3339040279388428	675558.7335852305
1.3382149934768677	533421.7280638039
1.3425244092941284	462446.2437263469
1.3468321561813354	356219.23016059893
1.3511382341384888	387164.9151229546
1.3554422855377197	284835.1175907388
1.3597444295883179	247374.49430754484
1.3640443086624146	413790.89810844755
1.3683418035507202	414457.8627449944
1.3726370334625244	518269.13162982085
1.3769296407699585	572501.8657676557
1.381219506263733	454726.03351383423
1.3855066299438477	356327.9671283142
1.3897908926010132	490990.4027538607
1.3940720558166504	429014.88872632495
1.3983501195907593	512777.3592481855
1.4026249647140503	594606.8866664814
1.4068963527679443	583691.25629089
1.4111642837524414	580896.3284975389
1.4154287576675415	597526.0002802787
1.419689416885376	499362.71202265756
1.4239463806152344	506981.6008795007
1.4281994104385376	737293.5118136624
1.4324485063552856	628661.529011289
1.436693549156189	831350.8251692195
1.440934419631958	796491.7852631635
1.4451709985733032	857011.51150783
1.449403166770935	972707.4889067594
1.453631043434143	1064759.779694432
1.4578542709350586	1188222.7137415893
1.4620729684829712	1173139.0146348695
1.4662868976593018	1287517.760117319
1.4704961776733398	1252838.052143484
1.4747005701065063	1322528.0209263759
1.4788999557495117	1368449.8589787765
1.4830944538116455	1383917.3165007643
1.4872838258743286	1448803.9629503
1.491468071937561	1494062.9389676442
1.4956470727920532	1532356.710839822
1.4998208284378052	1605382.7255535668
1.5039892196655273	1643295.2425528755
1.5081522464752197	1692611.6270613207
1.5123097896575928	1746858.2874344245
1.5164618492126465	1801906.2165884154
1.5206083059310913	1845177.9068549115
1.5247491598129272	1894841.9453747983
1.5288842916488647	1922981.7083015495
1.5330137014389038	1991845.2520469695
1.5371372699737549	2025333.8217953779
1.541254997253418	2066668.9904397302
1.545366883277893	2106115.4234702946
1.5494728088378906	2147720.5212297025
1.5535727739334106	2197411.6387540367
1.5576666593551636	2235726.7761681597
1.561754584312439	2260029.933206742
1.5658363103866577	2315542.9992699157
1.5699119567871094	2356046.21636636
1.5739814043045044	2398469.0453756163
1.5780447721481323	2441843.9462532518
1.582101821899414	2479516.6752178795
1.5861525535583496	2513342.5206173244
1.5901970863342285	2557862.5674650287
1.5942351818084717	2600506.059513046
1.5982669591903687	2642212.2285032626
1.6022924184799194	2683285.938665867
1.606311559677124	2723166.012511366
1.6103241443634033	2766988.726778707
1.6143304109573364	2807850.1627275874
1.6183301210403442	2839167.0031183967
1.6223233938217163	2826105.637125367
1.6263102293014526	2784287.1177361817
1.6302905082702637	2678328.3576536584
1.634264349937439	2840895.801889061
1.638231635093689	2993377.8565351907
1.6421923637390137	3040503.244391665
1.646146535873413	3051336.887621058
1.6500942707061768	3098088.4847664493
1.6540353298187256	3129029.1729240897
1.6579699516296387	3159639.480914123
1.661897897720337	3248976.1733479537
1.6658192873001099	2914452.9051291384
1.6697341203689575	3021089.9884543987
1.6736423969268799	3397323.0933194887
1.677544116973877	3416138.016548074
1.6814392805099487	3411875.3569356403
1.6853278875350952	3393546.951465711
1.6892099380493164	3536473.0107575567
1.6930854320526123	3316797.18383389
1.696954369544983	3473308.720918252
1.7008168697357178	3278653.15620567
1.7046726942062378	3352741.9884602083
1.708522081375122	3510310.321619331
1.712364912033081	3767679.950640552
1.7162011861801147	3847310.8624322275
1.7200311422348022	3823027.2524120975
1.723854422569275	3613546.981006243
1.7276713848114014	3645580.931151535
1.731481909751892	3635809.044978233
1.7352858781814575	3537534.8692577607
1.7390835285186768	3773718.3706067256
1.7428747415542603	3783945.0720069516
1.7466596364974976	3971330.320008673
1.7504380941390991	4067160.8476497633
1.7542102336883545	3734031.8022996327
1.7579760551452637	3730260.8246477633
1.7617355585098267	3711339.433602393
1.7654887437820435	3568999.005151456
1.7692357301712036	3413261.097063313
1.7729763984680176	3423105.1686712983
1.776710867881775	2849749.7551455107
1.7804391384124756	3071248.256179091
1.7841613292694092	2542457.185198794
1.7878772020339966	2709315.243559395
1.7915871143341064	2406058.762956534
1.7952908277511597	2410864.0292477943
1.7989884614944458	2556755.998792142
1.8026801347732544	1781554.288685548
1.806365728378296	1962796.985973118
1.8100452423095703	1862103.6260406382
1.8137187957763672	2410686.148607898
1.817386507987976	2354961.8096563043
1.8210482597351074	2124199.1931191855
1.8247040510177612	2988897.89634606
1.828354001045227	2200770.1329625086
1.8319982290267944	2230664.389772849
1.8356364965438843	2133399.924378215
1.8392690420150757	2085107.047996198
1.8428958654403687	2490467.1862048083
1.8465168476104736	2624089.0195348226
1.8501322269439697	2595225.35197465
1.8537418842315674	2781993.1704632347
1.8573459386825562	2211433.5791985285
1.860944390296936	1631408.3662884892
1.864537239074707	1719971.020915544
1.8681244850158691	1595094.7257554943
1.871706247329712	1639249.9232300026
1.8752825260162354	2220989.387508424
1.8788533210754395	3253783.3786964915
1.8824186325073242	3362435.8894698587
1.8859784603118896	2933663.4404106163
1.8895330429077148	3024574.0136121097
1.8930821418762207	3377280.740859041
1.8966259956359863	3445121.191894602
1.9001644849777222	2615142.158788439
1.9036977291107178	2784436.1926924754
1.9072256088256836	3385921.992036121
1.9107483625411987	3365343.3657623217
1.9142658710479736	2595147.492504718
1.9177782535552979	3523009.613321752
1.9212853908538818	2765163.6173838526
1.9247875213623047	2835114.0814663297
1.9282845258712769	2843554.837542156
1.9317764043807983	2641806.1769755995
1.9352631568908691	2884356.284016842
1.9387450218200684	1790639.6483250994
1.942221760749817	2532112.732958539
1.9456936120986938	2690041.0133911576
1.9491604566574097	2862396.4231641875
1.952622413635254	3464831.0090156314
1.956079363822937	2604535.072677493
1.959531545639038	2727130.676275975
1.962978720664978	2961267.136371826
1.966421127319336	3983836.974167792
1.9698586463928223	3959803.2601996064
1.9732913970947266	3961729.510396538
1.9767193794250488	4130528.131218882
1.9801424741744995	4224672.8657958545
1.9835609197616577	4920643.106606663
1.9869745969772339	4931201.0430021705
1.990383505821228	4281459.108504674
1.9937876462936401	5211931.715893916
1.9971871376037598	5211519.297984229
2.000581979751587	4934753.714131979
2.003972291946411	5540112.518152731
2.007357597351074	5878727.1865035845
2.0107386112213135	6003115.684073746
2.0141148567199707	6311531.482114356
2.017486572265625	5822685.254442268
2.0208535194396973	6171721.581419329
2.0242159366607666	6478513.480708936
2.027573823928833	6260499.86870106
2.0309269428253174	6095486.33078934
2.034275770187378	6490358.027650117
2.0376198291778564	6626112.734428973
2.040959596633911	6663062.34307462
2.044294595718384	6640841.025447243
2.0476250648498535	6309227.31268019
2.0509510040283203	6248771.922945044
2.054272413253784	6590089.904449211
2.057589530944824	6623352.707503151
2.0609018802642822	6479117.064666628
2.0642096996307373	6570364.222245132
2.0675129890441895	6665008.585109172
2.0708119869232178	6766916.568614162
2.074106216430664	6854809.702659511
2.0773961544036865	6893260.373136405
2.080681324005127	6920370.318759085
2.0839622020721436	6898297.429578657
2.087238311767578	6875901.606103284
2.090510129928589	6912748.553441232
2.0937774181365967	6937961.1949902745
2.0970399379730225	6958733.779243148
2.1002981662750244	6953734.117547693
2.1035518646240234	6996727.071331541
2.1068007946014404	6990755.40890425
2.1100454330444336	6853526.828264869
2.1132853031158447	6718645.289536327
2.116520881652832	6834382.5320271505
2.1197516918182373	6995860.847861708
2.1229779720306396	7064146.976904004
2.12619948387146	7074734.944225377
2.1294167041778564	7079433.971305965
2.132629156112671	7094324.016149106
2.1358368396759033	7116737.06596064
2.139039993286133	7125154.307186959
2.1422386169433594	7120229.733338929
2.145432472229004	7119304.808629827
2.1486217975616455	7077467.47599554
2.151806354522705	6965007.286754307
2.1549863815307617	6742963.442809887
2.1581614017486572	6939910.544690596
2.16133189201355	7058525.7247320395
2.1644976139068604	7122991.769144994
2.167658567428589	7166185.92165476
2.1708147525787354	7140658.9026528
2.173966407775879	7078027.499454914
2.1771130561828613	7135848.401930788
2.1802549362182617	7188229.305122385
2.183391809463501	7194783.96696026
2.1865241527557373	7183235.368439947
2.1896514892578125	7172970.854053192
2.1927738189697266	7172555.387906355
2.1958916187286377	7045642.958883912
2.1990041732788086	6662099.151669116
2.2021119594573975	6629699.145458341
2.2052149772644043	6906448.929281564
2.208312749862671	7122373.062828256
2.2114057540893555	7157541.823186823
2.214493751525879	6978366.895721368
2.217576742172241	6796133.900778571
2.2206547260284424	6864762.288475612
2.2237277030944824	6679019.518622543
2.2267956733703613	6289473.799612352
2.2298583984375	6200396.006239156
2.2329163551330566	6418486.281421613
2.235969066619873	6660412.291181999
2.2390167713165283	6136679.153871394
2.2420592308044434	5676644.574360796
2.2450966835021973	5835986.11851007
2.248128890991211	5843685.1327258255
2.2511560916900635	6002467.368358538
2.254178285598755	5779955.191591138
2.257194995880127	5820755.032872951
2.260206699371338	5971672.337843262
2.2632133960723877	5624819.345427775
2.266214609146118	5846862.221285239
2.2692108154296875	6261215.159794179
2.2722020149230957	6374735.805774984
2.2751877307891846	6099633.158668628
2.278168201446533	6103748.939946892
2.2811436653137207	6610207.60801383
2.284113883972168	6020438.381510446
2.287078857421875	5187246.410356772
2.290038824081421	5554034.810625073
2.2929933071136475	5435211.770611321
2.295942783355713	5195291.355634811
2.298887014389038	5289896.423228245
2.301826238632202	5716088.3945733765
2.304760217666626	6267133.737711896
2.3076889514923096	6635317.351963927
2.310612440109253	6737664.218099483
2.3135311603546143	6291589.575465618
2.3164443969726562	5269472.652348916
2.319352865219116	5307411.976486799
2.322256088256836	5453484.181802571
2.3251543045043945	5201559.484902415
2.328047275543213	5315710.167022928
2.330935478210449	5418089.670642859
2.3338186740875244	5282749.135290534
2.3366971015930176	5126277.018133746
2.3395702838897705	5279192.563471833
2.3424389362335205	5251958.760594023
2.3453025817871094	4894652.126303632
2.348161458969116	4590152.916159041
2.351015567779541	4856197.418311324
2.353865146636963	5224760.279512464
2.3567099571228027	5207962.61085976
2.3595502376556396	5370145.919000711
2.3623859882354736	5959866.563621491
2.3652172088623047	6378994.1321715275
2.368043899536133	5317130.449181713
2.370866537094116	4053488.6342005343
2.3736846446990967	3976549.3030872424
2.3764986991882324	4382570.575874023
2.3793084621429443	5123953.736653325
2.3821144104003906	5554146.742597648
2.384916305541992	5402069.066072246
2.387714147567749	5446893.246262644
2.3905084133148193	6227153.2900207
2.393299102783203	6553974.363764614
2.3960859775543213	5903947.912296688
2.398869514465332	4977845.174896642
2.4016497135162354	4657202.01627343
2.4044265747070312	5027707.06292274
2.407200336456299	5690586.347745812
2.409970998764038	5884969.267990573
2.4127390384674072	5587778.083453475
2.415503978729248	4937731.552270568
2.418266534805298	4702307.899495796
2.4210267066955566	5048110.988138766
2.4237842559814453	5275000.052846333
2.426539897918701	5038379.510281108
2.429293394088745	5179555.066020658
2.4320452213287354	5679057.3083757
2.4347951412200928	5529811.467143319
2.4375438690185547	5446496.544771292
2.440291166305542	5875445.206070343
2.443037271499634	5997711.762236831
2.445782423019409	6127186.5765606975
2.4485268592834473	5810211.832674093
2.451270818710327	4894889.704889818
2.454014539718628	4983780.0122706285
2.4567582607269287	5563734.408801332
2.4595019817352295	5830511.597812319
2.4622461795806885	6021293.884610884
2.4649908542633057	5701383.758436399
2.4677364826202393	4586927.999448038
2.4704833030700684	4017841.087894744
2.473231554031372	4091235.384024216
2.4759814739227295	4322020.00722992
2.4787333011627197	4260328.487421175
2.481487512588501	3906491.4799949042
2.4842441082000732	4058534.9216733496
2.4870035648345947	4126224.697691363
