#wavelength	surface flux
0.8	9862.945017202637
0.8002000000000001	9908.549179263584
0.8004000500000003	9943.723344896896
0.8006001500125003	9981.649858688736
0.8008003000500035	10020.830825248264
0.8010005001250161	10061.246203817758
0.8012007502500472	10106.306373237428
0.8014010504376099	10149.579525631765
0.8016014007002193	10185.80059854424
0.8018018010503944	10220.274845649707
0.8020022515006572	10261.342006677005
0.8022027520635323	10310.109180277583
0.8024033027515483	10350.502284962611
0.8026039035772362	10378.907043840689
0.8028045545531306	10419.79365168392
0.8030052556917691	10449.800401777165
0.803206007005692	10512.959043760377
0.8034068085074435	10561.085294167486
0.8036076602095705	10600.656892427049
0.8038085621246229	10644.463927775738
0.8040095142651542	10684.636991903264
0.8042105166437206	10723.345517164997
0.8044115692728815	10761.243700516216
0.8046126721651998	10790.773442989735
0.8048138253332411	10850.118842551865
0.8050150287895745	10898.027296109942
0.805216282546772	10941.71334703785
0.8054175866174087	10982.486070179611
0.8056189410140631	11026.29482022604
0.8058203457493168	11069.259744246501
0.8060218008357541	11110.756149951396
0.8062233062859632	11144.411602692624
0.8064248621125346	11199.587085285835
0.806626468328063	11245.213979614282
0.8068281249451449	11281.843112029332
0.8070298319763813	11328.439368431144
0.8072315894343755	11370.054301202283
0.8074333973317341	11401.907510495512
0.8076352556810671	11465.125433075795
0.8078371644949874	11514.765594981533
0.8080391237861113	11560.658437142165
0.8082411335670578	11603.363422700422
0.8084431938504498	11646.294187041793
0.8086453046489125	11693.222246497997
0.8088474659750746	11732.210384205264
0.8090496778415686	11772.940979843273
0.809251940261029	11811.036646477045
0.8094542532460944	11815.143412649253
0.8096566168094059	11854.910129029677
0.8098590309636085	11954.922131357274
0.8100614957213493	12005.959059060406
0.8102640110952797	12041.885502332614
0.8104665770980536	12101.207217972156
0.8106691937423283	12120.750431951756
0.8108718610407639	11993.409457672564
0.8110745790060241	11950.928774554595
0.8112773476507757	12201.85446806735
0.8114801669876885	12209.424634767798
0.8116830370294355	12229.084432033684
0.8118859577886929	12406.662903192006
0.8120889292781401	12483.4024345883
0.8122919515104597	12535.784758799584
0.8124950244983374	12592.567755017279
0.8126981482544621	12638.305846673338
0.8129013227915257	12681.498494090585
0.8131045481222237	12725.033185576503
0.8133078242592543	12741.047060185318
0.8135111512153191	12676.975157100704
0.813714529003123	12755.536265458106
0.8139179576353739	12900.409584696496
0.8141214371247829	12919.096926178836
0.8143249674840641	12868.685534664437
0.814528548725935	12721.916355867204
0.8147321808631167	12911.082938748888
0.8149358639083326	13118.181999566497
0.8151395978743097	13076.347307466081
0.8153433827737784	13197.51695906139
0.8155472186194719	13318.93649330081
0.8157511054241268	13379.889873297056
0.815955043200483	13417.901055435435
0.8161590319612831	13483.120446042682
0.8163630717192736	13517.746116206868
0.8165671624872033	13585.099286133904
0.8167713042778252	13657.432221000021
0.8169754971038948	13704.715051395626
0.8171797409781707	13728.859729738246
0.8173840359134155	13805.491831255418
0.8175883819223938	13865.186403250029
0.8177927790178745	13915.296296011971
0.8179972272126291	13928.781254608848
0.8182017265194322	13866.14076936709
0.8184062769510622	13504.866247648224
0.8186108785203001	13993.328722630025
0.8188155312399301	14185.746284899391
0.8190202351227402	14223.894626748022
0.819224990181521	14301.076950495633
0.8194297964290664	14346.780528550044
0.8196346538781738	14364.674121824713
0.8198395625416434	14409.721281694885
0.8200445224322789	14437.611944449338
0.820249533562887	14563.315990778014
0.8204545959462778	14628.994144729919
0.8206597095952644	14685.595192960787
0.8208648745226633	14741.384532943632
0.8210700907412941	14793.112385094584
0.8212753582639793	14858.445664957053
0.8214806771035456	14915.13627914452
0.8216860472728215	14972.49263784318
0.8218914687846397	15038.049292201886
0.822096941651836	15095.636138642203
0.822302465887249	15148.550311267825
0.8225080415037209	15203.007865659345
0.8227136685140968	15159.333554410518
0.8229193469312254	14778.659952485325
0.8231250767679583	14855.078100129469
0.8233308580371503	15197.890301454281
0.8235366907516598	15248.318146088264
0.8237425749243477	15291.157090514525
0.8239485105680789	15515.981432622724
0.824154497695721	15662.703432369717
0.824360536320145	15734.475855211427
0.8245666264542252	15799.945931999033
0.8247727681108388	15860.095106526944
0.8249789613028664	15886.591859492213
0.8251852060431922	15970.992517942661
0.825391502344703	16052.672654694481
0.8255978502202894	16116.957133798953
0.8258042496828445	16177.558999005552
0.8260107007452654	16227.333443713413
0.8262172034204517	16247.103910811682
0.8264237577213068	16160.620905909982
0.8266303636607373	15978.155944358925
0.8268370212516525	16393.53073535992
0.8270437305069654	16550.62299887891
0.8272504914395923	16607.565624578743
0.8274573040624523	16665.718887207462
0.8276641683884679	16723.545837879206
0.8278710844305652	16779.49911323307
0.8280780522016729	16854.071795554777
0.8282850717147234	16912.973847323177
0.8284921429826521	16981.402318885586
0.8286992660183978	17029.31397897975
0.8289064408349024	17019.92925981644
0.8291136674451112	17083.113104193675
0.8293209458619727	17216.174945716855
0.8295282760984382	17294.322702791065
0.829735658167463	17321.31975294854
0.8299430920820048	17389.049855300345
0.8301505778550254	17491.440880227095
0.8303581154994891	17576.490286528573
0.8305657050283641	17640.809795845566
0.8307733464546212	17695.76368967191
0.8309810397912352	17720.621584339657
0.8311887850511829	17761.387546490947
0.8313965822474458	17605.271001276888
0.8316044313930077	17715.338837504034
0.8318123325008561	17991.516365533993
0.8320202855839813	18115.774945523353
0.8322282906553774	18185.84739217713
0.8324363477280413	18236.49022799466
0.8326444568149735	18313.724263306347
0.8328526179291771	18389.023778783645
0.8330608310836596	18433.562759327142
0.8332690962914304	18471.37831457149
0.8334774135655034	18570.20099941686
0.833685782918895	18654.08896856807
0.8338942043646247	18719.31399336188
0.834102677915716	18795.025479603308
0.834311203585195	18866.049317120327
0.8345197813860912	18934.67524131943
0.8347284113314379	19016.207480943645
0.8349370934342709	19090.32303226047
0.8351458277076294	19165.180993627786
0.8353546141645565	19232.394551327943
0.8355634528180977	19271.620114520465
0.8357723436813022	19353.640764001302
0.8359812867672226	19423.02422590997
0.8361902820889144	19490.007114906504
0.8363993296594368	19566.535989252206
0.8366084294918518	19632.9627425915
0.8368175815992247	19745.92348073005
0.8370267859946247	19812.45441319101
0.8372360426911234	19858.06144336396
0.8374453517017962	19940.970044828446
0.8376547130397217	19990.72812209181
0.8378641267179816	20105.596863019582
0.8380735927496613	20199.451525388515
0.8382831111478488	20238.241305145468
0.8384926819256358	20219.853087468353
0.8387023050961173	20304.288104469302
0.8389119806723914	20457.452986559623
0.8391217086675596	20566.221818743656
0.8393314890947265	20659.9448181185
0.8395413219670003	20727.6223402987
0.8397512072974922	20798.024356840262
0.8399611450993165	20840.254396350276
0.8401711353855914	20786.710831971704
0.8403811781694378	20940.65737127844
0.8405912734639802	21098.518411487894
0.8408014212823464	21166.126381696056
0.8410116216376671	21266.88055168107
0.8412218745430766	21351.787404412695
0.8414321800117124	21444.043862381055
0.8416425380567154	21521.04359272507
0.8418529486912297	21595.97786224513
0.8420634119284025	21672.56865718805
0.8422739277813847	21762.861063834534
0.8424844962633302	21844.86158949997
0.842695117387396	21905.694944242117
0.8429057911667428	21963.739002008217
0.8431165176145345	22060.832364192553
0.8433272967439382	22167.022354758847
0.8435381285681244	22250.99699850051
0.8437490131002665	22334.473975773813
0.8439599503535415	22404.270666543096
0.84417094034113	22429.080621911773
0.8443819830762154	22534.136730830287
0.8445930785719846	22538.501857174713
0.8448042268416277	22717.22084282058
0.8450154278983382	22832.715423945112
0.8452266817553128	22910.216409826593
0.8454379884257517	22980.97499038424
0.8456493479228583	23052.27241949271
0.845860760259839	23174.531602148127
0.846072225449904	23257.094744654925
0.8462837435062666	23242.270492947737
0.8464953144421433	23117.259988298258
0.8467069382707537	23267.94137384469
0.8469186150053215	23562.55177555418
0.847130344659073	23684.358553169517
0.8473421272452377	23767.83504976299
0.8475539627770492	23824.14325465153
0.8477658512677435	23937.764887863497
0.8479777927305605	24026.85098012601
0.8481897871787432	24092.440198345445
0.848401834625538	24203.023397760986
0.8486139350841944	24310.00573396093
0.8488260885679657	24355.254745617785
0.8490382950901076	24366.765412731045
0.8492505546638802	24525.188713594285
0.8494628673025462	24647.821313886387
0.8496752330193721	24754.528701563937
0.8498876518276269	24852.568363873193
0.8501001237405839	24937.94597519074
0.8503126487715191	25024.803537194482
0.850525226933712	25119.432840169222
0.8507378582404455	25215.68660555188
0.8509505427050057	25305.624479031445
0.8511632803406821	25401.55930992783
0.8513760711607672	25494.25689585118
0.8515889151785576	25586.032644418334
0.8518018124073523	25677.081656017537
0.8520147628604541	25756.034600887848
0.8522277665511693	25816.318093066828
0.8524408234928071	25960.229470945636
0.8526539336986805	26063.054478413524
0.8528670971821053	26155.307217107256
0.8530803139564007	26245.22351758402
0.8532935840348901	26332.442727424183
0.8535069074308987	26429.122281768075
0.8537202841577566	26532.795810107826
0.8539337142287962	26614.68379595044
0.8541471976573534	26648.53518058069
0.8543607344567677	26788.750211777173
0.8545743246403821	26925.01822520903
0.8547879682215422	27025.869300023594
0.8550016652135977	27116.259579173202
0.8552154156299011	27213.798402602788
0.8554292194838088	27315.26725171385
0.8556430767886797	27403.365642558078
0.855856987557877	27520.63260346708
0.8560709518047664	27626.24304369772
0.8562849695427177	27724.01242425564
0.8564990407851035	27823.452267683286
0.8567131655452999	27928.202536859335
0.8569273438366862	28032.14719614375
0.8571415756726455	28129.154035383137
0.8573558610665638	28206.66412131885
0.8575702000318304	28323.489315808605
0.8577845925818384	28429.6653593087
0.857999038729984	28540.368066600062
0.8582135384896665	28644.20122481557
0.858428091874289	28736.190037125547
0.8586426988972576	28836.230603983557
0.8588573595719821	28944.290797840105
0.8590720739118751	29051.808487640665
0.8592868419303532	29150.593391590843
0.8595016636408359	29257.71204391613
0.8597165390567462	29372.06616204882
0.8599314681915105	29475.858203732107
0.8601464510585584	29579.886251483167
0.860361487671323	29686.258380915915
0.8605765780432408	29796.09422796502
0.8607917221877518	29893.69273275391
0.8610069201182988	29997.26950084359
0.8612221718483286	30097.304743359142
0.8614374773912907	30180.93696841843
0.8616528367606385	30277.786323026197
0.8618682499698288	30290.4914563027
0.8620837170323213	30383.405561812237
0.8622992379615795	30549.58423272514
0.8625148127710699	30539.69821760216
0.8627304414742627	30626.061760378376
0.8629461240846313	30882.194653495444
0.8631618606156526	30993.508970092123
0.8633776510808066	31123.308823139963
0.8635934954935769	31239.716512032246
0.8638093938674504	31373.808344319168
0.8640253462159173	31406.538870677352
0.8642413525524714	31348.16613258805
0.8644574128906095	31663.216750094292
0.8646735272438323	31720.165836471704
0.8648896956256433	31752.207657352097
0.8651059180495498	32018.097005029624
0.8653221945290621	32159.95543997379
0.8655385250776946	32276.807960994658
0.8657549097089641	32426.99459160555
0.8659713484363913	32543.55487008498
0.8661878412735006	32668.886175338703
0.866404388233819	32765.605485577566
0.8666209893308775	32890.01507323022
0.8668376445782103	33047.56154933538
0.8670543539893549	33167.35541478246
0.8672711175778525	33258.66776883895
0.8674879353572469	33355.93498861722
0.8677048073410862	33496.79935150909
0.8679217335429217	33630.24703722212
0.8681387139763074	33740.01704082639
0.8683557486548015	33794.27690063763
0.8685728375919655	33935.052850513996
0.8687899808013633	34109.6396063562
0.8690071782965637	34242.88079318737
0.869224430091138	34366.0300019351
0.8694417361986609	34461.54047521419
0.8696590966327107	34542.1361727992
0.869876511406869	34624.08779182824
0.8700939805347206	34742.927410520984
0.8703115040298544	34957.23145841196
0.870529081905862	35097.497924910575
0.8707467141763385	35216.77789899844
0.8709644008548827	35308.696215038406
0.8711821419550964	35394.057249609956
0.8713999374905854	35494.67008670698
0.871617787474958	35708.22183375887
0.8718356919218269	35823.91301259416
0.8720536508448075	35890.56269805105
0.8722716642575187	36019.12304041302
0.8724897321735832	36199.669055329396
0.8727078546066265	36349.601526113285
0.8729260315702784	36488.4166206545
0.873144263078171	36624.291919740135
0.8733625491439405	36760.74674738915
0.8735808897812266	36871.65738145644
0.8737992850036719	36944.82041880938
0.874017734824923	36940.929921471456
0.8742362392586293	37228.813640867666
0.874454798318444	37379.13174230376
0.8746734120180236	37512.98978606376
0.8748920803710283	37671.399519165476
0.875110803391121	37800.29938610475
0.8753295810919689	37936.86803714022
0.875548413487242	38085.875478025046
0.8757673005906139	38224.21150772166
0.8759862424157616	38345.62571576314
0.8762052389763657	38463.80020019998
0.8764242902861098	38593.77549609836
0.8766433963586814	38736.008016639404
0.8768625572077712	38836.183916159636
0.8770817728470732	38926.032839571235
0.8773010432902849	39127.277090815536
0.8775203685511077	39311.74496934579
0.8777397486432454	39456.94896695628
0.8779591835804065	39588.86276195428
0.8781786733763015	39725.6301878691
0.8783982180446457	39867.515379861245
0.878617817599157	39994.09077658249
0.8788374720535569	40133.17352124228
0.8790571814215703	40241.29991396193
0.8792769457169257	40367.127130899426
0.879496764953355	40564.44070038851
0.8797166391445934	40719.94497492588
0.8799365683043796	40857.46654518392
0.8801565524464557	40988.67223404518
0.8803765915845676	41131.2404358814
0.8805966857324639	41281.4903331032
0.880816834903897	41398.30677317316
0.881037039112623	41542.21108943879
0.8812572983724012	41683.542597791304
0.8814776126969944	41784.04164223482
0.8816979821001687	41962.11091685438
0.8819184065956938	42160.65645091352
0.8821388861973429	42294.965004987454
0.8823594209188923	42402.95323318434
0.882580010774122	42585.50792081124
0.8828006557768155	42753.34843760929
0.8830213559407598	42897.07784962101
0.8832421112797452	43046.99232530164
0.8834629218075651	43107.52960157815
0.8836837875380171	43133.43083674422
0.8839047084849018	43371.91501827818
0.884125684662023	43640.98016330688
0.8843467160831886	43808.90331739956
0.8845678027622095	43957.801957591364
0.8847889447129001	44096.11679942942
0.8850101419490785	44242.68911862305
0.8852313944845657	44380.66682082981
0.885452702333187	44570.1778171175
0.8856740655087704	44708.74612852937
0.8858954840251476	44753.056695498504
0.8861169578961539	44916.06732211069
0.886338487135628	45171.22632708665
0.886560071757412	45351.79410310824
0.8867817117753515	45515.07752786288
0.8870034072032955	45665.339515519234
0.8872251580550963	45810.06216812037
0.8874469643446101	45964.99726033412
0.8876688260856963	46114.73507929211
0.8878907432922178	46290.76745599793
0.8881127159780409	46441.449591511686
0.8883347441570356	46543.636012989
0.8885568278430749	46655.67594115374
0.8887789670500358	46883.550555499176
0.8890011617917983	47077.48654899283
0.8892234120822464	47269.123075630254
0.8894457179352669	47434.04775481486
0.8896680793647509	47577.48310813595
0.8898904963845921	47686.22343685997
0.8901129690086883	47856.62997106767
0.8903354972509405	48076.56376677983
0.8905580811252535	48242.522698386696
0.8907807206455347	48082.15910289346
0.8910034158256963	47266.49221263948
0.8912261666796527	48105.75523704528
0.8914489732213227	48797.558452303594
0.8916718354646282	48812.890586259935
0.8918947534234944	48832.33219014293
0.8921177271118502	48805.11676830859
0.8923407565436284	48220.77473734573
0.8925638417327644	49010.55425314527
0.8927869826931977	49785.60061204964
0.8930101794388711	49994.82573193828
0.8932334319837308	49572.31870597123
0.8934567403417267	49232.10043417638
0.8936801045268123	50290.78687529796
0.8939035245529441	50598.92710694366
0.8941270004340824	50684.97824838387
0.894350532184191	50445.07539043987
0.8945741198172371	50872.80015528821
0.8947977633471915	51426.076962689905
0.8950214627880284	51645.347512434535
0.8952452181537254	51733.94708104989
0.8954690294582639	51852.082058449276
0.8956928967156286	52118.64634853867
0.8959168199398075	52174.038109143934
0.8961407991447926	52284.99514910367
0.8963648343445789	52131.502167671555
0.896588925553165	51263.27916712762
0.8968130727845534	51947.54958922864
0.8970372760527496	52322.806556756455
0.8972615353717629	49188.87514914501
0.8974858507556059	48648.96254042387
0.8977102222182949	52983.54723401115
0.8979346497738496	53999.35691763283
0.8981591334362931	54167.311772569024
0.8983836732196523	54315.29002801067
0.8986082691379572	54426.16506368866
0.8988329212052417	52256.05176372914
0.8990576294355432	48923.780441223746
0.8992823938429022	51775.919160283745
0.8995072144413631	54287.91081125352
0.8997320912449734	55335.06018006352
0.8999570242677847	55616.68513166183
0.9001820135238516	55726.06770554034
0.9004070590272328	55293.99584718764
0.9006321607919896	54053.72903015247
0.9008573188321878	54878.16070147645
0.9010825331618959	55024.52180592691
0.9013078037951865	56402.3095877113
0.9015331307461353	56813.25530009685
0.9017585140288219	57074.70951110265
0.9019839536573292	57344.722908336866
0.9022094496457435	57585.43237513576
0.9024350020081551	57756.52982856917
0.9026606107586572	57916.389527276275
0.902886275911347	58077.766624020784
0.9031119974803249	58123.855716360005
0.9033377754796951	58354.354646420405
0.903563609923565	58706.57588404971
0.903789500826046	58869.6613467465
0.9040154482012526	58836.196201462946
0.904241452063303	59256.072487245285
0.9044675124263188	59368.71893550107
0.9046936293044254	59420.69090293059
0.9049198027117517	59690.006178017225
0.9051460326624297	60021.41181716469
0.9053723191705955	60337.69942099883
0.9055986622503881	60565.61698731777
0.9058250619159507	60774.69713290968
0.9060515181814298	60937.53787271195
0.9062780310609752	60887.85005143487
0.9065046005687405	61029.86660412528
0.906731226718883	61399.089277471416
0.9069579095255627	61664.17828311682
0.907184649002944	61810.5935251375
0.907411445165195	62094.671756373435
0.9076382980264862	62241.38226685173
0.907865207600993	62353.42210588266
0.9080921739028933	62590.05843653074
0.9083191969463691	62787.689470205914
0.9085462767456058	62842.52630092012
0.9087734133147922	62732.72990178863
0.9090006066681211	63399.17087670058
0.909227856819788	63764.54435281912
0.9094551637839932	63942.25268749738
0.9096825275749393	64181.46115840725
0.9099099482068329	64130.14171978407
0.9101374256938848	64319.56973222132
0.9103649600503083	64420.20303961145
0.9105925512903209	64858.682245677825
0.9108201994281437	64693.38271311584
0.9110479044780008	65059.84562627589
0.9112756664541204	65671.71417834995
0.911503485370734	65956.01719408721
0.9117313612420768	66055.1538858897
0.9119592940823873	66348.93412000091
0.912187283905908	66683.08970244686
0.9124153307268845	66903.88111516589
0.9126434345595664	67123.33286199441
0.9128715954182063	67322.71303017686
0.9130998133170609	67474.43453552862
0.9133280882703902	67516.45713216199
0.913556420292458	67783.61119302966
0.9137848093975312	68046.51104693103
0.9140132555998806	68432.93197021155
