#wavelength	surface flux
0.7	555.3164570528561
0.7001166666666666	557.2559262097626
0.7002333527777778	559.159408280442
0.700350058336574	560.972469571624
0.7004667833462966	562.8394651854342
0.7005835278101878	564.7468856332393
0.7007002917314895	566.5565653841066
0.7008170751134447	568.3538183856789
0.7009338779592968	570.1711098187844
0.7010507002722901	571.9778298768009
0.7011675420556689	573.7706667542451
0.701284403312678	575.5964203080127
0.7014012840465635	577.4341487530858
0.7015181842605713	579.1934031766368
0.701635103957948	580.9131499705896
0.701752043141941	582.5404053104563
0.701869001815798	584.4082020567959
0.7019859799827672	586.4433277969198
0.7021029776460976	588.2373141720719
0.7022199948090387	590.0146102728354
0.7023370314748403	591.8693323279443
0.7024540876467528	593.8266726843248
0.702571163328027	595.9034668714127
0.7026882585219152	597.8449391515551
0.7028053732316688	599.7387987313656
0.7029225074605406	601.5580518149717
0.7030396612117841	603.3356196271332
0.7031568344886527	605.0314303260624
0.7032740272944008	607.0210789145463
0.7033912396322832	609.1822604859682
0.7035084715055552	611.2289459034118
0.7036257229174727	613.2113521382292
0.7037429938712924	614.9971328468499
0.7038602843702709	616.9260899089348
0.7039775944176659	618.9905000137134
0.7040949240167356	620.9828397470885
0.7042122731707383	622.9599512877115
0.7043296418829335	624.9505370986274
0.7044470301565806	626.9105369708352
0.70456443799494	628.8246022578039
0.7046818654012724	630.7905073975991
0.7047993123788394	632.7791243673753
0.7049167789309024	634.6742929664816
0.7050342650607243	636.6471522308004
0.7051517707715678	638.8096368275718
0.7052692960666963	640.9250651567272
0.705386840949374	643.0078391172235
0.7055044054228656	644.9897115932996
0.7056219894904361	646.9802322521715
0.7057395931553511	649.0627457894454
0.705857216420877	651.1571757732504
0.7059748592902804	653.2641713402783
0.7060925217668288	655.3298241735891
0.70621020385379	657.3843812192434
0.7063279055544321	659.4381345492844
0.7064456268720246	661.496444639842
0.7065633678098366	663.5617581201957
0.7066811283711383	665.6349850902569
0.7067989085592001	667.7119759483044
0.7069167083772933	669.7624026508694
0.7070345278286895	671.7353322184847
0.707152366916661	673.5213955674866
0.7072702256444803	675.2063519854305
0.7073881040154211	676.8227964226496
0.7075060020327569	679.4750352701218
0.7076239196997625	682.1677560515698
0.7077418570197124	684.5614681816016
0.7078598139958823	686.80931550053
0.7079777906315483	688.9153361524542
0.7080957869299869	691.0649261007819
0.7082138028944751	693.2357446254055
0.7083318385282908	695.4888416023267
0.7084498938347124	697.7368503217751
0.708567968817018	699.9777682394218
0.7086860634784875	701.9485672277958
0.7088041778224007	703.8009500498391
0.7089223118520377	705.1611478488467
0.7090404655706796	707.125404190884
0.709158638981608	710.2494524917323
0.709276832088105	712.6740085968967
0.7093950448934531	714.7220680562333
0.7095132774009353	715.2992050321569
0.7096315296138355	716.7158396951704
0.7097498015354378	720.6189552053671
0.7098680931690269	723.6039936001353
0.7099864045178884	725.9121281742181
0.7101047355853081	728.3755834058728
0.7102230863745722	730.8389872014359
0.7103414568889679	733.2178767744903
0.7104598471317828	735.6007813509269
0.7105782571063047	737.9876233451819
0.7106966868158224	740.0786522449249
0.710815136263625	742.1637038358634
0.7109336054530023	744.6607317132958
0.7110520943872445	747.1432752047191
0.7111706030696424	749.6072384563105
0.7112891315034873	752.0154107421346
0.7114076796920712	754.4074606845894
0.7115262476386865	756.8290116314922
0.7116448353466263	759.1914918145516
0.711763442819184	761.4565164900832
0.711882070059654	763.8374234810424
0.7120007170713306	766.2697945148473
0.7121193838575091	768.6381470622761
0.7122380704214853	771.0308562897842
0.7123567767665555	773.4747134724771
0.7124755028960166	775.7516721483729
0.7125942488131658	777.9332165930709
0.7127130145213015	780.1375677362656
0.7128318000237216	782.4349275237145
0.7129506053237256	784.9829972834535
0.7130694304246129	787.4539718364812
0.7131882753296837	789.8701992904453
0.7133071400422386	792.3032051699598
0.7134260245655789	794.4643238600584
0.7135449289030065	795.6476589646145
0.7136638530578235	798.2523291335732
0.7137827970333332	802.0833208898906
0.7139017608328388	804.7158087283395
0.7140207444596443	807.1712157749513
0.7141397479170543	809.7465464082715
0.7142587712083737	812.1003847702549
0.7143778143369084	814.227064208724
0.7144968773059646	817.2314553396643
0.7146159601188489	820.3460317805391
0.7147350627788687	822.8713047068005
0.7148541852893318	825.4062764895657
0.7149733276535467	827.9527916181469
0.7150924898748222	830.243104690075
0.715211671956468	832.5339731001015
0.7153308739017941	835.5087200632537
0.715450095714111	838.3882598347499
0.71556933739673	841.1361988415678
0.7156885989529628	843.5877865793489
0.7158078803861218	845.9467320638602
0.7159271816995193	848.4430330205438
0.7160465028964692	850.6255734230909
0.7161658439802853	852.3164303964788
0.7162852049542819	853.366101422513
0.7164045858217744	854.2097717307222
0.716523986586078	856.3307508529819
0.7166434072505089	855.668438199407
0.716762847818384	850.130570538842
0.7168823082930204	854.7727246378656
0.7170017886777359	863.9653079453902
0.7171212889758488	870.0947945488005
0.7172408091906781	874.3997186980147
0.7173603493255433	875.1836649606903
0.7174799093837642	876.2482827531743
0.7175994893686615	877.4523042931422
0.7177190892835562	881.740540462425
0.7178387091317702	886.4835338456538
0.7179583489166254	892.1488764063158
0.7180780086414448	895.4101149119442
0.7181976883095517	897.3875576841057
0.7183173879242699	901.3847884072708
0.718437107488924	904.9380593412459
0.7185568470068389	907.4133244008494
0.7186766064813399	908.580801124911
0.7187963859157535	909.0114304520107
0.7189161853134061	914.1943250768417
0.719036004677625	918.9578969619921
0.7191558440117378	922.3997257751496
0.7192757033190732	925.4561327008272
0.7193955826029597	928.2878692762763
0.7195154818667269	930.8074139463079
0.7196354011137046	933.4637336321915
0.7197553403472235	936.4746535521408
0.7198752995706147	939.5651605014291
0.7199952787872098	942.703095241534
0.720115278000341	945.3151101990471
0.7202352972133411	947.7773577114124
0.7203553364295432	949.931199563806
0.7204753956522815	952.648100382269
0.7205954748848902	955.6988469744962
0.7207155741307044	958.8750607367361
0.7208356933930594	962.1470510574559
0.7209558326752915	965.6333369478369
0.7210759919807375	968.5749750634559
0.7211961713127342	971.200158009216
0.7213163706746197	973.001944764587
0.7214365900697322	975.3039601204786
0.7215568295014103	978.8111435405312
0.721677088972994	982.487566338548
0.7217973684878227	986.2590658035392
0.7219176680492374	988.0765037781973
0.7220379876605789	990.584208603907
0.722158327325189	994.6827383099659
0.7222786870464099	998.6220369966218
0.7223990668275843	1002.4772875759902
0.7225194666720555	1005.5289799981805
0.7226398865831676	1008.5654823122104
0.7227603265642646	1011.5834762073046
0.722880786618692	1013.7656368554483
0.7230012667497951	1015.5578146818785
0.7231217669609201	1019.273990303074
0.7232422872554135	1022.6309526347109
0.7233628276366229	1025.3226593471395
0.7234833881078956	1028.6719388271495
0.7236039686725803	1032.2081199793
0.7237245693340255	1032.6110983742913
0.7238451900955812	1034.6953567214184
0.7239658309605971	1039.5866866734668
0.7240864919324239	1044.1920674091
0.7242071730144127	1048.6071230453947
0.724327874209915	1051.7917963843236
0.7244485955222832	1055.1738172000978
0.7245693369548704	1058.8485669946915
0.7246900985110294	1062.2535609999663
0.7248108801941148	1065.5877485534143
0.7249316820074803	1069.1311666605554
0.7250525039544815	1072.5259158346212
0.7251733460384739	1075.7269824009786
0.7252942082628137	1078.7223956101327
0.7254150906308574	1081.62698708087
0.7255359931459625	1084.3008508858568
0.7256569158114868	1087.295236429078
0.7257778586307888	1090.6501348503286
0.7258988216072273	1093.8960220026906
0.7260198047441617	1097.2001010305416
0.7261408080449525	1100.9247675938236
0.72626183151296	1103.8395787947125
0.7263828751515454	1105.978869185807
0.7265039389640706	1110.4042733794672
0.726625022953898	1114.8082647698827
0.7267461271243904	1117.6817307530678
0.7268672514789111	1120.5415001414092
0.7269883960208241	1123.3903887491258
0.7271095607534942	1127.8262996390258
0.7272307456802866	1132.207799626853
0.7273519508045666	1135.9333267397355
0.7274731761297006	1139.2187841732637
0.7275944216590555	1142.2153729756456
0.7277156873959987	1145.101314167984
0.7278369733438982	1147.2869260316486
0.727958279506122	1147.8867601440306
0.7280796058860397	1152.5770075528872
0.7282009524870207	1159.393936456448
0.7283223193124353	1163.9184950476301
0.7284437063656539	1168.1512732000083
0.7285651136500483	1171.8647394080108
0.7286865411689898	1175.118957964629
0.7288079889258514	1178.0896754534401
0.7289294569240056	1179.6598844361092
0.7290509451668262	1182.3341562343965
0.7291724536576875	1186.5375467928607
0.7292939823999636	1190.8426592730546
0.7294155313970303	1195.17144686983
0.7295371006522632	1199.455508884271
0.7296586901690385	1203.2529314481753
0.7297802999507332	1206.5285940799677
0.7299019300007252	1208.9832038046109
0.7300235803223919	1211.1986303644849
0.7301452509191123	1213.078428517636
0.7302669417942654	1215.5865660004029
0.7303886529512311	1218.6088450913362
0.7305103843933897	1216.7833821718218
0.7306321361241218	1218.0780323356012
0.7307539081468093	1229.466279037895
0.7308757004648336	1236.9762393825786
0.7309975130815778	1242.124524058773
0.7311193460004248	1246.240065098052
0.7312411992247582	1250.4693436167809
0.7313630727579622	1254.9628584492723
0.7314849666034219	1258.733957050285
0.7316068807645224	1262.1205885405636
0.7317288152446498	1264.324793666375
0.7318507700471907	1267.074581653231
0.7319727451755319	1270.5894027646343
0.732094740633061	1276.0526337900706
0.7322167564231665	1281.584377808865
0.7323387925492371	1284.0206534319277
0.7324608490146619	1287.9575445144062
0.732582925822831	1293.4043897729691
0.7327050229771347	1297.8830206027765
0.7328271404809642	1302.0707705761602
0.7329492783377112	1305.7900539290376
0.7330714365507675	1309.8309171978044
0.7331936151235259	1314.1003812389351
0.7333158140593796	1317.6333134742383
0.7334380333617229	1321.1230748858932
0.7335602730339499	1324.606536536119
0.7336825330794556	1328.989805448367
0.7338048135016354	1333.7589144111364
0.7339271143038857	1337.3620866639333
0.734049435489603	1339.7359486452342
0.7341717770621846	1340.296573067908
0.7342941390250283	1345.0981989380691
0.7344165213815324	1350.940252942135
0.734538924135096	1355.2964200050274
0.7346613472891185	1359.8602458000728
0.734783790847	1364.6308837226704
0.7349062548121412	1366.957861044031
0.7350287391879431	1367.3187994443758
0.7351512439778078	1362.4811676774884
0.7352737691851374	1368.4971104510698
0.735396314813335	1381.6892013510633
0.7355188808658037	1387.2341115920267
0.7356414673459482	1392.5983798054162
0.7357640742571725	1398.0723187599494
0.7358867016028818	1402.2199178356461
0.7360093493864824	1405.8146064410676
0.7361320176113801	1409.3668812650776
0.736254706280982	1412.6495928047282
0.7363774153986956	1415.5970789468993
0.7365001449679286	1415.4947747820395
0.7366228949920899	1415.7056624846573
0.7367456654745885	1420.2840707737687
0.7368684564188344	1428.4480020585013
0.7369912678282374	1439.4590270268436
0.7371140997062088	1445.5985116216827
0.7372369520561599	1450.8417394129642
0.7373598248815024	1454.8669368752921
0.7374827181856494	1459.0247340384615
0.7376056319720137	1463.2527274387944
0.7377285662440091	1467.5942394392073
0.7378515210050496	1471.2403873364028
0.7379744962585505	1473.9218580784081
0.738097492007927	1478.485708008682
0.7382205082565949	1483.319591825668
0.738343545007971	1487.0388623523513
0.7384666022654723	1491.6179382320631
0.7385896800325165	1496.9261818430018
0.7387127783125219	1501.9107207136246
0.7388358971089073	1506.722891085182
0.7389590364250921	1511.1871524404492
0.7390821962644963	1515.890669056571
0.7392053766305403	1520.7109149529942
0.7393285775266454	1525.4675456757825
0.7394517989562333	1530.169523179605
0.7395750409227259	1534.7958204540023
0.7396983034295463	1539.3946814882652
0.739821586480118	1543.8734160526603
0.7399448900778645	1547.8170118606863
0.7400682142262109	1552.2141681210678
0.740191558928582	1556.9780163762186
0.7403149241884034	1560.752836736716
0.7404383100091014	1564.6508406381354
0.7405617163941028	1568.9832020477193
0.7406851433468352	1573.8315316897792
0.7408085908707264	1578.6117421429203
0.7409320589692048	1579.372642474252
0.7410555476456997	1583.6919940928258
0.7411790569036406	1592.3650228185381
0.7413025867464579	1597.4076279889819
0.7414261371775823	1601.9061022520518
0.7415497082004452	1607.1381717885538
0.7416732998184786	1612.0046740138025
0.741796912035115	1616.6205274305132
0.7419205448537874	1619.8749803713263
0.7420441982779297	1623.9512226926624
0.742167872310976	1629.5674946858842
0.7422915669563612	1635.8755954013895
0.7424152822175206	1642.2134402931797
0.7425390180978901	1647.0353958031124
0.7426627746009065	1651.1143096954581
0.7427865517300065	1654.4711802132383
0.7429103494886282	1660.9080285644968
0.7430341678802096	1667.3877013145807
0.7431580069081896	1672.993002853338
0.7432818665760077	1678.1702575933434
0.7434057468871037	1683.1121757568883
0.7435296478449182	1687.7235211571908
0.7436535694528923	1692.4376355508296
0.7437775117144678	1697.286513971959
0.7439014746330868	1700.8710895311249
0.7440254582121922	1704.7164374845352
0.7441494624552276	1710.654899039572
0.7442734873656368	1715.0880683078408
0.7443975329468645	1718.485927830001
0.7445215992023557	1723.2350918478196
0.7446456861355559	1728.539387797012
0.7447697937499119	1734.7489720833637
0.7448939220488703	1740.4847331716549
0.7450180710358784	1746.1247727102095
0.7451422407143843	1752.094923201881
0.7452664310878367	1757.7729473582087
0.7453906421596846	1763.197017583426
0.7455148739333779	1768.5498315744362
0.7456391264123667	1773.9273585537132
0.7457633996001021	1779.370410183548
0.7458876935000356	1784.5032599262706
0.7460120081156189	1789.5233034855373
0.7461363434503048	1794.6957832696182
0.7462606995075466	1799.9831091266003
0.7463850762907978	1805.3908729737648
0.7465094738035127	1810.3897530354523
0.7466338920491467	1815.6450895515559
0.746758331031155	1821.7334497921386
0.7468827907529935	1827.1618087336135
0.7470072712181189	1832.3187737926585
0.7471317724299886	1838.451179672871
0.7472562943920602	1844.2183507734405
0.7473808371077922	1849.542513810839
0.7475054005806435	1853.655574948897
0.7476299848140736	1858.113488180341
0.7477545898115426	1864.3535627209092
0.7478792155765113	1870.2461154201183
0.7480038621124406	1875.8799061234854
0.7481285294227926	1879.6410522863823
0.7482532175110298	1884.9127963878736
0.7483779263806148	1892.2136329295915
0.7485026560350116	1897.9755292053046
0.7486274064776842	1903.4683296151854
0.748752177712097	1909.17935383012
0.7488769697417158	1915.3231555415823
0.749001782570006	1921.7310987629935
0.7491266162004343	1927.779359670102
0.7492514706364677	1933.6156342015893
0.7493763458815739	1939.1491559451042
0.7495012419392209	1944.9827040478601
0.7496261588128773	1950.8213939856073
0.7497510965060128	1956.4128838149202
0.7498760550220971	1962.2309440931517
0.7500010343646007	1968.1917308758748
0.7501260345369949	1973.7516311887375
0.750251055542751	1979.3542330268672
0.7503760973853414	1985.018299042663
0.7505011600682389	1990.6364352871778
0.750626243594917	1996.165685954243
0.7507513479688495	2001.3992372380299
0.7508764731935109	2007.1681532195428
0.7510016192723765	2013.2780729331973
0.7511267862089218	2019.3846606174409
0.7512519740066232	2025.4192619064513
0.7513771826689577	2031.352013660766
0.7515024121994025	2037.4069554818525
0.7516276626014359	2043.4317225198852
0.751752933878536	2049.2521705645268
0.7518782260341824	2054.827186140368
0.7520035390718548	2060.2840479238394
0.7521288729950334	2066.746518345318
0.7522542278071992	2073.082058570124
0.7523796035118337	2079.2507281134344
0.7525050001124189	2085.283151040921
0.7526304176124378	2091.1181502947206
0.7527558560153731	2096.4175980191103
0.752881315324709	2102.913559378627
0.7530067955439299	2110.017946534937
0.7531322966765205	2116.392625313195
0.7532578187259665	2122.6602871252862
0.7533833616957542	2128.802415957661
0.75350892558937	2134.9701054127104
0.7536345104103016	2141.1247016768284
0.7537601161620366	2147.233156798896
0.7538857428480638	2153.1583612151585
0.7540113904718717	2159.0359704973653
0.7541370590369503	2165.287225080503
0.7542627485467898	2171.3133628176183
0.7543884590048808	2177.113614872585
0.7545141904147151	2183.8319188222213
0.7546399427797842	2190.486276398219
0.7547657161035808	2196.802748326878
0.754891510389598	2203.261069171788
0.7550173256413296	2209.7352425969316
0.7551431618622698	2215.9726251913744
0.7552690190559135	2222.2979851465016
0.7553948972257561	2228.69600572704
0.7555207963752938	2235.1693410113444
0.755646716508023	2241.6400257461205
0.755772657627441	2248.1001455948076
0.7558986197370455	2254.4039492215124
0.756024602840335	2260.670748126613
0.7561506069408084	2266.961626527922
0.7562766320419653	2273.381408200892
0.7564026781473054	2279.88240424607
0.75652874526033	2286.2795343897587
0.7566548333845401	2292.7510550192164
0.7567809425234375	2299.318953377582
0.7569070726805247	2305.7954889618413
0.7570332238593047	2312.2866168363526
0.7571593960632813	2318.862671746603
0.7572855892959586	2325.1729428905746
0.7574118035608413	2331.364456878572
0.7575380388614347	2337.62313068208
0.7576642952012449	2344.190605562201
0.7577905725837782	2351.055810099571
0.7579168710125422	2357.50923710674
0.7580431904910444	2364.0183035892364
0.7581695310227928	2370.697622098679
0.7582958926112967	2377.150868300042
0.7584222752600652	2383.5623717531084
0.7585486789726085	2390.112278445356
0.7586751037524372	2396.7111972287435
0.7588015496030628	2403.3430318154624
0.7589280165279966	2409.900583813123
0.7590545045307512	2416.3272903214606
0.7591810136148396	2422.5807894436484
0.7593075437837755	2429.262765656955
0.7594340950410726	2435.884869789563
0.7595606673902461	2442.1379743747125
0.7596872608348112	2448.474279623871
0.7598138753782836	2454.8572730818732
0.75994051102418	2461.311163230044
0.7600671677760173	2467.7803123210647
0.7601938456373134	2474.2631035194945
0.7603205446115863	2480.7208993995087
0.7604472647023548	2487.0930582110927
0.7605740059131385	2493.322722042299
0.7607007682474575	2499.4868870246382
0.7608275517088319	2505.583963308558
0.7609543563007835	2511.498523234092
0.7610811820268336	2517.3933681025264
0.7612080288905045	2523.2754560363383
0.7613348968953197	2529.1274614424733
0.7614617860448022	2534.8634952017005
0.7615886963424764	2540.4772390052067
0.7617156277918667	2546.0599840101136
0.7618425803964988	2551.62793345922
0.7619695541598982	2557.1718329239175
0.7620965490855914	2562.5321172942945
0.7622235651771058	2567.8074654208704
0.7623506024379685	2572.962389072096
0.7624776608717082	2577.765671366456
0.7626047404818536	2582.3298265764693
0.7627318412719337	2586.4901164544563
0.762858963245479	2590.480420290705
0.7629861064060198	2594.2740589391924
0.7631132707570876	2597.6882817475966
0.7632404563022137	2600.833241600499
0.7633676630449308	2603.500137553935
0.7634948909887717	2605.555928672732
0.7636221401372697	2607.235127153906
0.7637494104939593	2608.1145437567893
0.7638767020623748	2608.524595662495
0.7640040148460518	2608.561729890229
0.7641313488485262	2606.6556709264605
0.7642587040733344	2603.821472062618
0.7643860805240132	2599.9015834631555
0.7645134782041005	2594.9426713230023
0.7646408971171346	2588.8519424835754
0.764768337266654	2580.6366314145253
0.7648957986561985	2570.062979502908
0.7650232812893079	2558.085371991341
0.7651507851695227	2543.3166712252037
0.7652783103003843	2525.92156563843
