#wavelength	surface flux
0.676892	55.51209962990458
0.678297	58.05174239592289
0.679702	60.69916952424577
0.681109	63.45748950080329
0.682517	66.33125392623508
0.683926	69.32199107087243
0.685337	72.44427108447113
0.686749	75.68730514168394
0.688164	79.06768165762712
0.689581	82.58170670448403
0.691	86.22971730214186
0.692422	89.82130140247378
0.693847	93.93186946716078
0.695274	98.17616217957857
0.696705	102.52992959753854
0.698139	107.00678415128625
0.699576	111.52012668902248
0.701017	116.575830894798
0.702461	121.64525133449322
0.70391	126.98968314363212
0.705362	132.53940275810646
0.706819	138.25425664263506
0.70828	144.16872571780746
0.709745	150.26649433536147
0.711216	157.0051825979051
0.71269	163.73816960739921
0.71417	170.71010385289622
0.715655	177.73520420825085
0.717145	184.18185214028026
0.71864	193.37263561198318
0.72014	202.07089183305263
0.721647	210.56573326548758
0.723158	219.58319434250686
0.724676	229.179220826262
0.726199	239.06472100836157
0.727728	249.27844511380943
0.729264	259.724752912344
0.730805	270.19428536621405
0.732353	282.6156987660305
0.733907	294.48846753848613
0.735468	306.11277381686875
0.737035	319.64463985596285
0.738609	334.5442297489498
0.74019	348.7828030810746
0.741777	363.42115821461016
0.743372	379.16842278537257
0.744973	395.3804966179666
0.746582	412.4512053704733
0.748197	430.01809339666124
0.74982	448.7993736543011
0.751451	467.9072969593925
0.753088	487.9226682144888
0.754734	508.81618303031775
0.756386	530.564376968641
0.758047	553.0930530706814
0.759715	576.5041063402991
0.76139	600.5891726437534
0.763074	624.837063012944
0.764765	644.3263942383522
0.766464	646.6910219298793
0.768172	690.190889937665
0.769887	708.3082369665736
0.77161	760.1298717035534
0.773341	803.2229279530361
0.775081	839.1175510103864
0.776829	875.4979655695504
0.778585	912.3533155729192
0.780349	945.839210612096
0.782121	992.3812295454126
0.783902	1035.261775346018
0.785691	1079.3626974979904
0.787489	1124.9289331673262
0.789295	1172.1026376701611
0.79111	1222.7811707846247
0.792933	1274.6635487099086
0.794764	1320.3741118305757
0.796604	1384.3370025601123
0.798453	1443.94935317782
0.80031	1504.8325031517647
0.802176	1568.4715756255873
0.804051	1635.7683652275646
0.805934	1704.9943437358627
0.807826	1777.1115654506818
0.809727	1844.1595000941227
0.811636	1912.1430113491037
0.813554	1993.9460610923725
0.81548	2083.8034993987353
0.817416	2167.312127405323
0.81936	2260.336464987274
0.821313	2370.757165707729
0.823274	2446.9631923522084
0.825244	2568.7709639807185
0.827223	2668.3727885363674
0.829211	2795.8726658465635
0.831208	2903.995306426861
0.833213	3036.921781714758
0.835227	3164.5181321298496
0.837249	3293.3697653581667
0.83928	3428.89038545341
0.841321	3579.3071764245983
0.843369	3730.0365049803872
0.845427	3881.5479193729675
0.847493	4041.010620994131
0.849567	4213.204714162011
0.851651	4391.221999590522
0.853742	4573.54473614011
0.855843	4764.433952885789
0.857952	4962.974695915756
0.86007	5166.504917981552
0.862196	5366.961145111868
0.864331	5584.688771938764
0.866474	5826.8719605567185
0.868626	6068.231883111347
0.870786	6313.567100766
0.872955	6572.157280593914
0.875132	6842.630059542293
0.877317	7122.779340842318
0.879511	7413.8470389592485
0.881713	7712.504222857993
0.883923	8023.123441307848
0.886142	8349.185008249447
0.888369	8685.379543185321
0.890604	8969.73580109391
0.892847	9278.758813602832
0.895099	9719.130570418016
0.897358	9726.943897938356
0.899626	10226.574328987508
0.901901	10912.948898312437
0.904185	11391.85981044094
0.906476	11847.188661887416
0.908776	12301.757849212838
0.911083	12799.791410967484
0.913398	13311.393635518401
0.915721	13754.574015088787
0.918051	14271.391058380861
0.92039	14732.28402265938
0.922736	15480.87902478629
0.925089	15815.32850110594
0.927451	16092.985149951217
0.929819	16058.102958916013
0.932195	15682.188324174504
0.934579	15344.693353409612
0.93697	16850.791263306066
0.939369	19538.87452695202
0.941774	20561.99280052153
0.944187	21481.304594287867
0.946607	20032.46848031073
0.949035	20777.000177063943
0.951469	22814.574812140527
0.953911	24161.089285167756
0.956359	22982.046670448897
0.958814	25738.780505648854
0.961277	26412.22505896166
0.963746	28209.358685015606
0.966222	29131.253562125697
0.968705	31097.039732471247
0.971194	31459.964761709984
0.97369	32456.450771334083
0.976193	34165.06785894606
0.978702	35748.411147378574
0.981217	36993.07245843053
0.983739	38642.55515868185
0.986268	39882.24601214226
0.988802	41402.75590356852
0.991343	43132.777592295795
0.99389	44642.80471413363
0.996444	46495.21131921217
0.999003	48064.07287067856
1.00157	49631.69644484641
1.00414	51329.7492696557
1.00672	53102.35046938213
1.0093	54858.10270227546
1.01189	56755.194389380355
1.01448	58682.08997843657
1.01708	60639.37458914924
1.01969	62682.60091695099
1.0223	64763.98510456896
1.02492	66884.2169921761
1.02754	69097.95040725384
1.03017	71356.51140607502
1.0328	73654.02254163568
1.03544	76059.85305638208
1.03808	78508.0001484769
1.04073	81028.25785811694
1.04339	83617.72623491441
1.04604	86258.51036726944
1.04871	88975.5060605796
1.05138	91792.87675094965
1.05405	94679.10705497107
1.05673	97637.69590987232
1.05941	100512.82847746802
1.0621	103923.25316603409
1.06479	107470.13016818774
1.06749	110398.3257892342
1.07019	114010.04733604175
1.07289	117546.3951053841
1.0756	121153.99917331146
1.07832	124440.28623590304
1.08104	128411.11471882024
1.08376	132271.2593943271
1.08649	135762.24515678186
1.08922	139776.90703809191
1.09195	143279.9977209581
1.09469	147138.41417222153
1.09743	147242.54859664527
1.10018	148453.09210815336
1.10293	152199.36806120462
1.10568	160031.6257488842
1.10844	164593.06756868432
1.1112	165631.42453686756
1.11396	153366.38821472754
1.11673	152385.00717036435
1.1195	165375.7195510735
1.12228	149125.25329018306
1.12505	143506.3458227722
1.12783	170501.07366925615
1.13062	199180.82298884715
1.13341	187239.7975190745
1.1362	189320.54771301508
1.13899	221461.3538964814
1.14178	226515.46550776745
1.14458	212692.71793319218
1.14738	193094.46748990845
1.15019	209423.63457977734
1.153	250367.94011034042
1.1558	241383.2642020462
1.15862	270032.7887962448
1.16143	274527.0458733453
1.16425	255548.26823676692
1.16707	289577.3359507042
1.16989	279116.07325357484
1.17271	293467.3902768393
1.17554	309849.16509472625
1.17837	320651.73825934273
1.1812	330608.5585251893
1.18403	341033.8116075663
1.18686	348702.9572293794
1.1897	358310.6148494092
1.19253	369942.5214045618
1.19537	378963.2778827207
1.19822	379250.24729373597
1.20106	396853.3192009819
1.2039	406953.65990058787
1.20675	418671.16457445116
1.2096	427888.41437575576
1.21245	432931.5379926044
1.2153	446648.05241200747
1.21815	459975.0720430568
1.221	469986.28392134997
1.22385	480150.6367749834
1.22671	492213.23691630416
1.22957	503151.58874559327
1.23242	514269.49250192026
1.23528	527001.5955656687
1.23814	539112.0430928011
1.241	550794.8553282132
1.24387	563151.6083092905
1.24673	575075.9401044104
1.24959	587516.8270742946
1.25245	600337.7596329038
1.25532	613045.4270504963
1.25818	626773.8606190991
1.26105	639994.9221284521
1.26392	653736.3215335737
1.26678	667282.9545485271
1.26965	678662.812203145
1.27252	691065.2703239186
1.27538	708739.5403855559
1.27825	723511.5586433649
1.28112	735207.1740938369
1.28399	743085.6344059927
1.28686	764834.1783531081
1.28973	779449.7086808801
1.2926	787891.8946991981
1.29546	772173.0751061514
1.29833	800317.406743848
1.3012	829657.4335849549
1.30407	849039.7156087528
1.30694	872135.192663601
1.30981	884529.9744366935
1.31267	889663.439066408
1.31554	907061.6288157918
1.31841	890781.5633376122
1.32128	939222.4420727965
1.32414	957542.5535589652
1.32701	984850.0035015532
1.32987	979425.86090941
1.33274	940009.2411095854
1.3356	944289.1752575793
1.33847	741839.5484718166
1.34133	639946.9932195602
1.34419	612641.699096952
1.34705	667899.8905902202
1.34991	624350.8723581331
1.35277	770943.8221304492
1.35563	610868.790322971
1.35849	549649.4066611613
1.36135	595308.9272316213
1.3642	682206.8097852955
1.36706	740771.0612947235
1.36991	759752.3253290086
1.37277	880798.7237856117
1.37562	738637.4396345415
1.37847	1080544.7105105654
1.38132	934525.6736719074
1.38417	867416.4444002162
1.38701	741376.5983825802
1.38986	928458.8301332097
1.39271	849966.3030247386
1.39555	710312.4402454961
1.39839	885193.0835556514
1.40123	815289.0884752119
1.40407	1060145.8595504472
1.40691	997313.3854611068
1.40974	1115184.3538005666
1.41258	1137852.9275305367
1.41541	995047.7112833834
1.41824	819553.2421654131
1.42107	856096.3704072436
1.4239	741797.0502163899
1.42673	1045348.4400359107
1.42955	1227811.3938852893
1.43237	1103206.0085940396
1.43519	1177246.5315582547
1.43801	1251495.0499949215
1.44083	1152096.384483714
1.44365	1300221.194248022
1.44646	1284903.1099097398
1.44927	1308781.6411505684
1.45208	1409438.8122851695
1.45489	1232682.688401304
1.45769	1737345.9471546693
1.4605	1862287.7761601517
1.4633	1617227.134389808
1.4661	1747707.2546163462
1.4689	1745055.9344216227
1.47169	1884713.7276890574
1.47449	1759725.2729499966
1.47728	1912729.2553800086
1.48007	1944464.0502651315
1.48286	1882792.8290042195
1.48564	1995170.2506710486
1.48842	2121665.856075735
1.4912	2198255.155172254
1.49398	2226864.4754460775
1.49676	2202423.056982731
1.49953	2283103.2762807966
1.5023	2231391.9174278574
1.50507	2424226.7189590815
1.50784	2454001.471528467
1.51061	2439764.2324243993
1.51337	2521504.364054249
1.51613	2548400.7927820743
1.51888	2551566.004963606
1.52164	2594499.2733769915
1.52439	2656948.316520507
1.52714	2534995.3609546665
1.52989	2605993.432592254
1.53263	2789853.885049027
1.53538	2919996.801084971
1.53812	2965395.3842054233
1.54086	2982075.082533817
1.54359	3016699.2074909965
1.54632	3079545.13852312
1.54905	3123875.8506848384
1.55178	3164659.1860537063
1.5545	3191263.185926456
1.55723	3226833.463155713
1.55995	3272655.7794119655
1.56266	3306524.474747477
1.56538	3361393.418419162
1.56809	3421428.7545532687
1.5708	3441768.546758001
1.57351	3491642.1360921864
1.57621	3547730.120317224
1.57891	3575756.8590140506
1.58161	3615909.5350358323
1.5843	3652719.534152666
1.587	3675082.278750485
1.58969	3726288.9130822844
1.59238	3771182.0104946923
1.59506	3813768.089831016
1.59774	3857186.091617758
1.60042	3901800.76907469
1.6031	3939747.2567147175
1.60577	3974549.1980504743
1.60844	4013726.6132815434
1.61111	4062018.122543829
1.61378	4103237.1882543457
1.61644	4143161.6461611916
1.6191	4180760.9074473428
1.62176	4171187.000449063
1.62441	4077608.3508049804
1.62707	4087137.6431838893
1.62971	4083864.000299387
1.63236	4037410.3555588764
1.635	4239096.554446033
1.63764	4421349.129577696
1.64028	4462585.284084094
1.64292	4511499.274068469
1.64555	4521481.085610841
1.64818	4536445.3721096115
1.65081	4577474.5995128555
1.65343	4564492.694562004
1.65605	4388776.877005016
1.65867	4589720.568572488
1.66128	4659591.100992767
1.6639	4668370.731183253
1.66651	4053442.592495706
1.66911	4127777.3814602
1.67172	4828819.799644953
1.67432	5001558.443500544
1.67692	4984508.785884693
1.67951	5012149.361050046
1.68211	4840010.813126821
1.6847	4803516.101197496
1.68728	5162401.691265006
1.68987	5223118.31227617
1.69245	4790170.1358366255
1.69503	4599649.992968222
1.6976	4978892.626918087
1.70018	4531575.217528294
1.70275	4434774.219783829
1.70531	4518653.956543622
1.70788	4842364.175938883
1.71044	5362138.639044291
1.713	5545922.725630233
1.71556	5630729.669615713
1.71811	5638563.625814541
1.72066	5466266.069421097
1.72321	5050986.583112555
1.72575	5016746.5677098045
1.7283	5080849.819286788
1.73084	5088068.728293226
1.73337	5000897.7704025945
1.73591	4927101.317710398
1.73844	5427484.832290498
1.74097	5479395.433608604
1.74349	5536462.936628138
1.74602	5861006.612252875
1.74854	6065186.156330877
1.75105	5967990.308156427
1.75357	5604575.10853444
1.75608	5284592.579751823
1.75859	5358209.956997548
1.7611	5377959.432441027
1.7636	5396860.7509855535
1.7661	4935208.895594865
1.7686	4882695.604562049
1.7711	5544302.730554703
1.77359	4977002.739061321
1.77608	4402846.979715045
1.77857	4891792.315479938
1.78105	4966126.86559009
1.78354	4437560.172046344
1.78602	4400934.152459902
1.78849	4363491.458866054
1.79097	3938151.124888827
1.79344	4491169.435981562
1.79591	4848585.631780087
1.79837	5046870.586203803
1.80084	4202722.178030956
1.8033	4498971.363157859
1.80576	4249144.352568117
1.80821	3383662.69788013
1.81067	3081268.8180612386
1.81312	3979811.869689873
1.81557	5468587.170387148
1.81801	5299594.736209369
1.82046	5106959.823970089
1.8229	5814811.929891303
1.82533	6252079.790186661
1.82777	5975435.370584555
1.8302	5504932.934254582
1.83263	4898998.354531878
1.83506	5243571.446845408
1.83749	5524496.458495401
1.83991	4965192.57248644
1.84233	5131892.2985722115
1.84475	5500074.169176578
1.84716	4518508.17582663
1.84957	4628480.2234221455
1.85198	5975823.614379611
1.85439	6238209.601118878
1.8568	5339396.151563729
1.8592	4501476.182067997
1.8616	3483448.512367848
1.864	3252299.9565737834
1.86639	3767520.342038982
1.86878	3742916.5167931593
1.87118	4086614.805261469
1.87356	4086783.4750835425
1.87595	4964812.671270703
1.87833	6214751.328494923
1.88071	6241459.0867253225
1.88309	5645069.551652197
1.88547	5083857.459237137
1.88784	5120880.802104272
1.89021	5333911.541916695
1.89258	5545113.83989308
1.89494	5814696.676841016
1.89731	6019160.274573451
1.89967	5648475.988075403
1.90203	5621511.806287388
1.90439	6176164.913615837
1.90674	7146407.241321932
1.90909	7728376.881706605
1.91144	6566507.024672393
1.91379	5580594.023055744
1.91613	6589853.218294181
1.91848	7662077.652977922
1.92082	6851838.062658191
1.92315	5412413.658293637
1.92549	6152621.436332082
1.92782	6881184.191855217
1.93015	6247872.911442205
1.93248	6655338.344882866
1.93481	7215078.111019433
1.93713	5577581.731796026
1.93945	3826878.8050519503
1.94177	4647946.447960368
1.94409	5345276.059544132
1.94641	5346916.960757462
1.94872	5367186.828534765
1.95103	6158808.9522721805
1.95334	6425575.19092499
1.95564	4976897.619008261
1.95795	4098614.07685678
1.96025	4135342.3729352206
1.96255	5261318.854044334
1.96484	6982692.403762593
1.96714	7777182.531701186
1.96943	7228197.473647632
1.97172	7398336.417156878
1.97401	7848566.850028053
1.97629	7537155.816262143
1.97858	7660584.522177469
1.98086	7486810.7014155965
1.98314	7756391.9873656165
1.98541	8438562.44309299
1.98769	7987624.65892439
1.98996	7135141.234797709
1.99223	7363240.315300547
1.9945	8090584.21826186
1.99677	8287373.512171628
1.99903	7805616.531414594
2.00129	7529390.443186976
2.00355	8215378.998807302
2.00581	9042861.198748447
2.00806	9186448.235973075
2.01031	9603676.910461202
2.01256	10356249.036559984
2.01481	10249557.265828094
2.01706	9454116.76800155
2.0193	9644018.538486416
2.02154	10696490.2769104
2.02378	11041599.09292924
2.02602	10683958.27225495
2.02825	10257297.471884692
2.03049	10023851.14778392
2.03272	10613641.73473995
2.03494	11353434.776304318
2.03717	11527940.514031567
2.03939	11520671.675109863
2.04162	11562362.569840385
2.04384	11640162.003411183
2.04605	11428330.357869161
2.04827	10771183.450206395
2.05048	10682435.045162184
2.05269	11256648.956132373
2.0549	11652809.886593848
2.05711	11722979.719872156
2.05931	11411195.236362759
2.06151	11204150.692909291
2.06371	11391600.36435224
2.06591	11634102.393780522
2.06811	11846719.22889306
2.0703	12062592.576938637
2.07249	12287240.564705458
2.07468	12406778.708939288
2.07686	12481193.915748358
2.07905	12642787.835774735
2.08123	12761081.539458176
2.08341	12736797.5828842
2.08559	12637242.463730173
2.08776	12655113.445629692
2.08994	12752740.855496261
2.09211	12824718.078002734
2.09428	12933479.768428538
2.09645	13008621.031275054
2.09861	12975493.056979913
2.10077	12958714.050462577
2.10293	13058507.045657037
2.10509	13175224.748070613
2.10725	13137609.646966906
2.1094	12910808.070300627
2.11155	12578692.44147398
2.1137	12430513.793951629
2.11585	12648870.21299892
2.11799	13024395.65241767
2.12013	13355714.86084603
2.12227	13545120.787701396
2.12441	13609654.35901508
2.12655	13639064.646733008
2.12868	13664314.541878974
2.13081	13699247.692734063
2.13294	13765662.0750228
2.13507	13843065.016152237
2.13719	13897906.388771754
2.13931	13922822.535599215
2.14143	13921557.664158521
2.14355	13932271.41834784
2.14567	13943636.87991934
2.14778	13853934.597151952
2.14989	13678538.443824327
2.152	13345733.344361773
2.1541	12831402.717512934
2.15621	12891393.673808347
2.15831	13523764.58364927
2.16041	13799126.648802519
2.16251	13944546.202974707
2.1646	14156587.92044558
2.1667	14297973.796254989
2.16879	14363121.286667714
2.17087	14283122.871457312
2.17296	14117088.140489342
2.17504	14137331.353827165
2.17713	14356735.658862159
2.1792	14540128.94552509
2.18128	14599572.112088729
2.18336	14584460.114637915
2.18543	14592873.67944415
2.1875	14628692.057609808
2.18957	14668950.326455634
2.19163	14711184.087631393
2.1937	14663599.051739972
2.19576	14286865.832630407
2.19782	13277848.761753302
2.19987	12415910.735104779
2.20193	12456707.196808899
2.20398	13148935.54740345
2.20603	14053175.681988541
2.20808	14727129.456648858
2.21012	15029383.499645658
2.21217	14995315.700720506
2.21421	14528787.333871512
2.21625	13884593.04612638
2.21828	13744748.601443186
2.22032	14033032.605951652
2.22235	14041918.949886862
2.22438	13646821.49631431
2.22641	13401410.936729385
2.22843	13555724.989354962
2.23046	13649602.341341024
2.23248	13620322.665936822
2.2345	13938706.211968137
2.23651	14252226.378786476
2.23853	13738338.685852837
2.24054	12581244.538445797
2.24255	12301259.032523576
2.24456	13013398.326464752
2.24657	13123754.382586425
2.24857	12613281.477988811
2.25057	12176191.646170259
2.25257	11929237.624141898
2.25457	11486672.365441293
2.25656	11611417.418264048
2.25856	12288456.726709122
2.26055	12641720.607950147
2.26254	12745784.271153048
2.26453	13058985.202041233
2.26651	13238698.708265832
2.2685	13215072.008490685
2.27048	13247428.919047123
2.27246	13378904.385788875
2.27443	12912551.337604664
2.27641	12334533.69552497
2.27838	12843823.163130319
2.28036	14112946.354309797
2.28233	14313640.705330204
2.28429	12598930.580724003
2.28626	10879821.971993819
2.28823	11149974.398320086
2.29019	12137931.797932025
2.29215	11883830.088096773
2.29411	10979739.396056425
2.29607	10353684.48252253
2.29802	10423507.554374507
2.29998	11097453.957830323
2.30193	12436457.978526281
2.30388	13634905.459670646
2.30583	14387620.311682368
2.30778	14600214.524446355
2.30972	14735271.536178393
2.31167	14869299.201930825
2.31361	13761163.127419675
2.31555	11335117.638712518
2.31749	10091809.186735056
2.31943	10707222.523458527
2.32137	11078213.406513061
2.32331	10233937.949624745
2.32524	9477003.52853044
2.32718	9793557.977910532
2.32911	10178527.965687305
2.33104	10459207.110007128
2.33297	10875315.732521882
2.3349	11422774.226592226
2.33683	11740811.286293384
2.33876	11856738.423675792
2.34068	11647213.766714497
2.34261	11347456.568060009
2.34453	10904307.68699604
2.34646	10039171.420060156
2.34838	9783765.122512078
2.3503	10042023.983057335
2.35223	10833978.098390995
2.35415	11279504.563961443
2.35607	11442858.5918204
2.35799	11715404.286010925
2.35991	12342312.262706626
2.36183	13292247.977005046
2.36375	14333786.341580408
2.36566	14224658.992591979
2.36758	12081939.43607663
2.3695	9713670.687124858
2.37142	8769120.195234725
2.37334	8334205.4553969465
2.37526	8199853.792295347
2.37718	8750570.302825216
2.3791	10188516.62460068
2.38101	11536608.547524653
2.38293	12379168.558808997
2.38485	12054980.730231503
2.38677	11880155.188948374
2.3887	13066433.472070003
2.39062	15084073.637393113
2.39254	15890023.346747387
2.39446	15321368.903352963
2.39639	13544190.348831208
2.39831	11345585.879828356
2.40024	9395765.948040191
2.40216	8310514.828613334
2.40409	8373755.718240288
2.40602	9515790.998581368
2.40795	10996168.429158868
2.40989	12069081.418196347
2.41182	12230752.611181892
2.41376	11226078.562188225
2.4157	9936219.279599667
2.41764	8927937.53926158
2.41958	8714246.81288287
2.42152	8855613.631660815
2.42347	9189340.387453932
2.42542	8765031.608861508
