#wavelength	surface flux
0.6450077295303345	10.040398755013761
0.6472567915916443	10.868662926332922
0.6494921445846558	11.754686041544852
0.6517150402069092	12.694253905005901
0.6539263725280762	13.702007877129963
0.6561272740364075	14.771067959473097
0.6583186388015747	15.917243815994642
0.6605015397071838	17.134064613518756
0.6626768708229065	18.425889556816365
0.6648455858230591	19.80799831603279
0.6670085787773132	21.273971220325333
0.6691668033599854	22.837598558285
0.6713210344314575	24.499588398680565
0.6734722256660461	26.266005726891343
0.6756211519241333	28.143587648754657
0.6777685880661011	30.14123706735824
0.6799154281616211	32.26281157889169
0.6820623278617859	34.51996850179477
0.6842101216316223	36.91629847800627
0.6863595843315125	39.46744618395971
0.688511312007904	42.176147975993395
0.6906660795211792	45.0527144319122
0.6928245425224304	48.03208533134167
0.6949873566627502	51.347051775111275
0.6971551775932312	54.82146736521196
0.6993286609649658	58.436164451332566
0.7015084028244019	62.381848574785934
0.7036949396133423	66.5293040228105
0.7058889269828796	70.95354784263438
0.7080909013748169	75.59931674001307
0.710301399230957	80.55180467984634
0.712520956993103	85.87412886132935
0.7147500514984131	91.46944233122605
0.7169892191886902	96.92987043499599
0.7192389369010925	103.75585439306766
0.7214996814727783	110.47670465803363
0.723771870136261	117.62397471814566
0.7260559797286987	125.33571956289973
0.7283523678779602	133.44643748135113
0.7306615710258484	141.77602655290173
0.7329838871955872	151.2578786677819
0.7353196740150452	160.59809276186752
0.7376693487167358	171.2799176280943
0.7400332689285278	182.48139307954168
0.7424117922782898	194.15063121967412
0.7448052167892456	206.66440183150286
0.7472138404846191	219.98901766041163
0.7496379613876343	234.24168031476762
0.7520779371261597	249.2484090881967
0.7545340061187744	265.27953417224927
0.7570064663887024	282.3107670212518
0.7594954967498779	300.3947862868421
0.7620013952255249	319.6273300852545
0.7645244002342224	340.0414311557377
0.7670646905899048	361.715786897603
0.7696225643157959	384.8790818966545
0.7721980810165405	409.535922747297
0.7747915983200073	435.72197048230856
0.7774031162261963	463.5298687720342
0.7800329327583313	493.1017897459769
0.7826811671257019	524.5218534047277
0.7853479981422424	557.9801274617087
0.7880334854125977	593.3151173775296
0.7907378077507019	631.0830766401036
0.7934610247612	671.4051969862202
0.7962033748626709	713.9641964214054
0.7989648580551147	759.2058104124038
0.801745593547821	807.3151555019068
0.8045456409454346	858.6963148450137
0.8073651194572449	913.0535827126
0.8102040886878967	966.4604537633159
0.8130625486373901	1028.0784941934512
0.8159406185150146	1095.1037281159822
0.8188382983207703	1158.169126867958
0.8217556476593018	1238.0014527157348
0.8246926665306091	1314.9449344786635
0.8276493549346924	1397.6001455113178
0.8306257724761963	1486.102890427997
0.8336219191551208	1581.9184104263106
0.8366377949714661	1679.9692084926435
0.8396733403205872	1784.0178329016023
0.8427285552024841	1898.2284876638473
0.8458034992218018	2014.4247234537704
0.8488980531692505	2140.5487153268996
0.8520121574401855	2274.5912454376808
0.8551458716392517	2415.9900559667135
0.8582990765571594	2565.91905455472
0.8614717125892639	2721.445894693226
0.8646637797355652	2886.7460748088924
0.8678751587867737	3067.870192010763
0.8711057901382446	3254.534803130529
0.8743556141853333	3453.5352529735637
0.87762451171875	3665.10121844309
0.8809124231338501	3887.3080259850885
0.8842192888259888	4122.39696701449
0.8875449895858765	4371.470358716473
0.8908893465995789	4611.059448956096
0.894252359867096	4890.186378517824
0.8976338505744934	5064.809230372712
0.9010337591171265	5469.558553871135
0.9044519662857056	5833.124755245602
0.9078882932662964	6173.848269679046
0.9113426208496094	6541.705628300917
0.914814829826355	6912.223181293731
0.9183048605918884	7297.766067795245
0.9218124747276306	7733.165701629807
0.925337553024292	8100.931162896138
0.9288799166679382	8390.447366418894
0.9324395060539246	8298.985648204354
0.9360161423683167	8942.345327403184
0.9396095871925354	10092.38642420427
0.943219780921936	10762.020379475896
0.9468464851379395	10580.76880701347
0.9504896402359009	11194.055404143854
0.9541489481925964	12272.772275554022
0.9578243494033813	13114.039006741077
0.9615156054496765	13720.396873585752
0.9652225375175476	14620.416654370494
0.9689450263977051	15778.118081982051
0.9726828336715698	16307.704843217234
0.9764357805252075	17452.944387417203
0.9802037477493286	18321.049237955325
0.983986496925354	19521.319472988504
0.9877838492393494	20575.900419528236
0.9915955662727356	21734.40432908174
0.9954215884208679	22936.036523093335
0.9992615580558777	24144.713504785457
1.0031154155731201	25372.456664602283
1.0069829225540161	26677.01726634542
1.0108637809753418	28049.839924254356
1.0147579908370972	29476.11268559028
1.018665075302124	30961.658719780768
1.022585153579712	32518.684427469256
1.0265177488327026	34137.73738144953
1.0304628610610962	35825.90807521283
1.0344202518463135	37587.875433670786
1.0383895635604858	39421.86911413763
1.0423706769943237	41331.1219268074
1.0463634729385376	43318.77020811346
1.0503677129745483	45384.09779407721
1.0543830394744873	47550.08150250711
1.058409333229065	49781.05905645608
1.0624464750289917	52210.14492208349
1.0664942264556885	54655.06276832609
1.0705522298812866	57218.72722174474
1.0746204853057861	59889.3021504482
1.0786986351013184	62516.03256367412
1.0827864408493042	65430.40307728892
1.086883783340454	68227.9579593049
1.0909905433654785	71173.06145910926
1.0951062440872192	74071.83222682342
1.0992310047149658	75774.83528743459
1.10336434841156	78572.70614574566
1.1075061559677124	82623.12973777059
1.1116561889648438	85141.68591707206
1.115814208984375	73640.26698859736
1.1199802160263062	84917.45156328741
1.124153733253479	75642.88064851366
1.1283347606658936	93197.10038745673
1.1325229406356812	102765.71074637392
1.1367181539535522	103795.20794214772
1.1409201622009277	115811.1339312462
1.145128846168518	112559.28262775476
1.1493438482284546	103551.781499879
1.1535650491714478	126471.49365459189
1.1577922105789185	134623.0086866191
1.1620250940322876	138005.28460678319
1.1662636995315552	143917.54164337448
1.170507550239563	145503.8815622321
1.174756646156311	155510.93866005584
1.1790107488632202	163839.40146673413
1.1832695007324219	171244.16336393196
1.1875330209732056	177504.1381076563
1.191800832748413	185130.47442481466
1.1960728168487549	191538.89181075917
1.2003488540649414	198212.89229011742
1.2046287059783936	206493.04954038197
1.2089121341705322	214017.05237684317
1.2131990194320679	220231.24095854303
1.2174891233444214	229759.3259748453
1.2217823266983032	237721.00996961983
1.2260783910751343	246178.02053845464
1.230377197265625	254481.44097800585
1.2346785068511963	263599.4108884905
1.238982081413269	272653.3552064733
1.2432878017425537	281805.23909295286
1.2475954294204712	291072.97073502303
1.2519049644470215	300783.64492095803
1.256216049194336	310681.53989955323
1.2605286836624146	320772.8854261311
1.2648425102233887	331129.7581527894
1.2691574096679688	341249.17568450276
1.2734732627868652	351682.29789963004
1.2777899503707886	363359.27588192234
1.2821072340011597	372869.40113061754
1.2864248752593994	384701.69320463506
1.2907428741455078	395853.989873862
1.2950609922409058	398440.2609721638
1.2993791103363037	414710.2611493247
1.303696870803833	429668.8987128837
1.3080145120620728	444248.5413824553
1.3123314380645752	454397.3546386197
1.3166478872299194	467143.99251146684
1.3209635019302368	477059.1322574112
1.3252781629562378	495155.9537498746
1.3295916318893433	504692.05528121715
1.3339040279388428	499709.9095104542
1.3382149934768677	433206.0981964565
1.3425244092941284	374387.94161434047
1.3468321561813354	371907.80551586574
1.3511382341384888	386998.60295539786
1.3554422855377197	367415.9689403187
1.3597444295883179	361259.11863288557
1.3640443086624146	399227.20519264834
1.3683418035507202	412681.67986631225
1.3726370334625244	509068.6098233047
1.3769296407699585	518824.67528357165
1.381219506263733	530520.9039178669
1.3855066299438477	462465.2689139122
1.3897908926010132	521374.68258732115
1.3940720558166504	484788.99242681527
1.3983501195907593	515693.11876057595
1.4026249647140503	573821.2686523931
1.4068963527679443	591844.1509704874
1.4111642837524414	642142.7955441365
1.4154287576675415	570169.6864069928
1.419689416885376	535565.3508989485
1.4239463806152344	477657.99715587846
1.4281994104385376	688025.9524610535
1.4324485063552856	639057.5804018842
1.436693549156189	725474.8673822704
1.440934419631958	703609.0324488159
1.4451709985733032	757246.7002062976
1.449403166770935	761473.5797882206
1.453631043434143	783356.8102436783
1.4578542709350586	943219.9574438676
1.4620729684829712	929298.8936463733
1.4662868976593018	976131.7875911652
1.4704961776733398	1017890.9326287356
1.4747005701065063	995465.3438418342
1.4788999557495117	1074337.4264862393
1.4830944538116455	1060531.8601475246
1.4872838258743286	1131225.0635527144
1.491468071937561	1180496.223538009
1.4956470727920532	1193609.3028166215
1.4998208284378052	1221409.5667191392
1.5039892196655273	1260449.1057810418
1.5081522464752197	1301774.4349445407
1.5123097896575928	1331722.2322353043
1.5164618492126465	1360375.4960445245
1.5206083059310913	1371451.2892786257
1.5247491598129272	1413048.477799044
1.5288842916488647	1383847.3015074034
1.5330137014389038	1486462.5813699083
1.5371372699737549	1541437.1027282784
1.541254997253418	1561987.0559290955
1.545366883277893	1594693.793851767
1.5494728088378906	1629694.3527596174
1.5535727739334106	1658851.0944480926
1.5576666593551636	1687381.2407451412
1.561754584312439	1717154.7787661983
1.5658363103866577	1754791.4653889579
1.5699119567871094	1786466.5854528104
1.5739814043045044	1819796.1809966457
1.5780447721481323	1851988.8227240706
1.582101821899414	1882298.749083145
1.5861525535583496	1909054.4447320427
1.5901970863342285	1943356.7695081118
1.5942351818084717	1977362.494832863
1.5982669591903687	2010338.2685924217
1.6022924184799194	2043232.3832367405
1.606311559677124	2074349.706391081
1.6103241443634033	2107916.9208442345
1.6143304109573364	2140458.243803241
1.6183301210403442	2172931.098804161
1.6223233938217163	2180230.875804156
1.6263102293014526	2159287.7656808295
1.6302905082702637	2167545.4660835606
1.634264349937439	2216949.047366997
1.638231635093689	2322924.291021638
1.6421923637390137	2360807.2301856074
1.646146535873413	2383761.8836685675
1.6500942707061768	2404662.6654081885
1.6540353298187256	2403484.1194239627
1.6579699516296387	2415482.110014298
1.661897897720337	2485338.959235103
1.6658192873001099	2319473.5144970827
1.6697341203689575	2367856.5516887098
1.6736423969268799	2626660.104699486
1.677544116973877	2639794.435924929
1.6814392805099487	2633466.461130617
1.6853278875350952	2631430.607401452
1.6892099380493164	2772859.8194539277
1.6930854320526123	2557200.9438477317
1.696954369544983	2696522.5752866114
1.7008168697357178	2526730.5022390536
1.7046726942062378	2565375.148657066
1.708522081375122	2757434.794155197
1.712364912033081	2952472.627702843
1.7162011861801147	3009990.590494092
1.7200311422348022	2991512.7543915533
1.723854422569275	2820886.734392392
1.7276713848114014	2853148.885929602
1.731481909751892	2875059.234041293
1.7352858781814575	2827317.8130464675
1.7390835285186768	3051125.4720596774
1.7428747415542603	3070461.4270805256
1.7466596364974976	3227191.244447171
1.7504380941390991	3264378.2440664098
1.7542102336883545	3086718.859475056
1.7579760551452637	3045849.1812413535
1.7617355585098267	3065542.8556920756
1.7654887437820435	2966748.213616786
1.7692357301712036	2917785.3006224222
1.7729763984680176	2978776.276544179
1.776710867881775	2596216.1503770454
1.7804391384124756	2945573.110013861
1.7841613292694092	2651305.1005959897
1.7878772020339966	2684372.357725222
1.7915871143341064	2423095.6299203574
1.7952908277511597	2852953.771813484
1.7989884614944458	2833449.535705707
1.8026801347732544	2549555.8391460245
1.806365728378296	2473231.1151983244
1.8100452423095703	2052352.2566761535
1.8137187957763672	2705258.7049726075
1.817386507987976	3194600.3578083357
1.8210482597351074	3152329.5282442835
1.8247040510177612	3576127.887271172
1.828354001045227	3409872.2660502438
1.8319982290267944	3006543.1765173348
1.8356364965438843	3220261.9217069303
1.8392690420150757	3113030.226193177
1.8428958654403687	3207086.9701391584
1.8465168476104736	2994717.7023407645
1.8501322269439697	3042943.0547826495
1.8537418842315674	3666246.6333803856
1.8573459386825562	3126886.851885248
1.860944390296936	2386951.4307986456
1.864537239074707	2305966.2469613138
1.8681244850158691	2347055.7894050875
1.871706247329712	2549252.389466463
1.8752825260162354	2870810.412006433
1.8788533210754395	3731174.975615497
1.8824186325073242	3509537.3232719917
1.8859784603118896	3180848.327045217
1.8895330429077148	3338996.596858465
1.8930821418762207	3415317.8706102767
1.8966259956359863	3610720.8602732145
1.9001644849777222	3359075.517344614
1.9036977291107178	3543458.7309808773
1.9072256088256836	4245744.06176836
1.9107483625411987	4097583.3609981653
1.9142658710479736	3422128.0709938584
1.9177782535552979	4331726.8821169175
1.9212853908538818	3782989.273002154
1.9247875213623047	3424056.9548671125
1.9282845258712769	4109817.47177161
1.9317764043807983	3903355.17344636
1.9352631568908691	4175589.9516955116
1.9387450218200684	2643191.9534430895
1.942221760749817	3170607.5187322325
1.9456936120986938	3341762.634321464
1.9491604566574097	3348773.423260059
1.952622413635254	4024604.4927124684
1.956079363822937	3006658.7811262533
1.959531545639038	2822555.4666175647
1.962978720664978	3598793.862691998
1.966421127319336	4628898.557558142
1.9698586463928223	4389742.91426189
1.9732913970947266	4665671.913062532
1.9767193794250488	4578435.445265867
1.9801424741744995	4658607.878879066
1.9835609197616577	4810156.105949845
1.9869745969772339	4951976.011404237
1.990383505821228	4271607.118008249
1.9937876462936401	4821699.301285468
1.9971871376037598	5076531.827253664
2.000581979751587	4701570.270709167
2.003972291946411	5049202.697489718
2.007357597351074	5419399.000248073
2.0107386112213135	5673248.994324848
2.0141148567199707	5944139.169898209
2.017486572265625	5563054.906312098
2.0208535194396973	5995926.411762347
2.0242159366607666	6244842.621968276
2.027573823928833	6025421.779757443
2.0309269428253174	5870536.117806542
2.034275770187378	6323938.5889494885
2.0376198291778564	6467119.5210480075
2.040959596633911	6493917.723245397
2.044294595718384	6533226.7714384
2.0476250648498535	6281742.278247066
2.0509510040283203	6236658.919549964
2.054272413253784	6553663.586018243
2.057589530944824	6614067.161254208
2.0609018802642822	6474487.222511456
2.0642096996307373	6576550.338256543
2.0675129890441895	6702618.819534783
2.0708119869232178	6830509.0267188875
2.074106216430664	6933649.478757802
2.0773961544036865	6986072.17493833
2.080681324005127	7081240.286700219
2.0839622020721436	7088083.558981623
2.087238311767578	7095583.316803384
2.090510129928589	7154731.227712534
2.0937774181365967	7207739.1405774
2.0970399379730225	7257920.171627433
2.1002981662750244	7275157.651321701
2.1035518646240234	7344472.888056224
2.1068007946014404	7360039.9887766205
2.1100454330444336	7224777.2385902945
2.1132853031158447	7083446.193124494
2.116520881652832	7241734.571727438
2.1197516918182373	7461966.061566669
2.1229779720306396	7572933.704445491
2.12619948387146	7612339.213691475
2.1294167041778564	7642079.961360993
2.132629156112671	7683578.481569736
2.1358368396759033	7735887.297967405
2.139039993286133	7772941.29741626
2.1422386169433594	7790883.297126686
2.145432472229004	7811693.276691318
2.1486217975616455	7770758.776395322
2.151806354522705	7629638.715310385
2.1549863815307617	7407400.192996952
2.1581614017486572	7694889.268199808
2.16133189201355	7861382.328194133
2.1644976139068604	7973348.313588686
2.167658567428589	8055719.3016465595
2.1708147525787354	8049354.447516382
2.173966407775879	7995895.942460922
2.1771130561828613	8102203.635219757
2.1802549362182617	8195031.215783297
2.183391809463501	8215753.037812022
2.1865241527557373	8241509.04947169
2.1896514892578125	8272576.777125257
2.1927738189697266	8304689.776070757
2.1958916187286377	8140472.125560722
2.1990041732788086	7565654.492376392
2.2021119594573975	7496639.829712793
2.2052149772644043	7972844.282141521
2.208312749862671	8388589.939727602
2.2114057540893555	8490325.506056808
2.214493751525879	8247279.851622103
2.217576742172241	7990077.19924352
2.2206547260284424	8154645.069561105
2.2237277030944824	8020168.546499401
2.2267956733703613	7841835.0698966095
2.2298583984375	7983125.519925444
2.2329163551330566	8028411.484916728
2.235969066619873	8242837.05589469
2.2390167713165283	7928493.94679001
2.2420592308044434	7430959.085049704
2.2450966835021973	7814308.204203092
2.248128890991211	7624996.869974478
2.2511560916900635	7343217.406583206
2.254178285598755	6944348.990531913
2.257194995880127	7133717.42518154
2.260206699371338	7645481.919728101
2.2632133960723877	7740056.809579298
2.266214609146118	7930965.838200589
2.2692108154296875	7947008.18540226
2.2722020149230957	8085491.529439512
2.2751877307891846	7805622.348503654
2.278168201446533	7834025.744200275
2.2811436653137207	8549345.992228866
2.284113883972168	7645241.909997795
2.287078857421875	6560697.889020737
2.290038824081421	7197024.68028597
2.2929933071136475	6903517.841608308
2.295942783355713	6525946.266556495
2.298887014389038	6778408.086498366
2.301826238632202	7669481.629320905
2.304760217666626	8382401.569352063
2.3076889514923096	8638848.165378759
2.310612440109253	8743820.008305727
2.3135311603546143	8207334.639717026
2.3164443969726562	6644072.504561097
2.319352865219116	6774094.124854858
2.322256088256836	7090312.929325229
2.3251543045043945	6643823.749852566
2.328047275543213	6806585.293985432
2.330935478210449	7039480.903129893
2.3338186740875244	7365556.870783113
2.3366971015930176	7557380.552596247
2.3395702838897705	7483567.927701001
2.3424389362335205	7311919.047571132
2.3453025817871094	6844733.01335184
2.348161458969116	6320663.3580994485
2.351015567779541	6626169.579015267
2.353865146636963	7032427.416252246
2.3567099571228027	6971462.113575361
2.3595502376556396	7309401.154103373
2.3623859882354736	8177607.585022464
2.3652172088623047	8875539.614733847
2.368043899536133	7682462.324886332
2.370866537094116	6152352.7281867815
2.3736846446990967	5643537.243023612
2.3764986991882324	5862343.790769947
2.3793084621429443	7038036.763555418
2.3821144104003906	7818606.505073784
2.384916305541992	7578637.064356182
2.387714147567749	7647789.927672099
2.3905084133148193	8990495.296937857
2.393299102783203	9501225.515001357
2.3960859775543213	8670005.048602669
2.398869514465332	7319343.206268042
2.4016497135162354	6339043.41756511
2.4044265747070312	6451032.312814
2.407200336456299	7403026.460347522
2.409970998764038	8016283.512092537
2.4127390384674072	7687576.322164015
2.415503978729248	6598719.521043231
2.418266534805298	6086452.2267587045
2.4210267066955566	6346933.385545646
2.4237842559814453	6711400.8564506695
2.426539897918701	6486558.28789593
2.429293394088745	6451396.494962161
2.4320452213287354	7060029.644458815
2.4347951412200928	7031389.515527094
2.4375438690185547	6772432.208909224
2.440291166305542	7046692.769151488
2.443037271499634	7324896.624183276
2.445782423019409	7644837.578582708
2.4485268592834473	7567275.908638108
2.451270818710327	7091464.9677434685
2.454014539718628	7118996.027193427
2.4567582607269287	7256330.488998226
2.4595019817352295	7559669.372728525
2.4622461795806885	8230506.402403924
2.4649908542633057	8269979.210683581
2.4677364826202393	7182640.925987187
2.4704833030700684	6809166.117444984
2.473231554031372	7239471.602489191
2.4759814739227295	7454703.634762682
2.4787333011627197	6829205.349198873
2.481487512588501	5965269.80235683
2.4842441082000732	6047674.917307219
