#wavelength	surface flux
0.676892	3175.1169514151998
0.678297	3277.7647337748813
0.679702	3389.1545088597386
0.681109	3500.063192155488
0.682517	3610.6940053665303
0.683926	3722.499891470391
0.685337	3842.7234447833644
0.686749	3953.1687037640763
0.688164	4065.632759870608
0.689581	4150.632051884738
0.691	4250.869615514649
0.692422	4450.6502234646005
0.693847	4539.4570016613025
0.695274	4778.214775344562
0.696705	4929.159315776923
0.698139	5064.508295420704
0.699576	5224.824557881395
0.701017	5437.76767927686
0.702461	5618.063674798392
0.70391	5810.802759200141
0.705362	5997.58331960613
0.706819	6185.775817704663
0.70828	6379.463761578636
0.709745	6577.218475292243
0.711216	6788.51838984911
0.71269	6999.894361356026
0.71417	7217.173364342299
0.715655	7433.975844527578
0.717145	7651.973269475027
0.71864	7912.970538981969
0.72014	8162.875706989756
0.721647	8413.09395647756
0.723158	8676.842291409544
0.724676	8950.245738856562
0.726199	9229.135582876557
0.727728	9514.18719144078
0.729264	9807.267238896942
0.730805	10102.354273801147
0.732353	10423.40669496388
0.733907	10674.251773522306
0.735468	10948.154529888236
0.737035	11328.212201010905
0.738609	11630.883661930724
0.74019	11992.622924015435
0.741777	12303.627600054599
0.743372	12726.372677383211
0.744973	13050.885552933094
0.746582	13511.057923324037
0.748197	13973.992622842523
0.74982	14460.75586789134
0.751451	14884.611740916785
0.753088	15381.171446708118
0.754734	15873.07159327854
0.756386	16373.257995107717
0.758047	16850.31595776878
0.759715	17331.544412527826
0.76139	17764.416289140427
0.763074	18000.193859616906
0.764765	16890.447968650406
0.766464	11843.346459355656
0.768172	15561.714715153961
0.769887	13778.917292020948
0.77161	18811.22097558627
0.773341	21719.00599991007
0.775081	22720.589403419817
0.776829	23535.05914957702
0.778585	24146.404685090452
0.780349	23723.788287348376
0.782121	25801.484598964744
0.783902	26701.15307707701
0.785691	27524.431972150982
0.787489	28352.07317179432
0.789295	29241.745306467335
0.79111	30122.140776788197
0.792933	30943.74299517809
0.794764	30511.058637215534
0.796604	32759.57361692626
0.798453	33933.30331077089
0.80031	34934.469701906564
0.802176	36019.08428783294
0.804051	37170.30648349802
0.805934	38293.70822534043
0.807826	39504.77492728131
0.809727	40664.642466480465
0.811636	41848.83253743317
0.813554	43174.753199864215
0.81548	44514.34030284034
0.817416	45853.864494856534
0.81936	47239.6506661761
0.821313	48768.51942340215
0.823274	50119.66435763773
0.825244	51714.810142197806
0.827223	53192.13244471905
0.829211	54943.39747683345
0.831208	56539.170919790464
0.833213	58313.53602534117
0.835227	60074.763248847026
0.837249	61857.45241398318
0.83928	63675.660765426495
0.841321	65634.57980716146
0.843369	67609.37757546658
0.845427	69596.93829754386
0.847493	71652.41152920648
0.849567	73828.13359380729
0.851651	76036.43069831871
0.853742	78115.2375016806
0.855843	80539.341175364
0.857952	82881.71571393558
0.86007	85215.39507521875
0.862196	87734.95163853296
0.864331	90098.43721140228
0.866474	92926.19577358189
0.868626	95620.09145407012
0.870786	98523.75552355383
0.872955	101524.15958212368
0.875132	104479.84754399418
0.877317	107617.62365304877
0.879511	110810.92024887446
0.881713	114012.36800314345
0.883923	117230.54460389327
0.886142	120740.58731129549
0.888369	124237.17967442321
0.890604	127407.26209418131
0.892847	130732.51534453026
0.895099	134942.73863578914
0.897358	137090.22294521448
0.899626	141608.0105449019
0.901901	146835.42141029963
0.904185	151109.75613348864
0.906476	155434.66776334145
0.908776	159784.3896239757
0.911083	164418.80553589994
0.913398	168997.97761816182
0.915721	173343.76015541414
0.918051	178114.91252102368
0.92039	182587.92062580632
0.922736	188427.93664020015
0.925089	192258.20466354484
0.927451	195801.41348118946
0.929819	198427.98724887185
0.932195	200828.3275801543
0.934579	199501.9551691204
0.93697	207744.59083343385
0.939369	224548.87774748539
0.941774	232484.492348433
0.944187	239705.44884223733
0.946607	236342.1855693782
0.949035	242114.82835096604
0.951469	254585.55546359968
0.953911	262558.91252843983
0.956359	259992.3105301941
0.958814	276388.1447405289
0.961277	280941.3414095964
0.963746	292992.833765949
0.966222	300410.4013729139
0.968705	311186.01210845925
0.971194	316916.0071053406
0.97369	323697.1667155417
0.976193	334814.36596537806
0.978702	344581.81609366444
0.981217	353212.2936830033
0.983739	362759.3453648442
0.986268	371390.3909139003
0.988802	380867.0915661212
0.991343	391835.4027784294
0.99389	401315.87145932874
0.996444	412650.3242808292
0.999003	422539.97725520097
1.00157	432445.1058523378
1.00414	443273.29727453995
1.00672	454340.99367856956
1.0093	465249.83633433125
1.01189	476849.8399208359
1.01448	488478.9259801915
1.01708	500223.67151327967
1.01969	512390.24613347935
1.0223	524683.579246642
1.02492	537159.857177003
1.02754	549997.9887942777
1.03017	562968.8660739686
1.0328	576101.905179464
1.03544	589647.7806260744
1.03808	603343.8506695314
1.04073	617354.8335643017
1.04339	631578.0972379174
1.04604	645958.7008124305
1.04871	660551.8495012847
1.05138	675612.1674990301
1.05405	690953.5940413129
1.05673	706467.6682706019
1.05941	721831.5179490199
1.0621	739262.3494090214
1.06479	756982.0709082887
1.06749	772971.972328527
1.07019	790430.0317395085
1.07289	807893.4333368329
1.0756	825696.0236546918
1.07832	842764.8485584517
1.08104	861651.1119010969
1.08376	880040.0855449827
1.08649	898111.6257056074
1.08922	916695.6237271881
1.09195	934804.9858604239
1.09469	952869.1853692913
1.09743	958421.6376462767
1.10018	968742.8235144191
1.10293	994098.9382256558
1.10568	1028552.9069455462
1.10844	1050812.0061336816
1.1112	1067804.9446600385
1.11396	1005866.8082253375
1.11673	1027998.0043117077
1.1195	1077162.1054280244
1.12228	1021285.6705458051
1.12505	997827.630557167
1.12783	1110219.1346261878
1.13062	1214821.1828439704
1.13341	1203455.6753610629
1.1362	1200258.2183977352
1.13899	1291869.346654761
1.14178	1315144.182924379
1.14458	1285544.7170205635
1.14738	1233375.8034676767
1.15019	1289272.2172532193
1.153	1427284.618146202
1.1558	1421159.4505315223
1.15862	1492456.9588511537
1.16143	1509790.4666661238
1.16425	1447007.7594842687
1.16707	1566846.5110149598
1.16989	1553482.935454402
1.17271	1600295.65650279
1.17554	1648106.7891834353
1.17837	1683936.1344072514
1.1812	1716259.5955500575
1.18403	1750572.7185135505
1.18686	1773000.1008418067
1.1897	1815243.3611156824
1.19253	1851400.856327342
1.19537	1882695.3396678697
1.19822	1899466.6891701594
1.20106	1946992.4646858328
1.2039	1979654.350431538
1.20675	2017320.0322248917
1.2096	2049890.4632091918
1.21245	2075366.1717561297
1.2153	2118577.655404336
1.21815	2157322.7994138235
1.221	2191808.14191666
1.22385	2226376.346644483
1.22671	2264869.4659669376
1.22957	2300138.638442637
1.23242	2335278.57760841
1.23528	2376624.6637647087
1.23814	2415085.650459841
1.241	2451536.064552266
1.24387	2490341.600532473
1.24673	2527827.3997213077
1.24959	2567505.9393619783
1.25245	2606861.931475705
1.25532	2645709.171085714
1.25818	2687705.973638895
1.26105	2727920.659232135
1.26392	2770449.7470538355
1.26678	2810443.23752307
1.26965	2847504.1227705027
1.27252	2886431.1378050745
1.27538	2933854.178588228
1.27825	2978160.4854870685
1.28112	3015916.862796177
1.28399	3046897.6911376184
1.28686	3103281.919979673
1.28973	3144570.8765250677
1.2926	3177758.701950041
1.29546	3167853.450548071
1.29833	3230806.558242127
1.3012	3306683.3977689985
1.30407	3361073.286933744
1.30694	3410541.415543056
1.30981	3450125.0108333984
1.31267	3487413.3592913225
1.31554	3524222.126966809
1.31841	3546896.883561996
1.32128	3622908.0696983333
1.32414	3667130.8116820958
1.32701	3724978.061271626
1.32987	3752504.5633491096
1.33274	3710751.7016444295
1.3356	3720454.627860919
1.33847	3436355.345878154
1.34133	3162868.1767815906
1.34419	2636252.1829987555
1.34705	3036724.794179979
1.34991	3047560.429370858
1.35277	3445992.8253442002
1.35563	3115121.04919309
1.35849	3097597.938828924
1.36135	3606556.715042862
1.3642	3381736.0362762227
1.36706	3694490.95626462
1.36991	3655024.87896614
1.37277	3976818.5109377643
1.37562	3698193.966838253
1.37847	4446052.974306829
1.38132	4259864.292086443
1.38417	3994057.9584342395
1.38701	3430937.8991825664
1.38986	3940250.032250058
1.39271	4036795.4879631656
1.39555	3408831.998473776
1.39839	3957955.7340345806
1.40123	3983943.5299860165
1.40407	4491301.965587273
1.40691	4407039.079697845
1.40974	4755290.84136153
1.41258	4494016.596001143
1.41541	4126400.44759212
1.41824	3715056.0133341225
1.42107	4125462.171380192
1.4239	3750250.2367611886
1.42673	4677627.059596025
1.42955	4744087.720043158
1.43237	4614231.27536145
1.43519	5041315.868688073
1.43801	5213852.180159311
1.44083	5007312.813150228
1.44365	5138475.016401571
1.44646	5181250.682779042
1.44927	5160255.857897286
1.45208	5203264.942698938
1.45489	4533608.522467658
1.45769	5599958.497905887
1.4605	5969303.861971906
1.4633	5700858.101541067
1.4661	5869530.959206643
1.4689	5901174.5489578005
1.47169	6173022.200515333
1.47449	5980454.384989002
1.47728	6274554.832741166
1.48007	6363181.849784809
1.48286	6254958.6739429105
1.48564	6380003.865890989
1.48842	6622473.737310029
1.4912	6783713.322656014
1.49398	6847567.736050641
1.49676	6788797.204247895
1.49953	6851805.275109398
1.5023	6871905.258407908
1.50507	7110234.624877164
1.50784	7164953.985407242
1.51061	7121163.143714339
1.51337	7301178.775156205
1.51613	7381726.046061882
1.51888	7398502.559784647
1.52164	7471910.803950387
1.52439	7507676.785765396
1.52714	7307296.685710759
1.52989	7438211.6935941605
1.53263	7711174.940116884
1.53538	7915443.517128496
1.53812	8011819.185465935
1.54086	8062268.774348302
1.54359	8124313.066655139
1.54632	8212440.664883623
1.54905	8276453.326743978
1.55178	8369926.28942643
1.5545	8421693.995313123
1.55723	8468983.874422075
1.55995	8527685.428183513
1.56266	8601140.690924887
1.56538	8698387.444392467
1.56809	8795520.965044899
1.5708	8837158.26928878
1.57351	8919989.37690275
1.57621	9010157.845211515
1.57891	9053005.910011094
1.58161	9124376.930683598
1.5843	9199483.572333058
1.587	9244739.872576002
1.58969	9321480.207213864
1.59238	9396311.199607939
1.59506	9471770.974906448
1.59774	9538535.314275235
1.60042	9609745.107743982
1.6031	9680939.77199655
1.60577	9746532.555171147
1.60844	9805708.455475217
1.61111	9874727.39218459
1.61378	9945847.065179752
1.61644	10014617.389234323
1.6191	10079189.126361238
1.62176	10115093.519479822
1.62441	10112777.627838619
1.62707	10152056.885830022
1.62971	10222834.049878437
1.63236	10253969.713513924
1.635	10375390.870269902
1.63764	10524532.17509436
1.64028	10593856.786328908
1.64292	10649022.707089586
1.64555	10696191.727332432
1.64818	10766303.669629421
1.65081	10841595.82490688
1.65343	10882137.43626131
1.65605	10821426.555405982
1.65867	10946812.178478306
1.66128	11054926.940844536
1.6639	11086340.041419625
1.66651	10688582.627874356
1.66911	10814295.626859332
1.67172	11308209.052484987
1.67432	11435704.698524944
1.67692	11449234.027752949
1.67951	11527103.644780815
1.68211	11472821.59105157
1.6847	11496333.125492055
1.68728	11749180.156322507
1.68987	11817760.405964168
1.69245	11617304.440502023
1.69503	11601317.972780704
1.6976	11871095.252737733
1.70018	11724180.045483874
1.70275	11741167.883806927
1.70531	11838445.890361467
1.70788	12032863.29379665
1.71044	12269521.158462638
1.713	12390352.414382871
1.71556	12461677.685046656
1.71811	12508236.48156807
1.72066	12448946.927149413
1.72321	12255587.864683086
1.72575	12247077.79365239
1.7283	12278677.367113095
1.73084	12328068.4793745
1.73337	12298029.28371539
1.73591	11957975.473323734
1.73844	12330886.046856241
1.74097	12328712.466727978
1.74349	12451135.560543323
1.74602	12939282.123500068
1.74854	13192950.281617431
1.75105	13177008.713241369
1.75357	13003673.824599577
1.75608	12808952.265027948
1.75859	12885806.547570433
1.7611	12950178.676765785
1.7636	12911509.30004838
1.7661	12049490.49110021
1.7686	11696273.96450087
1.7711	12989296.79086288
1.77359	12353668.870194443
1.77608	11419772.399351144
1.77857	12534759.83304974
1.78105	12800262.97932668
1.78354	12362314.222200114
1.78602	12446240.396123478
1.78849	11713979.982579436
1.79097	10410149.699252618
1.79344	11569312.132015755
1.79591	12039212.599549603
1.79837	12340135.200961111
1.80084	11544185.834458867
1.8033	12454002.70264864
1.80576	12185522.192245716
1.80821	10036854.267880017
1.81067	10215098.893300118
1.81312	12004736.906861624
1.81557	13540844.539808508
1.81801	13403393.668382963
1.82046	13332161.874766052
1.8229	14288508.03483602
1.82533	14796262.632469086
1.82777	14831864.230368007
1.8302	14208848.842306986
1.83263	13098703.626157328
1.83506	14073751.223588701
1.83749	14388917.176529799
1.83991	13714945.211412547
1.84233	14225155.62623833
1.84475	14156436.674019687
1.84716	12773726.699761242
1.84957	13012770.109880595
1.85198	14382172.20634028
1.85439	14838980.6056019
1.8568	13624155.150063207
1.8592	11884659.108470256
1.8616	10225915.979968647
1.864	11103675.534735166
1.86639	11812550.153689995
1.86878	10822311.39085277
1.87118	11602995.76007978
1.87356	11300606.614456771
1.87595	13189302.595422959
1.87833	15105437.818470726
1.88071	14821298.676608702
1.88309	13870193.879038848
1.88547	12952434.048084896
1.88784	13492429.113670783
1.89021	13920368.32059744
1.89258	14058687.552849593
1.89494	14211765.216949096
1.89731	14965275.060083706
1.89967	14503699.773853578
1.90203	13236255.435663609
1.90439	14356534.481486613
1.90674	16044676.686068036
1.90909	16450595.119014287
1.91144	15923088.819096383
1.91379	15272532.168427506
1.91613	15660033.421983885
1.91848	16587895.304876357
1.92082	15496994.516841665
1.92315	13270361.03118919
1.92549	14621127.441856435
1.92782	16048855.361467797
1.93015	15703752.276549235
1.93248	15993446.0940034
1.93481	16095612.439898727
1.93713	13540756.934393682
1.93945	11728272.259010652
1.94177	12742151.665814826
1.94409	12873180.96504858
1.94641	13014503.232868727
1.94872	13261819.865233984
1.95103	14309215.771196153
1.95334	14666381.031615473
1.95564	12236437.40631054
1.95795	11718334.639928674
1.96025	13161569.87063507
1.96255	15053778.968505796
1.96484	16617902.845575187
1.96714	17070262.03333486
1.96943	16759030.3333984
1.97172	17167695.196740128
1.97401	17314827.500536773
1.97629	16707752.725253101
1.97858	16969416.018973693
1.98086	17112335.58850244
1.98314	17082988.189092
1.98541	17169824.1750618
1.98769	16297045.770818295
1.98996	15080562.933648948
1.99223	15642640.946448162
1.9945	17095240.306447957
1.99677	17576730.772805177
1.99903	16931572.332669836
2.00129	16303591.74416095
2.00355	16737605.026920564
2.00581	17766902.85484692
2.00806	18430926.388256226
2.01031	18791711.034154486
2.01256	19058560.08141054
2.01481	18898776.84154579
2.01706	18203877.775377665
2.0193	18280076.36733172
2.02154	19124619.80069882
2.02378	19372476.94427183
2.02602	19008040.439418647
2.02825	18567423.430113863
2.03049	18324702.448728185
2.03272	18894862.586292848
2.03494	19607748.548442874
2.03717	19802496.197854087
2.03939	19874837.207902234
2.04162	19924580.488067724
2.04384	19931680.00356439
2.04605	19694119.63415916
2.04827	19085183.891983613
2.05048	19030893.100237027
2.05269	19570649.8097957
2.0549	19928365.946415514
2.05711	19985924.187548567
2.05931	19667634.67425741
2.06151	19540312.096671775
2.06371	19859953.16819154
2.06591	20142125.012422137
2.06811	20336414.958793085
2.0703	20505440.7258922
2.07249	20653416.191245064
2.07468	20756713.821291085
2.07686	20831944.837970804
2.07905	20913954.663619585
2.08123	20977448.847516052
2.08341	20965001.80836513
2.08559	20892454.013716247
2.08776	20921506.24131854
2.08994	21031976.623434648
2.09211	21104736.18306981
2.09428	21180841.03439767
2.09645	21234360.23624681
2.09861	21231909.444443256
2.10077	21271483.630577616
2.10293	21376805.30101773
2.10509	21450123.616755363
2.10725	21417426.26613596
2.1094	21265305.71188499
2.11155	21049816.77076963
2.1137	20992473.37931566
2.11585	21185320.518434223
2.11799	21447684.0562951
2.12013	21662628.700530395
2.12227	21785782.84329694
2.12441	21837656.95493685
2.12655	21868130.310946982
2.12868	21890747.580261193
2.13081	21921390.40342749
2.13294	21979210.018636573
2.13507	22048774.18646649
2.13719	22102234.279049
2.13931	22132879.1092417
2.14143	22147648.930997364
2.14355	22171613.97044073
2.14567	22209752.088403415
2.14778	22224229.39681984
2.14989	22213326.516415842
2.152	22152718.33208681
2.1541	22025951.00146451
2.15621	22057296.272314914
2.15831	22265601.72804427
2.16041	22380243.61414155
2.16251	22433363.982051928
2.1646	22485982.151450317
2.1667	22547850.091868054
2.16879	22604508.630626217
2.17087	22588777.02319896
2.17296	22550848.106766973
2.17504	22613404.889726285
2.17713	22734111.809670158
2.1792	22812189.759588715
2.18128	22859874.22712586
2.18336	22892659.231902104
2.18543	22912860.101617366
2.1875	22921223.144779608
2.18957	22939745.957337167
2.19163	22980480.849708855
2.1937	23001994.620231934
2.19576	22931801.17270177
2.19782	22701701.912573032
2.19987	22528796.7457188
2.20193	22593541.691232707
2.20398	22794116.577979274
2.20603	23024712.30804418
2.20808	23202874.712706976
2.21012	23302144.12483532
2.21217	23295379.21178504
2.21421	23131418.39490347
2.21625	22954246.791832995
2.21828	22958191.395087343
2.22032	23050854.52869371
2.22235	23018588.777343325
2.22438	22873975.956075516
2.22641	22821188.62457231
2.22843	22972112.8023049
2.23046	23161242.23205199
2.23248	23246156.03931267
2.2345	23301274.83497613
2.23651	23320577.91881349
2.23853	23172298.32582235
2.24054	22898284.04612301
2.24255	22885983.043579053
2.24456	23127682.522166137
2.24657	23136969.744812112
2.24857	22935340.184543476
2.25057	22659583.174960304
2.25257	22239036.913592115
2.25457	21605859.339489993
2.25656	21686549.64791393
2.25856	22471733.676386867
2.26055	23001074.117066544
2.26254	23259481.08215801
2.26453	23449055.30544404
2.26651	23493522.855745204
2.2685	23396216.467623267
2.27048	23298852.417154226
2.27246	23327452.37653389
2.27443	23315510.191553358
2.27641	23290070.791033115
2.27838	23485913.35345489
2.28036	23814095.263278082
2.28233	23607991.342166886
2.28429	22320813.981362864
2.28626	20651085.10501913
2.28823	20515915.097375173
2.29019	21436057.17314514
2.29215	21484255.67885517
2.29411	20967325.10873207
2.29607	21080473.498340096
2.29802	21981563.603043716
2.29998	22868607.41621161
2.30193	23521352.81436079
2.30388	23846245.544957656
2.30583	24043813.99907264
2.30778	24201059.46401517
2.30972	24317071.31522944
2.31167	24265633.025699783
2.31361	23606691.964587532
2.31555	22310570.117491473
2.31749	21619190.640064847
2.31943	21779116.60742043
2.32137	21578588.04512398
2.32331	20746917.245331712
2.32524	20579671.445432425
2.32718	21446887.184011165
2.32911	21908936.938609198
2.33104	21631239.989981316
2.33297	21205320.043144055
2.3349	21424612.332219455
2.33683	22207964.101834323
2.33876	22897366.791700322
2.34068	23125635.912309077
2.34261	22790769.796191283
2.34453	21765020.72494362
2.34646	20433889.141544454
2.34838	20307201.493699122
2.3503	21123607.888859957
2.35223	21923022.571200408
2.35415	21660978.883690502
2.35607	20592606.994124915
2.35799	20001657.63274733
2.35991	20304256.217589684
2.36183	21249946.99639137
2.36375	21803476.992448732
2.36566	20797905.22253231
2.36758	18922424.972393334
2.3695	18102828.246608466
2.37142	18941729.653852534
2.37334	19588164.37851266
2.37526	19984307.863615993
2.37718	19796538.123212967
2.3791	19179332.79254814
2.38101	19094246.34431445
2.38293	20459767.89867115
2.38485	21680567.80602035
2.38677	22075626.977685872
2.3887	22746886.6129728
2.39062	23864226.045542262
2.39254	24453093.48757835
2.39446	24594086.07927314
2.39639	24234862.215086844
2.39831	23157820.65165083
2.40024	21709819.87950738
2.40216	20918737.657605294
2.40409	21106408.06888955
2.40602	21736734.294008404
2.40795	22371356.389575478
2.40989	22786532.219771218
2.41182	22473194.366356224
2.41376	21048799.00414908
2.4157	19884291.03629405
2.41764	20174937.388674524
2.41958	21247709.968492884
2.42152	21552120.70683216
