#wavelength	surface flux
0.7	631.9048397137989
0.7001166666666666	634.2641216146384
0.7002333527777778	636.4811020915379
0.700350058336574	638.3418640247945
0.7004667833462966	640.3466063567391
0.7005835278101878	642.4591396651598
0.7007002917314895	644.4557447663389
0.7008170751134447	646.4430422131302
0.7009338779592968	648.485926312301
0.7010507002722901	650.4942536781093
0.7011675420556689	652.4573960966579
0.701284403312678	654.4398029556259
0.7014012840465635	656.4279774599617
0.7015181842605713	658.2502297470129
0.701635103957948	660.0221860471455
0.701752043141941	661.6764868287435
0.701869001815798	663.7451507259875
0.7019859799827672	666.1020016855997
0.7021029776460976	667.9254269409521
0.7022199948090387	669.7236379363109
0.7023370314748403	671.7510798221731
0.7024540876467528	674.0113731948682
0.702571163328027	676.542779361596
0.7026882585219152	678.7573775111936
0.7028053732316688	680.8581699637385
0.7029225074605406	682.7407290265656
0.7030396612117841	684.4737529240405
0.7031568344886527	685.9142327223506
0.7032740272944008	688.1417715928201
0.7033912396322832	690.8285544232072
0.7035084715055552	693.2123926196954
0.7036257229174727	695.4808576300948
0.7037429938712924	697.4249072667865
0.7038602843702709	699.524175527059
0.7039775944176659	701.7702895812102
0.7040949240167356	703.9338608975462
0.7042122731707383	706.0784591304275
0.7043296418829335	708.2254791862433
0.7044470301565806	710.3257285852235
0.70456443799494	712.3558110436848
0.7046818654012724	714.5332487842838
0.7047993123788394	716.7749236475937
0.7049167789309024	718.6788394409309
0.7050342650607243	720.7587271619041
0.7051517707715678	723.2704900023818
0.7052692960666963	725.6073329711621
0.705386840949374	727.8225115898898
0.7055044054228656	729.9108129908287
0.7056219894904361	732.0422434253505
0.7057395931553511	734.4297857021552
0.705857216420877	736.7800393454988
0.7059748592902804	739.0908900830409
0.7060925217668288	741.3331078109862
0.70621020385379	743.556728176864
0.7063279055544321	745.7784667028337
0.7064456268720246	748.0049359812625
0.7065633678098366	750.2386673983934
0.7066811283711383	752.4710168725019
0.7067989085592001	754.7029461782331
0.7069167083772933	756.8008131997186
0.7070345278286895	758.7405341852206
0.707152366916661	760.3012087405434
0.7072702256444803	761.6701935603317
0.7073881040154211	762.9091879178156
0.7075060020327569	766.4051141459108
0.7076239196997625	769.9705879709874
0.7077418570197124	772.8121434558678
0.7078598139958823	775.3958486761461
0.7079777906315483	777.7288355646093
0.7080957869299869	779.9731994794208
0.7082138028944751	782.2347981937089
0.7083318385282908	784.7799693578073
0.7084498938347124	787.2522017969986
0.708567968817018	789.6246062742758
0.7086860634784875	791.5961190460309
0.7088041778224007	793.3812762754361
0.7089223118520377	794.1491114543045
0.7090404655706796	796.1066530162816
0.709158638981608	800.348723052336
0.709276832088105	803.1353564380315
0.7093950448934531	805.1384377897773
0.7095132774009353	804.368675642633
0.7096315296138355	805.211721014205
0.7097498015354378	810.8258153248561
0.7098680931690269	814.5570069748338
0.7099864045178884	816.8998184121759
0.7101047355853081	819.8021856787428
0.7102230863745722	822.7159092116299
0.7103414568889679	825.3753778863713
0.7104598471317828	828.017520182735
0.7105782571063047	830.6427175016745
0.7106966868158224	832.7956950759718
0.710815136263625	834.942424462223
0.7109336054530023	837.7701429567551
0.7110520943872445	840.5442217189935
0.7111706030696424	843.2497865800747
0.7112891315034873	845.9179849402344
0.7114076796920712	848.5709882875035
0.7115262476386865	851.1787363038217
0.7116448353466263	853.6995718678697
0.711763442819184	856.0771211578618
0.711882070059654	858.7264928126586
0.7120007170713306	861.4960594279767
0.7121193838575091	864.0735636103618
0.7122380704214853	866.6567184517158
0.7123567767665555	869.2513615654132
0.7124755028960166	871.5482067498792
0.7125942488131658	873.6746779896741
0.7127130145213015	875.8698842127186
0.7128318000237216	878.2704578947202
0.7129506053237256	881.2227626899681
0.7130694304246129	883.9727911549547
0.7131882753296837	886.5789990215591
0.7133071400422386	889.0373416891163
0.7134260245655789	890.8468176127016
0.7135449289030065	890.3974097403458
0.7136638530578235	893.270832060515
0.7137827970333332	899.0111038906093
0.7139017608328388	902.208624022885
0.7140207444596443	905.0017975826186
0.7141397479170543	907.9148598371356
0.7142587712083737	910.397314446935
0.7143778143369084	912.4381536100483
0.7144968773059646	915.9185696182907
0.7146159601188489	919.5756867804519
0.7147350627788687	922.2412465698586
0.7148541852893318	925.0113105020225
0.7149733276535467	927.9065652756404
0.7150924898748222	930.1761463614447
0.715211671956468	932.3969499486925
0.7153308739017941	935.8290720760281
0.715450095714111	939.1352356271767
0.71556933739673	942.2673240053438
0.7156885989529628	945.0691766121545
0.7158078803861218	947.7419597466991
0.7159271816995193	950.2024314461426
0.7160465028964692	951.9760219858637
0.7161658439802853	952.6735080512859
0.7162852049542819	952.6310250037518
0.7164045858217744	952.4244114699875
0.716523986586078	955.5377215694585
0.7166434072505089	952.5145077865319
0.716762847818384	938.7420024030458
0.7168823082930204	945.9770117649986
0.7170017886777359	962.5716586827523
0.7171212889758488	970.8427479762806
0.7172408091906781	975.8612498882246
0.7173603493255433	974.6034317440241
0.7174799093837642	975.4948823897302
0.7175994893686615	977.4532208347489
0.7177190892835562	982.8465683229283
0.7178387091317702	988.8248978093549
0.7179583489166254	995.9944976092632
0.7180780086414448	999.2337946725647
0.7181976883095517	1000.3741407666774
0.7183173879242699	1005.7279742482741
0.718437107488924	1010.3786403761796
0.7185568470068389	1013.2775985054163
0.7186766064813399	1014.1059946587729
0.7187963859157535	1013.7676995145364
0.7189161853134061	1020.0318354725555
0.719036004677625	1025.6502792252206
0.7191558440117378	1029.2856258562656
0.7192757033190732	1032.6485470176858
0.7193955826029597	1035.8527492706112
0.7195154818667269	1038.2471767394486
0.7196354011137046	1040.811626978375
0.7197553403472235	1043.8555644234737
0.7198752995706147	1047.3590967771963
0.7199952787872098	1051.1355400944244
0.720115278000341	1053.8535236298753
0.7202352972133411	1056.546696209543
0.7203553364295432	1059.283813266473
0.7204753956522815	1061.8837100690796
0.7205954748848902	1064.4024685577824
0.7207155741307044	1067.9481062409184
0.7208356933930594	1071.6667429229137
0.7209558326752915	1075.6987736755877
0.7210759919807375	1078.5446761228104
0.7211961713127342	1080.7011573156
0.7213163706746197	1081.3011609655448
0.7214365900697322	1082.9688944678546
0.7215568295014103	1087.194568851223
0.721677088972994	1091.8385535633554
0.7217973684878227	1096.7172142875677
0.7219176680492374	1097.7117944137433
0.7220379876605789	1100.0003694142292
0.722158327325189	1105.282316534284
0.7222786870464099	1110.1269735308076
0.7223990668275843	1114.7403441413135
0.7225194666720555	1118.2014339032226
0.7226398865831676	1121.4445691360884
0.7227603265642646	1124.2651348176053
0.722880786618692	1125.7816331630117
0.7230012667497951	1126.6936580225185
0.7231217669609201	1130.9966792330379
0.7232422872554135	1134.8372549176033
0.7233628276366229	1137.821459192925
0.7234833881078956	1141.78307576039
0.7236039686725803	1146.0081403291924
0.7237245693340255	1145.1565615705576
0.7238451900955812	1146.7278767893886
0.7239658309605971	1152.3446251131784
0.7240864919324239	1157.98903903397
0.7242071730144127	1163.5045456802898
0.724327874209915	1166.7987185816507
0.7244485955222832	1170.5308684417548
0.7245693369548704	1174.9129819096477
0.7246900985110294	1178.593172598666
0.7248108801941148	1182.0787451680303
0.7249316820074803	1186.0088222715037
0.7250525039544815	1189.6609491590593
0.7251733460384739	1192.9511040028447
0.7252942082628137	1195.9555200684742
0.7254150906308574	1198.8334702148811
0.7255359931459625	1201.3896815571397
0.7256569158114868	1204.2781669732885
0.7257778586307888	1207.540388414477
0.7258988216072273	1211.682968303305
0.7260198047441617	1215.9879238543256
0.7261408080449525	1220.1123394652082
0.72626183151296	1223.6442365376722
0.7263828751515454	1226.6087453513824
0.7265039389640706	1230.8319120331903
0.726625022953898	1234.8734443626083
0.7267461271243904	1237.41950491551
0.7268672514789111	1240.107119926768
0.7269883960208241	1242.9082562579758
0.7271095607534942	1248.0858693103653
0.7272307456802866	1253.055497828162
0.7273519508045666	1256.6710342384265
0.7274731761297006	1259.7849980297112
0.7275944216590555	1262.569685616074
0.7277156873959987	1265.4045929139734
0.7278369733438982	1266.8183806418208
0.727958279506122	1264.9846465813027
0.7280796058860397	1270.7782921885932
0.7282009524870207	1280.5368917667406
0.7283223193124353	1285.9663659103676
0.7284437063656539	1290.8630820867784
0.7285651136500483	1294.8119606107696
0.7286865411689898	1298.3445777080408
0.7288079889258514	1301.5919467129243
0.7289294569240056	1303.1674212843166
0.7290509451668262	1305.7686228410414
0.7291724536576875	1309.7904411325344
0.7292939823999636	1314.8454522562265
0.7294155313970303	1320.1140688652347
0.7295371006522632	1324.769659452916
0.7296586901690385	1328.7404719973547
0.7297802999507332	1331.9771029213987
0.7299019300007252	1332.9368795193193
0.7300235803223919	1333.8797497968421
0.7301452509191123	1336.5829821443003
0.7302669417942654	1339.1902016421102
0.7303886529512311	1341.718948887042
0.7305103843933897	1335.5139659905585
0.7306321361241218	1334.6750521380998
0.7307539081468093	1351.3098891260838
0.7308757004648336	1360.9480011727492
0.7309975130815778	1366.325215002967
0.7311193460004248	1371.5728252388242
0.7312411992247582	1376.7452272595233
0.7313630727579622	1381.7748476868205
0.7314849666034219	1385.7382349099337
0.7316068807645224	1389.1068886949163
0.7317288152446498	1390.2763367233003
0.7318507700471907	1392.789803136286
0.7319727451755319	1397.1881792969718
0.732094740633061	1403.864158710667
0.7322167564231665	1410.5651900281966
0.7323387925492371	1413.3017981296375
0.7324608490146619	1417.5198513402877
0.732582925822831	1423.2285687401147
0.7327050229771347	1428.0680119836422
0.7328271404809642	1432.62539809514
0.7329492783377112	1436.6887684227836
0.7330714365507675	1440.9528994354134
0.7331936151235259	1445.359828861021
0.7333158140593796	1448.6205010569513
0.7334380333617229	1452.1248930695872
0.7335602730339499	1456.30823785102
0.7336825330794556	1461.0021084458033
0.7338048135016354	1465.8665827914615
0.7339271143038857	1468.8860746193393
0.734049435489603	1469.7387286653839
0.7341717770621846	1467.3955518662215
0.7342941390250283	1473.8737207095337
0.7344165213815324	1482.5197197530244
0.734538924135096	1488.100959679132
0.7346613472891185	1493.269055866369
0.734783790847	1498.025702774294
0.7349062548121412	1499.1221229884359
0.7350287391879431	1496.6195640278982
0.7351512439778078	1484.1967760562711
0.7352737691851374	1491.8972747747887
0.735396314813335	1512.9026591789548
0.7355188808658037	1519.7131628293725
0.7356414673459482	1526.1650750574427
0.7357640742571725	1532.7755297561312
0.7358867016028818	1537.368111755438
0.7360093493864824	1541.0403572058312
0.7361320176113801	1543.6905197749838
0.736254706280982	1545.7424577546703
0.7363774153986956	1547.0506632536578
0.7365001449679286	1542.2268377638457
0.7366228949920899	1538.1787862866836
0.7367456654745885	1543.5512302060292
0.7368684564188344	1556.173307696623
0.7369912678282374	1574.5518417451167
0.7371140997062088	1582.5601375525468
0.7372369520561599	1588.7575193240693
0.7373598248815024	1592.5885039887119
0.7374827181856494	1596.7768938792372
0.7376056319720137	1601.1371640012615
0.7377285662440091	1605.4539320413746
0.7378515210050496	1608.5491419706225
0.7379744962585505	1609.9499002546293
0.738097492007927	1615.6551052331401
0.7382205082565949	1621.9366910553886
0.738343545007971	1625.4660967183247
0.7384666022654723	1630.5941776944667
0.7385896800325165	1637.0779475944303
0.7387127783125219	1642.4059602724847
0.7388358971089073	1647.412278727615
0.7389590364250921	1651.8927977592336
0.7390821962644963	1656.8559574985647
0.7392053766305403	1662.0583895626582
0.7393285775266454	1667.2232735002203
0.7394517989562333	1672.27086396922
0.7395750409227259	1677.1563526984507
0.7396983034295463	1682.1740123087304
0.739821586480118	1687.1325315981614
0.7399448900778645	1691.6520989265182
0.7400682142262109	1696.1485694439468
0.740191558928582	1700.6265178112299
0.7403149241884034	1703.8605792780284
0.7404383100091014	1707.1526382413097
0.7405617163941028	1710.775945884638
0.7406851433468352	1715.4615393631009
0.7408085908707264	1720.0169380185691
0.7409320589692048	1716.4373055467383
0.7410555476456997	1720.3498447441634
0.7411790569036406	1733.429063467484
0.7413025867464579	1739.2536151159768
0.7414261371775823	1744.14059454902
0.7415497082004452	1751.0531952330407
0.7416732998184786	1756.7825056967583
0.741796912035115	1761.6999768946848
0.7419205448537874	1763.3833943119084
0.7420441982779297	1766.8733892311604
0.742167872310976	1773.7607022599955
0.7422915669563612	1781.4999024722406
0.7424152822175206	1789.15413585341
0.7425390180978901	1794.0788791432226
0.7426627746009065	1797.7074080996308
0.7427865517300065	1800.0763370396432
0.7429103494886282	1807.6396582251937
0.7430341678802096	1815.2573471628089
0.7431580069081896	1821.354261008408
0.7432818665760077	1826.7408646959136
0.7434057468871037	1831.7340999563955
0.7435296478449182	1836.1250802124023
0.7436535694528923	1840.9856460127967
0.7437775117144678	1846.462864797783
0.7439014746330868	1849.2255311699714
0.7440254582121922	1852.367364857175
0.7441494624552276	1859.305336113179
0.7442734873656368	1863.2593302344137
0.7443975329468645	1865.1607534110112
0.7445215992023557	1870.1257435339385
0.7446456861355559	1876.2601214681329
0.7447697937499119	1884.2945053178714
0.7448939220488703	1890.9005349934853
0.7450180710358784	1897.0913290126196
0.7451422407143843	1903.538798996819
0.7452664310878367	1909.6685548749786
0.7453906421596846	1915.5221116364426
0.7455148739333779	1921.1159549328047
0.7456391264123667	1926.7215065111916
0.7457633996001021	1932.397659522827
0.7458876935000356	1937.8739569216673
0.7460120081156189	1943.2727707021402
0.7461363434503048	1948.723236613046
0.7462606995075466	1953.91228494365
0.7463850762907978	1958.8270467790928
0.7465094738035127	1963.4378679166484
0.7466338920491467	1968.7000696265065
0.746758331031155	1975.812238915597
0.7468827907529935	1981.6033521823426
0.7470072712181189	1986.8211579848055
0.7471317724299886	1993.5122586637233
0.7472562943920602	1999.544812809903
0.7473808371077922	2004.7787435828338
0.7475054005806435	2007.7773663431178
0.7476299848140736	2011.5957213355136
0.7477545898115426	2019.2828378597887
0.7478792155765113	2026.1524119442092
0.7480038621124406	2032.4313878518803
0.7481285294227926	2034.8867003472253
0.7482532175110298	2040.1315635222684
0.7483779263806148	2049.1237138142665
0.7485026560350116	2055.182006527341
0.7486274064776842	2060.6079790656618
0.748752177712097	2066.0275749831812
0.7488769697417158	2072.884754773725
0.749001782570006	2080.6149942250568
0.7491266162004343	2086.9065522889045
0.7492514706364677	2092.9499008438816
0.7493763458815739	2098.638819884761
0.7495012419392209	2104.7486582055667
0.7496261588128773	2110.789765944837
0.7497510965060128	2116.197946288405
0.7498760550220971	2122.1574266085663
0.7500010343646007	2128.4689897233343
0.7501260345369949	2134.436855421218
0.750251055542751	2140.3610911183946
0.7503760973853414	2146.2216545554948
0.7505011600682389	2151.957818755336
0.750626243594917	2157.5719240215
0.7507513479688495	2162.8351930667827
0.7508764731935109	2169.072322131593
0.7510016192723765	2175.9211359025953
0.7511267862089218	2182.1250815958574
0.7512519740066232	2188.283462846755
0.7513771826689577	2194.3772181273
0.7515024121994025	2200.784149721349
0.7516276626014359	2207.128936088798
0.751752933878536	2213.0063043007476
0.7518782260341824	2218.3324073256917
0.7520035390718548	2223.3891793476205
0.7521288729950334	2230.584080894578
0.7522542278071992	2237.5108114893087
0.7523796035118337	2244.085322820838
0.7525050001124189	2250.488098228321
0.7526304176124378	2256.4246855710176
0.7527558560153731	2261.0075832633615
0.752881315324709	2267.9981432726527
0.7530067955439299	2276.2172118614626
0.7531322966765205	2283.048645568635
0.7532578187259665	2289.7409513805947
0.7533833616957542	2296.2700990025996
0.75350892558937	2302.6632494982478
0.7536345104103016	2309.0307505492356
0.7537601161620366	2315.384078297307
0.7538857428480638	2321.7574488128444
0.7540113904718717	2328.120852908241
0.7541370590369503	2334.286063918785
0.7542627485467898	2340.157046784475
0.7543884590048808	2345.7327977157147
0.7545141904147151	2353.4367187312955
0.7546399427797842	2361.0185068843984
0.7547657161035808	2367.874343977166
0.754891510389598	2374.4971738927898
0.7550173256413296	2381.030194773352
0.7551431618622698	2387.5444187512203
0.7552690190559135	2393.996814513893
0.7553948972257561	2400.3984665667517
0.7555207963752938	2407.253652621926
0.755646716508023	2414.159030239141
0.755772657627441	2421.11631486163
0.7558986197370455	2427.9052630892634
0.756024602840335	2434.654361470532
0.7561506069408084	2441.4293925315214
0.7562766320419653	2448.343247396385
0.7564026781473054	2455.343472263489
0.75652874526033	2462.181401378586
0.7566548333845401	2469.010724005
0.7567809425234375	2475.828517848533
0.7569070726805247	2482.6728174368923
0.7570332238593047	2489.5306665091884
0.7571593960632813	2496.411737880278
0.7572855892959586	2503.1664579569006
0.7574118035608413	2509.8082403815
0.7575380388614347	2515.931817186402
0.7576642952012449	2522.856221063367
0.7577905725837782	2530.5526791433717
0.7579168710125422	2537.431173167649
0.7580431904910444	2544.4426332577823
0.7581695310227928	2551.836254170626
0.7582958926112967	2558.9168423305377
0.7584222752600652	2565.9572580677104
0.7585486789726085	2573.27239119627
0.7586751037524372	2580.516560374683
0.7588015496030628	2587.7116253414033
0.7589280165279966	2594.8290440053756
0.7590545045307512	2601.895777585742
0.7591810136148396	2608.895171714801
0.7593075437837755	2616.228418572811
0.7594340950410726	2623.5167123708334
0.7595606673902461	2630.5216615432455
0.7596872608348112	2637.508189661813
0.7598138753782836	2644.5266544650826
0.75994051102418	2651.868123739601
0.7600671677760173	2659.339680317061
0.7601938456373134	2666.926632854207
0.7603205446115863	2674.13954937031
0.7604472647023548	2681.383403508497
0.7605740059131385	2688.7106822551577
0.7607007682474575	2695.934646360839
0.7608275517088319	2703.1746289201815
0.7609543563007835	2710.56633812933
0.7610811820268336	2717.87792589947
0.7612080288905045	2725.153282929084
0.7613348968953197	2732.5526783623623
0.7614617860448022	2739.751136789374
0.7615886963424764	2746.7377354584846
0.7617156277918667	2753.95917761537
0.7618425803964988	2761.3294755316097
0.7619695541598982	2768.9483399804103
0.7620965490855914	2776.593249583578
0.7622235651771058	2784.2002882703487
0.7623506024379685	2791.6024106768186
0.7624776608717082	2798.987479928043
0.7626047404818536	2806.3632878570215
0.7627318412719337	2813.769787474146
0.762858963245479	2821.1626508259833
0.7629861064060198	2828.539553650533
0.7631132707570876	2835.685979844727
0.7632404563022137	2842.794215012795
0.7633676630449308	2849.8801422813794
0.7634948909887717	2856.9406038969055
0.7636221401372697	2863.9579402119934
0.7637494104939593	2870.8092138541315
0.7638767020623748	2877.7405449110274
0.7640040148460518	2884.707153086335
0.7641313488485262	2891.12400085648
0.7642587040733344	2897.32582038786
0.7643860805240132	2903.275917169891
0.7645134782041005	2908.864901026089
0.7646408971171346	2914.1761816472576
0.764768337266654	2918.9927693318778
0.7648957986561985	2922.552076298376
0.7650232812893079	2925.722733904342
0.7651507851695227	2929.0131743443485
0.7652783103003843	2930.913503471846
