#wavelength	surface flux
0.7	2086.1110979631226
0.7001166666666666	2093.249500417142
0.7002333527777778	2100.117812434112
0.700350058336574	2106.3093511615243
0.7004667833462966	2112.804074544152
0.7005835278101878	2119.52587272592
0.7007002917314895	2125.619264587617
0.7008170751134447	2131.629131221254
0.7009338779592968	2137.7502166540553
0.7010507002722901	2143.731068904178
0.7011675420556689	2149.52866811789
0.701284403312678	2155.912610693829
0.7014012840465635	2162.512418634344
0.7015181842605713	2168.1816418250232
0.701635103957948	2173.4928833033077
0.701752043141941	2177.9683311691765
0.701869001815798	2184.055170597168
0.7019859799827672	2191.2626237105164
0.7021029776460976	2197.2409073575495
0.7022199948090387	2203.1254465105685
0.7023370314748403	2209.3642655598073
0.7024540876467528	2216.3905202267724
0.702571163328027	2224.3336159761566
0.7026882585219152	2231.1279203455615
0.7028053732316688	2237.519040952184
0.7029225074605406	2243.3189253424007
0.7030396612117841	2248.5661748699818
0.7031568344886527	2252.7324576405817
0.7032740272944008	2259.478713294442
0.7033912396322832	2267.730328111718
0.7035084715055552	2275.1511995275605
0.7036257229174727	2282.175033149181
0.7037429938712924	2288.021848178669
0.7038602843702709	2294.468201926287
0.7039775944176659	2301.4817389503755
0.7040949240167356	2308.2568101520287
0.7042122731707383	2314.972335091745
0.7043296418829335	2321.653842929556
0.7044470301565806	2328.0712036442956
0.70456443799494	2334.092732104994
0.7046818654012724	2340.4952991526725
0.7047993123788394	2347.064046502785
0.7049167789309024	2353.120409072019
0.7050342650607243	2359.725904695132
0.7051517707715678	2367.6713210168045
0.7052692960666963	2374.9904026774243
0.705386840949374	2381.8737883393947
0.7055044054228656	2388.1315232675925
0.7056219894904361	2394.502343932473
0.7057395931553511	2401.7049410152185
0.705857216420877	2408.876850497627
0.7059748592902804	2416.0162835571923
0.7060925217668288	2422.847607584353
0.70621020385379	2429.624187097841
0.7063279055544321	2436.698725886557
0.7064456268720246	2443.6383010349796
0.7065633678098366	2450.363879513978
0.7066811283711383	2457.0482218991215
0.7067989085592001	2463.714549531929
0.7069167083772933	2470.133447612816
0.7070345278286895	2475.9930171543515
0.707152366916661	2480.5070955617516
0.7072702256444803	2484.510126521424
0.7073881040154211	2488.1666200736413
0.7075060020327569	2499.181635186988
0.7076239196997625	2510.37146641061
0.7077418570197124	2518.997043418908
0.7078598139958823	2526.7798435444133
0.7079777906315483	2533.743174259561
0.7080957869299869	2540.6146337801365
0.7082138028944751	2547.587401380109
0.7083318385282908	2555.4806092069084
0.7084498938347124	2563.0275002794683
0.708567968817018	2570.100659065733
0.7086860634784875	2575.830197884464
0.7088041778224007	2580.9420968999902
0.7089223118520377	2582.836166988625
0.7090404655706796	2588.7540330718875
0.709158638981608	2602.3986835954634
0.709276832088105	2611.050799081252
0.7093950448934531	2617.0150528098384
0.7095132774009353	2613.096963218652
0.7096315296138355	2614.883042434649
0.7097498015354378	2633.552738581085
0.7098680931690269	2645.7335610112395
0.7099864045178884	2653.129707144992
0.7101047355853081	2661.932672257119
0.7102230863745722	2670.717657053112
0.7103414568889679	2678.670700662752
0.7104598471317828	2686.6732775669584
0.7105782571063047	2694.7243534720074
0.7106966868158224	2701.1032668353737
0.710815136263625	2707.457206843296
0.7109336054530023	2716.204022940047
0.7110520943872445	2724.79767485657
0.7111706030696424	2733.1956597434146
0.7112891315034873	2741.4301687928073
0.7114076796920712	2749.5834847929505
0.7115262476386865	2757.3312986626133
0.7116448353466263	2764.795038395543
0.711763442819184	2771.79052905606
0.711882070059654	2779.8145747936624
0.7120007170713306	2788.2928406822452
0.7121193838575091	2795.977655020442
0.7122380704214853	2803.732392384071
0.7123567767665555	2811.633799987919
0.7124755028960166	2818.42715262452
0.7125942488131658	2824.58644819511
0.7127130145213015	2830.9608850310474
0.7128318000237216	2838.072746625725
0.7129506053237256	2847.170552795185
0.7130694304246129	2855.610497015376
0.7131882753296837	2863.5826702421623
0.7133071400422386	2870.9201547570296
0.7134260245655789	2876.231693993167
0.7135449289030065	2874.5580732991916
0.7136638530578235	2883.3930605626233
0.7137827970333332	2901.294589486847
0.7139017608328388	2911.088637925283
0.7140207444596443	2919.5322812040413
0.7141397479170543	2928.0686921706833
0.7142587712083737	2935.040269080513
0.7143778143369084	2940.407018097134
0.7144968773059646	2951.399774927804
0.7146159601188489	2963.140528870048
0.7147350627788687	2971.379063662993
0.7148541852893318	2979.7920380330434
0.7149733276535467	2988.413857028478
0.7150924898748222	2995.1587310555456
0.715211671956468	3001.767245562721
0.7153308739017941	3012.101450420843
0.715450095714111	3022.10513306939
0.71556933739673	3031.6519487811497
0.7156885989529628	3039.685712776983
0.7158078803861218	3047.07984865466
0.7159271816995193	3052.825391434963
0.7160465028964692	3057.656158480817
0.7161658439802853	3061.0535563735843
0.7162852049542819	3060.7248524357155
0.7164045858217744	3059.288560760119
0.716523986586078	3067.531784570685
0.7166434072505089	3055.4182308047198
0.716762847818384	3007.6461608706463
0.7168823082930204	3030.057429977115
0.7170017886777359	3083.7774859200495
0.7171212889758488	3112.297479225399
0.7172408091906781	3129.6621940263162
0.7173603493255433	3125.5012226499875
0.7174799093837642	3126.7066664477848
0.7175994893686615	3130.575890032397
0.7177190892835562	3147.908268964526
0.7178387091317702	3167.4577365554405
0.7179583489166254	3191.5187078276217
0.7180780086414448	3201.5961045050058
0.7181976883095517	3204.2055575401646
0.7183173879242699	3221.0308127322464
0.718437107488924	3235.495924908192
0.7185568470068389	3244.078527746715
0.7186766064813399	3245.3346487142508
0.7187963859157535	3242.4624242759396
0.7189161853134061	3262.944012061664
0.719036004677625	3281.1968831280246
0.7191558440117378	3292.56410580991
0.7192757033190732	3302.68832851338
0.7193955826029597	3312.0879995018668
0.7195154818667269	3318.889917131713
0.7196354011137046	3326.35002659182
0.7197553403472235	3335.617789457946
0.7198752995706147	3346.5205106691533
0.7199952787872098	3358.3939768023656
0.720115278000341	3365.9182816782586
0.7202352972133411	3372.947251795483
0.7203553364295432	3379.213128308704
0.7204753956522815	3387.17800548603
0.7205954748848902	3396.150228796496
0.7207155741307044	3406.849269573098
0.7208356933930594	3418.1382985135915
0.7209558326752915	3430.660891918913
0.7210759919807375	3439.180816430083
0.7211961713127342	3445.374167415397
0.7213163706746197	3446.8140103199935
0.7214365900697322	3451.315475336356
0.7215568295014103	3463.1735206287963
0.721677088972994	3477.5012472885537
0.7217973684878227	3493.213528606565
0.7219176680492374	3495.423771136812
0.7220379876605789	3501.862415192552
0.722158327325189	3518.122008342966
0.7222786870464099	3533.2129061211162
0.7223990668275843	3547.685839179804
0.7225194666720555	3557.999603136595
0.7226398865831676	3567.7070616199353
0.7227603265642646	3576.2539516504116
0.722880786618692	3579.9867753928293
0.7230012667497951	3581.478393713648
0.7231217669609201	3594.5855226687972
0.7232422872554135	3605.966961837164
0.7233628276366229	3614.153131616043
0.7234833881078956	3626.3533222120695
0.7236039686725803	3639.7321600698956
0.7237245693340255	3635.115209404197
0.7238451900955812	3638.9965108097076
0.7239658309605971	3657.0672696376832
0.7240864919324239	3674.7817035334515
0.7242071730144127	3691.8810238712485
0.724327874209915	3701.448222949801
0.7244485955222832	3712.521290996227
0.7245693369548704	3725.82923055801
0.7246900985110294	3736.9613216533353
0.7248108801941148	3747.492710470208
0.7249316820074803	3759.4283465539597
0.7250525039544815	3770.4476687672723
0.7251733460384739	3780.27373501244
0.7252942082628137	3788.8972756987496
0.7254150906308574	3797.0351040560167
0.7255359931459625	3804.1477648847763
0.7256569158114868	3812.414957812043
0.7257778586307888	3821.980784898905
0.7258988216072273	3834.0157841859586
0.7260198047441617	3846.6308320569133
0.7261408080449525	3859.376132832148
0.72626183151296	3869.3668317256725
0.7263828751515454	3876.7197131241683
0.7265039389640706	3890.2024256602976
0.726625022953898	3903.13570533063
0.7267461271243904	3910.075329891918
0.7268672514789111	3917.509412518215
0.7269883960208241	3925.3399670651793
0.7271095607534942	3941.3875642789326
0.7272307456802866	3956.7705066217222
0.7273519508045666	3967.632269369732
0.7274731761297006	3976.6671178128463
0.7275944216590555	3984.5024876612433
0.7277156873959987	3992.6477163886043
0.7278369733438982	3996.1698308226055
0.727958279506122	3989.111366555142
0.7280796058860397	4006.781016089812
0.7282009524870207	4037.309329988597
0.7283223193124353	4054.3452614491416
0.7284437063656539	4069.525041890162
0.7285651136500483	4081.402760076135
0.7286865411689898	4091.4385698197934
0.7288079889258514	4100.308115010937
0.7289294569240056	4103.149267750224
0.7290509451668262	4110.033222365361
0.7291724536576875	4122.516614000139
0.7292939823999636	4137.813777671414
0.7294155313970303	4153.705716285439
0.7295371006522632	4168.016255058694
0.7296586901690385	4179.850466247002
0.7297802999507332	4189.029724497199
0.7299019300007252	4190.759923946458
0.7300235803223919	4192.283001325083
0.7301452509191123	4198.934404587337
0.7302669417942654	4205.924713011844
0.7303886529512311	4213.192503184238
0.7305103843933897	4192.368310133632
0.7306321361241218	4188.934606826644
0.7307539081468093	4242.069500702616
0.7308757004648336	4272.667428082912
0.7309975130815778	4289.540659260241
0.7311193460004248	4304.746088140921
0.7312411992247582	4319.977391500418
0.7313630727579622	4335.325106102299
0.7314849666034219	4346.959271536098
0.7316068807645224	4356.567151030792
0.7317288152446498	4359.272529762539
0.7318507700471907	4365.895919352306
0.7319727451755319	4378.0141447017695
0.732094740633061	4398.495676185829
0.7322167564231665	4419.0649455875955
0.7323387925492371	4425.052565092473
0.7324608490146619	4437.502020588536
0.732582925822831	4456.45353029317
0.7327050229771347	4471.52061635164
0.7328271404809642	4485.334984899026
0.7329492783377112	4496.970788783451
0.7330714365507675	4509.442854883441
0.7331936151235259	4522.509487648242
0.7333158140593796	4531.638121560356
0.7334380333617229	4541.019721146916
0.7335602730339499	4551.440522363575
0.7336825330794556	4565.5002723042635
0.7338048135016354	4581.0299671694665
0.7339271143038857	4589.643949105594
0.734049435489603	4589.805437261271
0.7341717770621846	4577.500741670584
0.7342941390250283	4595.977527802148
0.7344165213815324	4622.181907748391
0.734538924135096	4638.739678514669
0.7346613472891185	4654.288660047876
0.734783790847	4668.832991855657
0.7349062548121412	4671.165661588408
0.7350287391879431	4661.689070515113
0.7351512439778078	4619.762079299121
0.7352737691851374	4643.492144616062
0.735396314813335	4710.632516587565
0.7355188808658037	4731.236116050081
0.7356414673459482	4751.003795308288
0.7357640742571725	4771.9561811074645
0.7358867016028818	4785.410782555154
0.7360093493864824	4795.539443583325
0.7361320176113801	4803.010235543064
0.736254706280982	4808.484403535898
0.7363774153986956	4811.47635859428
0.7365001449679286	4792.775205890751
0.7366228949920899	4776.990649311505
0.7367456654745885	4795.284385375176
0.7368684564188344	4836.036877751102
0.7369912678282374	4894.622446086067
0.7371140997062088	4919.520385324092
0.7372369520561599	4938.232186063458
0.7373598248815024	4948.551515539763
0.7374827181856494	4960.434771265738
0.7376056319720137	4973.076673280443
0.7377285662440091	4985.6747886097355
0.7378515210050496	4994.005072168584
0.7379744962585505	4996.415507174443
0.738097492007927	5010.276728406207
0.7382205082565949	5025.926125994914
0.738343545007971	5035.528918266827
0.7384666022654723	5050.632812220762
0.7385896800325165	5070.40161809301
0.7387127783125219	5085.938138006641
0.7388358971089073	5100.624354566519
0.7389590364250921	5114.182394183573
0.7390821962644963	5129.096759373668
0.7392053766305403	5144.696548804986
0.7393285775266454	5160.474463349012
0.7394517989562333	5175.711017014051
0.7395750409227259	5190.199909181989
0.7396983034295463	5204.678407493459
0.739821586480118	5218.582254816007
0.7399448900778645	5229.7846724750725
0.7400682142262109	5242.038892296482
0.740191558928582	5255.14353301621
0.7403149241884034	5264.090535295228
0.7404383100091014	5273.457793360404
0.7405617163941028	5284.435460569338
0.7406851433468352	5298.390963618389
0.7408085908707264	5311.66215427716
0.7409320589692048	5297.85778256823
0.7410555476456997	5308.876242776591
0.7411790569036406	5350.265535017715
0.7413025867464579	5366.426536299488
0.7414261371775823	5378.833522389713
0.7415497082004452	5396.446024838531
0.7416732998184786	5412.061247360152
0.741796912035115	5426.306474273484
0.7419205448537874	5430.292644946095
0.7420441982779297	5440.026625429116
0.742167872310976	5460.56828888123
0.7422915669563612	5484.464739329291
0.7424152822175206	5508.233024515904
0.7425390180978901	5522.721400919727
0.7426627746009065	5532.986638744053
0.7427865517300065	5539.148022108091
0.7429103494886282	5562.507238085037
0.7430341678802096	5585.958616919689
0.7431580069081896	5604.144778482652
0.7432818665760077	5619.993093837868
0.7434057468871037	5634.5470575816535
0.7435296478449182	5647.1286984076
0.7436535694528923	5660.903637134389
0.7437775117144678	5676.245523131253
0.7439014746330868	5683.137004110568
0.7440254582121922	5691.141798613969
0.7441494624552276	5710.705062703349
0.7442734873656368	5720.899348652931
0.7443975329468645	5724.648934739964
0.7445215992023557	5738.090342096886
0.7446456861355559	5754.229456194368
0.7447697937499119	5774.660126530913
0.7448939220488703	5793.248012129217
0.7450180710358784	5811.482768720311
0.7451422407143843	5831.11566663267
0.7452664310878367	5849.5809157346275
0.7453906421596846	5867.031001787791
0.7455148739333779	5884.4592306605045
0.7456391264123667	5901.645052075171
0.7457633996001021	5918.304321875711
0.7458876935000356	5933.838233683658
0.7460120081156189	5948.977608783543
0.7461363434503048	5964.809833352571
0.7462606995075466	5980.070317473786
0.7463850762907978	5994.730883962135
0.7465094738035127	6007.614511941241
0.7466338920491467	6022.468823580608
0.746758331031155	6043.232601209976
0.7468827907529935	6060.117881828825
0.7470072712181189	6075.359895746107
0.7471317724299886	6095.570956913629
0.7472562943920602	6113.424446524916
0.7473808371077922	6128.419027173995
0.7475054005806435	6135.408333383179
0.7476299848140736	6144.716837552106
0.7477545898115426	6165.9360480388905
0.7478792155765113	6185.419592408318
0.7480038621124406	6203.487916818013
0.7481285294227926	6208.381047403077
0.7482532175110298	6223.516542002857
0.7483779263806148	6252.411147251969
0.7485026560350116	6270.012912286047
0.7486274064776842	6285.370368271175
0.748752177712097	6301.378497678106
0.7488769697417158	6321.690853291895
0.749001782570006	6344.619581042852
0.7491266162004343	6363.405363493733
0.7492514706364677	6381.0064897644625
0.7493763458815739	6396.9167904138285
0.7495012419392209	6414.296899123935
0.7496261588128773	6431.459278195148
0.7497510965060128	6446.496883022808
0.7498760550220971	6463.75125769473
0.7500010343646007	6482.415081464912
0.7501260345369949	6498.992031837389
0.750251055542751	6515.372124461016
0.7503760973853414	6531.465703499582
0.7505011600682389	6547.605745466622
0.750626243594917	6563.300407969091
0.7507513479688495	6577.270889695039
0.7508764731935109	6593.635581574972
0.7510016192723765	6611.526309658817
0.7511267862089218	6629.522769018633
0.7512519740066232	6647.172908188358
0.7513771826689577	6664.333833903927
0.7515024121994025	6683.197488793872
0.7516276626014359	6701.889536712123
0.751752933878536	6718.63159173701
0.7518782260341824	6733.001763851109
0.7520035390718548	6746.175984942816
0.7521288729950334	6767.290293872909
0.7522542278071992	6787.238154990876
0.7523796035118337	6805.6545173362865
0.7525050001124189	6823.627354833275
0.7526304176124378	6840.004572289067
0.7527558560153731	6851.661944743571
0.752881315324709	6871.6800584156545
0.7530067955439299	6895.984226624187
0.7531322966765205	6915.823902392946
0.7532578187259665	6935.103291631346
0.7533833616957542	6953.725839979468
0.75350892558937	6971.441076412505
0.7536345104103016	6989.069523947309
0.7537601161620366	7006.831160233235
0.7538857428480638	7023.878047673938
0.7540113904718717	7040.569458754853
0.7541370590369503	7057.01870701694
0.7542627485467898	7072.792797187676
0.7543884590048808	7087.889424655061
0.7545141904147151	7110.46180928694
0.7546399427797842	7132.447985538325
0.7547657161035808	7151.547000633748
0.754891510389598	7170.126590643292
0.7550173256413296	7188.444450687785
0.7551431618622698	7206.333218848635
0.7552690190559135	7224.261702355902
0.7553948972257561	7242.223429842976
0.7555207963752938	7261.120697453822
0.755646716508023	7280.309156582797
0.755772657627441	7299.922434218717
0.7558986197370455	7318.427013086793
0.756024602840335	7336.495645414994
0.7561506069408084	7354.028686564132
0.7562766320419653	7372.323895207767
0.7564026781473054	7391.107221438868
0.75652874526033	7409.691719001015
0.7566548333845401	7428.43960736429
0.7567809425234375	7447.398952710294
0.7569070726805247	7465.532322297313
0.7570332238593047	7483.727620912032
0.7571593960632813	7502.5036474203125
0.7572855892959586	7519.7752341009445
0.7574118035608413	7536.269087405152
0.7575380388614347	7552.132682954467
0.7576642952012449	7570.637887694954
0.7577905725837782	7591.689765288305
0.7579168710125422	7610.690405116512
0.7580431904910444	7629.696263092442
0.7581695310227928	7649.028357062016
0.7582958926112967	7667.616855448522
0.7584222752600652	7686.0626344065895
0.7585486789726085	7704.939276741836
0.7586751037524372	7723.8647119254365
0.7588015496030628	7742.813496459819
0.7589280165279966	7760.878534083269
0.7590545045307512	7778.709399170942
0.7591810136148396	7796.2299386577915
0.7593075437837755	7814.724421859723
0.7594340950410726	7833.027817139263
0.7595606673902461	7850.342614450812
0.7596872608348112	7867.137489222689
0.7598138753782836	7883.884958340973
0.75994051102418	7902.142591516258
0.7600671677760173	7920.861294152267
0.7601938456373134	7939.988847884834
0.7603205446115863	7957.644774045629
0.7604472647023548	7974.814936299737
0.7605740059131385	7991.292892731254
0.7607007682474575	8007.678445354816
0.7608275517088319	8024.015015533568
0.7609543563007835	8040.256455238358
0.7610811820268336	8056.121140868246
0.7612080288905045	8071.785870809138
0.7613348968953197	8087.612821128722
0.7614617860448022	8102.416276499309
0.7615886963424764	8116.140796933578
0.7617156277918667	8130.354486372959
0.7618425803964988	8144.787205675307
0.7619695541598982	8159.557367209663
0.7620965490855914	8172.731736001065
0.7622235651771058	8185.36818851102
0.7623506024379685	8197.848533532637
0.7624776608717082	8208.783079891098
0.7626047404818536	8218.677579384163
0.7627318412719337	8227.098600588439
0.762858963245479	8234.885068689506
0.7629861064060198	8241.937576199301
0.7631132707570876	8246.859677247374
0.7632404563022137	8250.478684178783
0.7633676630449308	8251.8632182452
0.7634948909887717	8251.034708374016
0.7636221401372697	8248.708071865753
0.7637494104939593	8242.85015233082
0.7638767020623748	8234.391632450484
0.7640040148460518	8223.984872737201
0.7641313488485262	8206.452200947879
0.7642587040733344	8184.137204678301
0.7643860805240132	8156.228312232086
0.7645134782041005	8121.123331676469
0.7646408971171346	8080.332786832392
0.764768337266654	8029.384284537087
0.7648957986561985	7962.677206625132
0.7650232812893079	7887.614052389233
0.7651507851695227	7798.488988192837
0.7652783103003843	7691.169625761436
0.7654058566854343	7570.582876946561
0.7655334243282153	7412.100801293193
0.7656610132322699	7231.346174707987
