#wavelength	surface flux
0.676892	3289.187310508106
0.678297	3399.7133934955814
0.679702	3516.1597534392004
0.681109	3634.211802305594
0.682517	3754.384267390192
0.683926	3877.9906624419145
0.685337	4007.005706793394
0.686749	4134.262921681779
0.688164	4265.07709397204
0.689581	4387.771070953947
0.691	4518.284218654273
0.692422	4688.27737692504
0.693847	4821.70469596798
0.695274	5017.229091780903
0.696705	5180.054579309875
0.698139	5334.815273638165
0.699576	5507.299827448058
0.701017	5711.693580671297
0.702461	5899.232357107888
0.70391	6095.631659279057
0.705362	6293.540100779389
0.706819	6494.952436010233
0.70828	6701.864431969961
0.709745	6913.55213997303
0.711216	7139.092903267293
0.71269	7365.796643680392
0.71417	7599.059987388117
0.715655	7833.191969503291
0.717145	8066.466344675757
0.71864	8344.94001088187
0.72014	8613.062816359141
0.721647	8881.624588287827
0.723158	9164.980335042263
0.724676	9458.63625584438
0.726199	9757.882311692416
0.727728	10064.160227318287
0.729264	10380.347760111134
0.730805	10698.592134006562
0.732353	11044.028131489355
0.733907	11356.041767505265
0.735468	11678.952093345064
0.737035	12066.939404311448
0.738609	12434.235120339787
0.74019	12824.609046294981
0.741777	13195.143178022445
0.743372	13631.393815504198
0.744973	14024.11956573987
0.746582	14490.224565674887
0.748197	14962.918755391176
0.74982	15459.378370779497
0.751451	15927.117002267198
0.753088	16436.43523803042
0.754734	16949.231375153453
0.756386	17468.136863379495
0.758047	17973.078408701374
0.759715	18464.74088447328
0.76139	18882.57183984855
0.763074	19015.112249427257
0.764765	17423.795986528894
0.766464	11666.7156220493
0.768172	15610.720579624576
0.769887	13651.203632129243
0.77161	19438.488291752426
0.773341	23038.625984576618
0.775081	24245.572773714925
0.776829	25174.041686041932
0.778585	25823.756756432656
0.780349	25144.45585772847
0.782121	27661.229175362132
0.783902	28667.37044662648
0.785691	29574.85728393015
0.787489	30493.2361707401
0.789295	31452.780472903036
0.79111	32429.12005821514
0.792933	33338.151671006905
0.794764	32653.15323478223
0.796604	35305.73271020267
0.798453	36627.51070326215
0.80031	37742.26967285148
0.802176	38919.835598119294
0.804051	40152.110595513965
0.805934	41384.109299394106
0.807826	42681.46573269438
0.809727	43937.444799652396
0.811636	45224.74061213589
0.813554	46662.168977289475
0.81548	48127.97232431265
0.817416	49589.410962065806
0.81936	51106.88141864964
0.821313	52772.15616461177
0.823274	54249.54343749673
0.825244	55996.737318429725
0.827223	57618.158467531386
0.829211	59523.60786120435
0.831208	61274.27544599152
0.833213	63218.562324063656
0.835227	65140.70046556449
0.837249	67090.20553323772
0.83928	69089.63529777732
0.841321	71231.34187871838
0.843369	73391.90479119205
0.845427	75566.89779602445
0.847493	77822.31066337053
0.849567	80203.31671753222
0.851651	82628.3588389185
0.853742	85006.12600515339
0.855843	87620.00248850568
0.857952	90217.69674119742
0.86007	92841.71479922473
0.862196	95531.07361616578
0.864331	98212.51994717724
0.866474	101306.0513037691
0.868626	104297.41381369582
0.870786	107412.07464074697
0.872955	110646.84202485692
0.875132	113909.02566927455
0.877317	117312.11009024072
0.879511	120781.67170796031
0.881713	124295.2076228432
0.883923	127848.86933073633
0.886142	131662.01008401669
0.888369	135493.6638067471
0.890604	138985.5464899879
0.892847	142653.16894747072
0.895099	147254.32885274861
0.897358	149641.9677027883
0.899626	154599.79326107202
0.901901	160307.74219801588
0.904185	165006.27959606316
0.906476	169749.01872763425
0.908776	174520.24886161488
0.911083	179585.57307332818
0.913398	184629.4474281589
0.915721	189412.24632923352
0.918051	194651.4611595301
0.92039	199587.57008107012
0.922736	205974.2592479414
0.925089	210197.01035997167
0.927451	214107.40567599042
0.929819	216928.15938511587
0.932195	219336.16432454178
0.934579	218058.5122938013
0.93697	227393.1552526198
0.939369	245688.1139249439
0.941774	254359.38761647785
0.944187	262189.92824113404
0.946607	258771.5824744988
0.949035	265151.07233641244
0.951469	278584.3718490372
0.953911	287361.45533089864
0.956359	284608.798960593
0.958814	302583.81958596216
0.961277	307741.19877930963
0.963746	320797.4310979947
0.966222	328896.48886556085
0.968705	340742.3421386335
0.971194	347060.86035792966
0.97369	354588.1536744129
0.976193	366724.7681842521
0.978702	377428.7280704281
0.981217	386876.3589668702
0.983739	397386.5801527414
0.986268	406934.0773722035
0.988802	417361.39056217036
0.991343	429308.697139622
0.99389	439764.0017972709
0.996444	452147.1798880639
0.999003	463037.9554580911
1.00157	473953.8892182293
1.00414	485783.56582447205
1.00672	497913.7416451143
1.0093	509858.0073493876
1.01189	522558.9863664157
1.01448	535291.0089651075
1.01708	548135.5870197363
1.01969	561474.1704707965
1.0223	574894.2786344632
1.02492	588546.1007986069
1.02754	602580.9655148496
1.03017	616769.9052732844
1.0328	631122.2573515514
1.03544	645941.1124886645
1.03808	660938.3358996293
1.04073	676253.0400248613
1.04339	691843.1368415134
1.04604	707582.946638546
1.04871	723596.2850573605
1.05138	740071.8850373283
1.05405	756844.4557031963
1.05673	773871.8303410361
1.05941	790633.6230063704
1.0621	809466.4050701258
1.06479	828716.3350281398
1.06749	846190.568735011
1.07019	865263.5835850107
1.07289	884327.4555948095
1.0756	903713.5489190649
1.07832	922339.8774997132
1.08104	942941.1886187826
1.08376	963065.3608350374
1.08649	982724.8434849225
1.08922	1003256.5998296266
1.09195	1022812.6917362325
1.09469	1042108.429868821
1.09743	1048771.3359083463
1.10018	1060220.9263156436
1.10293	1086925.61059558
1.10568	1124012.8894388496
1.10844	1147942.7176652302
1.1112	1165497.163998932
1.11396	1098782.0597311137
1.11673	1122413.8384504905
1.1195	1175920.2779244198
1.12228	1113358.3121143447
1.12505	1088066.396157624
1.12783	1214720.0722498402
1.13062	1327437.8054054817
1.13341	1310851.9451508804
1.1362	1311172.4075503692
1.13899	1412251.2173828154
1.14178	1437044.8972726846
1.14458	1405726.3017295112
1.14738	1346678.5612646972
1.15019	1408378.2487036493
1.153	1558054.288525062
1.1558	1550606.445868575
1.15862	1629955.2423753876
1.16143	1648661.4023670966
1.16425	1580858.973373072
1.16707	1711211.0255170462
1.16989	1697542.7994751306
1.17271	1747321.4919700176
1.17554	1799092.1518208
1.17837	1838715.6857936904
1.1812	1873674.2449988106
1.18403	1911234.1020182408
1.18686	1936029.9634823226
1.1897	1980781.358492489
1.19253	2020430.1737319264
1.19537	2054798.7144497302
1.19822	2073431.6363031843
1.20106	2125152.4350864207
1.2039	2161156.671225886
1.20675	2202231.3677520202
1.2096	2238122.8640069114
1.21245	2266199.6985107097
1.2153	2312489.8902043775
1.21815	2354697.5730205686
1.221	2392223.8560107816
1.22385	2429956.948843208
1.22671	2471892.9285123623
1.22957	2509964.076813647
1.23242	2548811.2406901843
1.23528	2593069.739087067
1.23814	2635588.6601885594
1.241	2675601.3079005713
1.24387	2716919.6119104624
1.24673	2758297.0165290046
1.24959	2799921.9813418677
1.25245	2843497.929859698
1.25532	2887298.112344553
1.25818	2932989.4496643785
1.26105	2976590.6646335023
1.26392	3021454.50682783
1.26678	3066316.9251030074
1.26965	3106277.2552999803
1.27252	3148149.916376581
1.27538	3200520.8917926354
1.27825	3248546.056148581
1.28112	3289416.8304231055
1.28399	3321808.9810480056
1.28686	3383835.227383076
1.28973	3429806.135265312
1.2926	3464603.014102428
1.29546	3453829.3938129186
1.29833	3524230.127845699
1.3012	3605166.561290722
1.30407	3664362.2235451047
1.30694	3718303.325739822
1.30981	3760627.7905950774
1.31267	3801443.402197827
1.31554	3843868.4653861965
1.31841	3866323.693273252
1.32128	3949120.9996762034
1.32414	3997546.2514888276
1.32701	4061810.2512125447
1.32987	4087859.405545664
1.33274	4035002.6050117277
1.3356	4037375.724924334
1.33847	3689358.7791070947
1.34133	3394140.3284243415
1.34419	2853141.414717046
1.34705	3251740.965459545
1.34991	3262780.7672057664
1.35277	3728520.2927040085
1.35563	3333654.712057578
1.35849	3277093.1596210157
1.36135	3808919.680104623
1.3642	3617881.863378186
1.36706	3964737.9828418656
1.36991	3936175.927027744
1.37277	4278547.433833554
1.37562	3970746.1918547605
1.37847	4791542.857232637
1.38132	4558287.17152609
1.38417	4292513.864560313
1.38701	3686454.3064216035
1.38986	4239861.787460641
1.39271	4304982.294210923
1.39555	3660252.2441139948
1.39839	4267582.497654527
1.40123	4283411.615752512
1.40407	4837068.679044362
1.40691	4750999.301826672
1.40974	5123870.997146114
1.41258	4853093.13269539
1.41541	4450409.276608727
1.41824	3965600.1501116143
1.42107	4413479.465387083
1.4239	4020578.032382301
1.42673	5025566.755392592
1.42955	5122573.534928225
1.43237	4955528.018582795
1.43519	5405972.214453581
1.43801	5600093.9059030395
1.44083	5373731.938053617
1.44365	5550823.097422828
1.44646	5602890.078099805
1.44927	5571032.392872446
1.45208	5618638.993592131
1.45489	4919724.981924685
1.45769	6089751.035460965
1.4605	6490298.115594971
1.4633	6168179.5613798555
1.4661	6371791.847988095
1.4689	6403099.229220521
1.47169	6709363.480237659
1.47449	6497665.766556943
1.47728	6818021.906220981
1.48007	6912262.725201743
1.48286	6792637.79192629
1.48564	6941404.92833247
1.48842	7205179.149174886
1.4912	7379321.428574947
1.49398	7449130.802264588
1.49676	7383425.754291321
1.49953	7465943.428219967
1.5023	7482723.916517112
1.50507	7750151.640838681
1.50784	7807625.840919249
1.51061	7770150.091564449
1.51337	7965413.713258041
1.51613	8044695.034004464
1.51888	8073089.58482174
1.52164	8160728.629349111
1.52439	8206201.565909169
1.52714	7986266.579736531
1.52989	8126348.273034082
1.53263	8429080.899752852
1.53538	8652680.546639957
1.53812	8755218.335383786
1.54086	8813662.732517509
1.54359	8883899.621260967
1.54632	8981272.480843091
1.54905	9052742.893710338
1.55178	9154732.9132868
1.5545	9213456.994036833
1.55723	9273236.113194002
1.55995	9338230.456066035
1.56266	9421802.998568434
1.56538	9527035.400798105
1.56809	9632025.554882085
1.5708	9681041.263221981
1.57351	9769859.499846626
1.57621	9870582.349503314
1.57891	9925247.587814031
1.58161	9999244.322657721
1.5843	10075629.277530078
1.587	10127923.003040217
1.58969	10219580.549152186
1.59238	10301153.029184062
1.59506	10383846.846748833
1.59774	10458795.995244585
1.60042	10536875.98113492
1.6031	10614939.378169594
1.60577	10686974.373538172
1.60844	10753317.592414018
1.61111	10833861.62968043
1.61378	10915289.605560094
1.61644	10988538.382139686
1.6191	11057128.023611806
1.62176	11095995.831928309
1.62441	11071676.686519757
1.62707	11100193.48208251
1.62971	11172384.061222978
1.63236	11199689.514593445
1.635	11366921.287547816
1.63764	11556860.35998911
1.64028	11634198.11551564
1.64292	11695900.830570884
1.64555	11746202.436628312
1.64818	11821858.671378674
1.65081	11907387.646973608
1.65343	11938114.321604893
1.65605	11830651.909522528
1.65867	12002617.012002286
1.66128	12136677.023926405
1.6639	12155447.568291523
1.66651	11573541.114203723
1.66911	11724077.220268207
1.67172	12411261.5869049
1.67432	12577275.424549542
1.67692	12592774.332356663
1.67951	12672867.186271748
1.68211	12587580.265472673
1.6847	12607372.524773639
1.68728	12925718.494634183
1.68987	13004199.622193262
1.69245	12706228.78684637
1.69503	12646272.466068827
1.6976	13006072.819949627
1.70018	12771254.104556952
1.70275	12782905.372281251
1.70531	12908578.00767098
1.70788	13167015.927305445
1.71044	13493270.406173214
1.713	13646510.426947877
1.71556	13731338.124100491
1.71811	13779159.92964035
1.72066	13703446.502184827
1.72321	13448289.849056996
1.72575	13423277.893440077
1.7283	13459593.909929454
1.73084	13523040.185617303
1.73337	13473541.0755771
1.73591	13115529.20915459
1.73844	13566974.609346041
1.74097	13562329.868086582
1.74349	13706062.227323908
1.74602	14252362.516860623
1.74854	14546469.081053728
1.75105	14512144.476698512
1.75357	14250907.84722768
1.75608	14036081.125940906
1.75859	14134456.639761345
1.7611	14201323.125180246
1.7636	14162345.069092352
1.7661	13194214.47914438
1.7686	12821287.259883475
1.7711	14220335.437224496
1.77359	13459238.170208007
1.77608	12397309.161756214
1.77857	13600182.204678671
1.78105	13887743.500108076
1.78354	13361787.069761192
1.78602	13442281.08456946
1.78849	12672836.670824237
1.79097	11309097.896068508
1.79344	12615409.17022353
1.79591	13149141.99681066
1.79837	13451431.170826644
1.80084	12436686.159320772
1.8033	13415234.285867944
1.80576	13097410.137461865
1.80821	10765046.08714547
1.81067	10829269.321259294
1.81312	12881171.266990388
1.81557	14810678.806043396
1.81801	14674500.812777957
1.82046	14548118.204327075
1.8229	15589429.343694184
1.82533	16186768.569106998
1.82777	16170214.116476802
1.8302	15487416.422539596
1.83263	14304471.24249859
1.83506	15317713.36330254
1.83749	15622631.0603221
1.83991	14760550.696157997
1.84233	15349683.047161782
1.84475	15364639.743997956
1.84716	13660407.981866125
1.84957	13891283.2175818
1.85198	15663370.970980212
1.85439	16211582.239439817
1.8568	14792002.607824568
1.8592	12892814.90382559
1.8616	11031829.248510743
1.864	11764917.11511561
1.86639	12519360.226643935
1.86878	11615738.73411433
1.87118	12545225.842774138
1.87356	12258194.62952941
1.87595	14312539.482298305
1.87833	16458847.351513028
1.88071	16169711.527222918
1.88309	15175768.954684963
1.88547	14184118.891134717
1.88784	14712318.33463389
1.89021	15154370.202582685
1.89258	15270876.310601594
1.89494	15440885.251535892
1.89731	16280041.212724557
1.89967	15794217.072882926
1.90203	14521638.385086957
1.90439	15791804.314375767
1.90674	17697686.040212255
1.90909	18209200.308870714
1.91144	17419824.130198594
1.91379	16505450.318642316
1.91613	17114922.33638437
1.91848	18326620.41645865
1.92082	17030526.09078626
1.92315	14381560.294877501
1.92549	15965173.861531647
1.92782	17681314.17775258
1.93015	17218688.052786287
1.93248	17551149.550721936
1.93481	17741633.341558512
1.93713	14785914.657288015
1.93945	12551883.525729595
1.94177	13810211.457235513
1.94409	14140024.784721028
1.94641	14255860.413312143
1.94872	14495210.825521924
1.95103	15775927.881475773
1.95334	16197854.214373508
1.95564	13324276.532147603
1.95795	12617245.91806611
1.96025	14135969.256958356
1.96255	16224214.396348309
1.96484	18177327.462890383
1.96714	18821826.172397897
1.96943	18284530.393671997
1.97172	18634430.206640087
1.97401	18944529.04326216
1.97629	18332564.31685846
1.97858	18658810.160170328
1.98086	18739483.77194122
1.98314	18747471.78960932
1.98541	19065804.85375676
1.98769	18124937.234798197
1.98996	16650834.333739528
1.99223	17236777.376697596
1.9945	18848371.897241108
1.99677	19350761.375234414
1.99903	18613178.195702314
2.00129	17946434.648232944
2.00355	18569154.12975518
2.00581	19809122.17790418
2.00806	20430859.056650218
2.01031	20832882.898768563
2.01256	21315350.20400952
2.01481	21200301.274548218
2.01706	20370192.10352035
2.0193	20434806.543610275
2.02154	21463837.797569316
2.02378	21819079.882679824
2.02602	21388822.560930323
2.02825	20874079.12568937
2.03049	20638951.43212277
2.03272	21346142.862043776
2.03494	22183569.98786295
2.03717	22400324.174607318
2.03939	22482028.326948326
2.04162	22539182.672379807
2.04384	22539846.011502188
2.04605	22276870.771002714
2.04827	21595428.371827923
2.05048	21539427.796419017
2.05269	22162941.332483407
2.0549	22575391.254970342
2.05711	22660863.67988052
2.05931	22299871.916332483
2.06151	22134232.878964126
2.06371	22508277.113570295
2.06591	22872456.385319144
2.06811	23129932.89142377
2.0703	23337714.586472433
2.07249	23517567.065295827
2.07468	23635493.906375516
2.07686	23730178.964406602
2.07905	23857391.54443039
2.08123	23954551.62319532
2.08341	23943500.97016349
2.08559	23846150.893138945
2.08776	23875564.692981888
2.08994	24020470.76032208
2.09211	24122046.338138428
2.09428	24223561.71210708
2.09645	24290137.55144575
2.09861	24280605.32288766
2.10077	24321721.08972742
2.10293	24458190.381699737
2.10509	24568150.128304478
2.10725	24541462.981425554
2.1094	24349238.874378406
2.11155	24068726.935074963
2.1137	23996822.786922995
2.11585	24247550.116818856
2.11799	24586048.520039193
2.12013	24857841.28543154
2.12227	25008249.455297627
2.12441	25068848.324986015
2.12655	25109080.338468906
2.12868	25146969.296124928
2.13081	25196548.45582031
2.13294	25280870.16392307
2.13507	25375678.415785775
2.13719	25440290.17487942
2.13931	25474979.236401394
2.14143	25496534.23321843
2.14355	25533862.13958644
2.14567	25581780.624716986
2.14778	25594769.4851902
2.14989	25576388.98120448
2.152	25471477.866559103
2.1541	25261162.05750955
2.15621	25305636.653275725
2.15831	25623605.786603156
2.16041	25790784.505571388
2.16251	25868828.21855386
2.1646	25951092.735740837
2.1667	26037897.70060466
2.16879	26115070.658053916
2.17087	26092296.650773432
2.17296	26035344.896851033
2.17504	26119462.463983316
2.17713	26295891.756048128
2.1792	26412692.68299926
2.18128	26473713.026791744
2.18336	26512506.431523275
2.18543	26534908.41985108
2.1875	26546451.525422312
2.18957	26578857.55982103
2.19163	26635866.112889607
2.1937	26658742.750720065
2.19576	26535662.118393213
2.19782	26154246.08880924
2.19987	25854616.50427661
2.20193	25931086.22227014
2.20398	26245887.46873135
2.20603	26624924.298705336
2.20808	26910360.129141636
2.21012	27057748.18598604
2.21217	27055692.065597884
2.21421	26843956.742210343
2.21625	26587473.458809927
2.21828	26561279.590997208
2.22032	26676782.375582483
2.22235	26635381.53268297
2.22438	26418772.04919681
2.22641	26321916.99312163
2.22843	26526271.86024993
2.23046	26785160.813297544
2.23248	26902521.12080391
2.2345	27004827.55998366
2.23651	27052636.692264646
2.23853	26809369.419056296
2.24054	26346779.439169798
2.24255	26308575.251877595
2.24456	26687497.622692943
2.24657	26698365.411569137
2.24857	26377235.15162015
2.25057	25969871.29365379
2.25257	25397821.381153204
2.25457	24541069.821025766
2.25656	24671899.104234736
2.25856	25768654.895622883
2.26055	26489692.754018273
2.26254	26827558.734311294
2.26453	27102433.161394347
2.26651	27191833.184503727
2.2685	27086110.810367245
2.27048	26979986.822160784
2.27246	27028234.87672423
2.27443	26958763.027841743
2.27641	26859883.21850085
2.27838	27142462.781152166
2.28036	27674807.640197996
2.28233	27441434.437639933
2.28429	25679643.14309465
2.28626	23473689.467604544
2.28823	23355516.9437613
2.29019	24574048.511623323
2.29215	24629884.738835305
2.29411	23973607.58312719
2.29607	24044636.83554207
2.29802	25066159.317752834
2.29998	26166361.415777873
2.30193	27118799.358621955
2.30388	27651029.414877262
2.30583	27972797.38681284
2.30778	28178210.1024091
2.30972	28320633.307294827
2.31167	28256632.970991567
2.31361	27309561.838468306
2.31555	25416040.313289028
2.31749	24432263.42330274
2.31943	24786888.14711625
2.32137	24791785.390990295
2.32331	23893404.47003191
2.32524	23648882.741385818
2.32718	24629830.84958176
2.32911	25210375.642228775
2.33104	25061902.53234049
2.33297	24802887.328631975
2.3349	25140571.06825088
2.33683	25864288.014320955
2.33876	26435428.957159735
2.34068	26619050.777192056
2.34261	26340446.33752457
2.34453	25254737.187741622
2.34646	23538426.69170963
2.34838	23194158.015474204
2.3503	24098987.328418706
2.35223	25151982.768506926
2.35415	24932441.665152192
2.35607	23803474.056732845
2.35799	23221081.010187842
2.35991	23621586.079337705
2.36183	24839277.02661366
2.36375	25853959.69277608
2.36566	24947552.407776624
2.36758	22466428.1715332
2.3695	20921533.57605831
2.37142	21441351.63010758
2.37334	21908747.15714103
2.37526	22270766.09663548
2.37718	22246634.54666299
2.3791	22016862.810412925
2.38101	22298144.856710047
2.38293	23963967.484206907
2.38485	25163356.791560557
2.38677	25515978.196645178
2.3887	26482302.524415035
2.39062	28133179.28658405
2.39254	28938070.90916099
2.39446	28965257.82982933
2.39639	28224561.15809663
2.39831	26743266.704849288
2.40024	24941184.24119343
2.40216	23921035.95021726
2.40409	24061228.621476714
2.40602	24829657.341002554
2.40795	25630911.602439996
2.40989	26186788.67101945
2.41182	25931180.18453643
2.41376	24296426.557297733
2.4157	22793926.37324587
2.41764	22815902.85007641
2.41958	23884148.081534885
