#wavelength	surface flux
0.8	6277.330783104206
0.8002000000000001	6306.814570367831
0.8004000500000003	6329.202876422536
0.8006001500125003	6352.896109106572
0.8008003000500035	6376.046097054831
0.8010005001250161	6402.308953435006
0.8012007502500472	6430.9671511741835
0.8014010504376099	6457.7113846017255
0.8016014007002193	6480.827698849115
0.8018018010503944	6500.638234953847
0.8020022515006572	6528.9035693376345
0.8022027520635323	6559.363476832346
0.8024033027515483	6583.542999129449
0.8026039035772362	6600.080739189389
0.8028045545531306	6624.3180054441755
0.8030052556917691	6642.140417027839
0.803206007005692	6685.687701985475
0.8034068085074435	6716.199334650375
0.8036076602095705	6741.131174581659
0.8038085621246229	6768.978273824531
0.8040095142651542	6794.250680102819
0.8042105166437206	6818.097278541469
0.8044115692728815	6842.40502719804
0.8046126721651998	6859.340067690661
0.8048138253332411	6896.573540789551
0.8050150287895745	6926.722669768831
0.805216282546772	6953.745813826452
0.8054175866174087	6980.13802755814
0.8056189410140631	7007.1825757989145
0.8058203457493168	7034.262620585753
0.8060218008357541	7060.632607656981
0.8062233062859632	7081.989408596533
0.8064248621125346	7116.715551417707
0.806626468328063	7145.066067704088
0.8068281249451449	7169.093534887205
0.8070298319763813	7198.456234781266
0.8072315894343755	7223.11643977636
0.8074333973317341	7241.568912479897
0.8076352556810671	7282.633549546614
0.8078371644949874	7314.574989150056
0.8080391237861113	7342.341369200253
0.8082411335670578	7369.561923277111
0.8084431938504498	7396.11479418276
0.8086453046489125	7426.001583896467
0.8088474659750746	7450.403327918639
0.8090496778415686	7474.327151597534
0.809251940261029	7497.781903838185
0.8094542532460944	7497.193593193428
0.8096566168094059	7523.2237097453435
0.8098590309636085	7589.256215658062
0.8100614957213493	7620.8037632284995
0.8102640110952797	7642.580374858967
0.8104665770980536	7682.397977161233
0.8106691937423283	7691.310491233811
0.8108718610407639	7589.1618499987935
0.8110745790060241	7552.62795745905
0.8112773476507757	7740.641494717797
0.8114801669876885	7756.371814392106
0.8116830370294355	7770.965442053356
0.8118859577886929	7874.651572832701
0.8120889292781401	7921.003579743514
0.8122919515104597	7954.17650573135
0.8124950244983374	7989.4121735045355
0.8126981482544621	8017.362058796083
0.8129013227915257	8044.062111109661
0.8131045481222237	8075.7589681934
0.8133078242592543	8092.442493548425
0.8135111512153191	8057.9626555894665
0.813714529003123	8102.868150745797
0.8139179576353739	8186.587471736646
0.8141214371247829	8208.984433611608
0.8143249674840641	8183.979924498842
0.814528548725935	8067.672120465261
0.8147321808631167	8179.212598326587
0.8149358639083326	8312.853043919187
0.8151395978743097	8270.201234320495
0.8153433827737784	8356.151769533446
0.8155472186194719	8447.514950243232
0.8157511054241268	8485.341452914352
0.815955043200483	8513.724982868665
0.8161590319612831	8551.855435744303
0.8163630717192736	8578.951180110587
0.8165671624872033	8614.992952018585
0.8167713042778252	8655.03690455648
0.8169754971038948	8689.972800768875
0.8171797409781707	8719.140084266051
0.8173840359134155	8753.291847580218
0.8175883819223938	8784.972070568
0.8177927790178745	8818.32677729225
0.8179972272126291	8832.683413980374
0.8182017265194322	8759.729175109444
0.8184062769510622	8455.806698505632
0.8186108785203001	8838.664085615297
0.8188155312399301	8981.6516553397
0.8190202351227402	9003.00789978338
0.819224990181521	9056.534773665726
0.8194297964290664	9082.785350254871
0.8196346538781738	9089.292045711074
0.8198395625416434	9129.658426492852
0.8200445224322789	9159.547596043254
0.820249533562887	9223.98487800231
0.8204545959462778	9261.072823203234
0.8206597095952644	9297.396289574712
0.8208648745226633	9330.4440593032
0.8210700907412941	9361.005108022484
0.8212753582639793	9404.287127682179
0.8214806771035456	9438.655135886285
0.8216860472728215	9473.709571560861
0.8218914687846397	9517.146405211091
0.822096941651836	9553.635934858254
0.822302465887249	9588.101229811371
0.8225080415037209	9624.196753233648
0.8227136685140968	9597.327025999752
0.8229193469312254	9360.29430691311
0.8231250767679583	9422.029040031233
0.8233308580371503	9647.386747957842
0.8235366907516598	9664.300999592902
0.8237425749243477	9669.66613507269
0.8239485105680789	9811.490723921139
0.824154497695721	9910.858459169558
0.824360536320145	9955.083964268497
0.8245666264542252	9995.616771981968
0.8247727681108388	10031.537615956804
0.8249789613028664	10047.695314822651
0.8251852060431922	10097.374842974823
0.825391502344703	10149.172717790561
0.8255978502202894	10190.203000953486
0.8258042496828445	10228.149219817424
0.8260107007452654	10260.125297044146
0.8262172034204517	10274.733233060291
0.8264237577213068	10191.371806662462
0.8266303636607373	10040.935458916345
0.8268370212516525	10348.418848656027
0.8270437305069654	10460.328779980695
0.8272504914395923	10495.212089226688
0.8274573040624523	10533.198948958749
0.8276641683884679	10568.325072649284
0.8278710844305652	10603.291133901594
0.8280780522016729	10653.521781370031
0.8282850717147234	10694.443337671268
0.8284921429826521	10735.465168754865
0.8286992660183978	10764.875168867084
0.8289064408349024	10776.271298902544
0.8291136674451112	10812.4913305871
0.8293209458619727	10880.343855472467
0.8295282760984382	10929.47437450952
0.829735658167463	10953.063379100184
0.8299430920820048	10998.649510784779
0.8301505778550254	11054.804364073054
0.8303581154994891	11103.397419918649
0.8305657050283641	11143.41763378411
0.8307733464546212	11176.665952321242
0.8309810397912352	11186.586832012936
0.8311887850511829	11211.538947484618
0.8313965822474458	11100.774957440828
0.8316044313930077	11157.492684256633
0.8318123325008561	11359.711185177921
0.8320202855839813	11442.303326196028
0.8322282906553774	11485.241964039102
0.8324363477280413	11521.967775313025
0.8326444568149735	11561.354787950553
0.8328526179291771	11609.331755924313
0.8330608310836596	11648.064297804342
0.8332690962914304	11678.321270567283
0.8334774135655034	11727.033770529104
0.833685782918895	11778.228066178077
0.8338942043646247	11815.765490049933
0.834102677915716	11861.357506579794
0.834311203585195	11908.667572824901
0.8345197813860912	11951.720646891708
0.8347284113314379	12001.196503101975
0.8349370934342709	12046.221122722758
0.8351458277076294	12092.53640168512
0.8353546141645565	12137.235467896511
0.8355634528180977	12170.876003494574
0.8357723436813022	12215.119040158701
0.8359812867672226	12250.61136754053
0.8361902820889144	12292.511791593011
0.8363993296594368	12349.946840047307
0.8366084294918518	12381.395216247538
0.8368175815992247	12453.883383944627
0.8370267859946247	12492.09432643561
0.8372360426911234	12515.470240587205
0.8374453517017962	12579.09815284643
0.8376547130397217	12618.759341485656
0.8378641267179816	12680.85380460753
0.8380735927496613	12737.429828793138
0.8382831111478488	12757.872832766094
0.8384926819256358	12737.027318775461
0.8387023050961173	12794.209728528513
0.8389119806723914	12896.767051046885
0.8391217086675596	12961.850522625253
0.8393314890947265	13023.48552210897
0.8395413219670003	13071.612965676704
0.8397512072974922	13111.51625776522
0.8399611450993165	13138.350478676592
0.8401711353855914	13096.796258144532
0.8403811781694378	13187.342803408123
0.8405912734639802	13299.441048973435
0.8408014212823464	13354.957678737688
0.8410116216376671	13407.101715384693
0.8412218745430766	13452.535909780221
0.8414321800117124	13511.939113792696
0.8416425380567154	13562.1845802572
0.8418529486912297	13610.337657267297
0.8420634119284025	13659.221637893746
0.8422739277813847	13710.64348491069
0.8424844962633302	13761.19977624052
0.842695117387396	13800.348876421926
0.8429057911667428	13835.504797758998
0.8431165176145345	13893.95596252398
0.8433272967439382	13959.138422042948
0.8435381285681244	14012.2113008412
0.8437490131002665	14063.877446995557
0.8439599503535415	14104.389455615456
0.84417094034113	14110.941688354895
0.8443819830762154	14181.661120515882
0.8445930785719846	14178.350075370307
0.8448042268416277	14301.329114997772
0.8450154278983382	14377.94332122626
0.8452266817553128	14422.81237552234
0.8454379884257517	14470.845697951532
0.8456493479228583	14523.877921388981
0.845860760259839	14589.966380887876
0.846072225449904	14636.052562715236
0.8462837435062666	14615.463054726873
0.8464953144421433	14518.732147495835
0.8467069382707537	14621.817870342904
0.8469186150053215	14824.068329586456
0.847130344659073	14903.153311132257
0.8473421272452377	14955.716836319078
0.8475539627770492	14985.709129584511
0.8477658512677435	15059.028708230524
0.8479777927305605	15114.216396170425
0.8481897871787432	15151.997616335313
0.848401834625538	15226.628281332
0.8486139350841944	15294.148608090396
0.8488260885679657	15327.292232856937
0.8490382950901076	15337.777384591478
0.8492505546638802	15426.149089093376
0.8494628673025462	15500.052640683129
0.8496752330193721	15569.700603093928
0.8498876518276269	15632.068919013396
0.8501001237405839	15684.437283285813
0.8503126487715191	15738.421366274928
0.850525226933712	15796.529513429
0.8507378582404455	15857.245273483079
0.8509505427050057	15912.77912999572
0.8511632803406821	15972.150166417572
0.8513760711607672	16030.326219778126
0.8515889151785576	16088.033045682238
0.8518018124073523	16145.271223709726
0.8520147628604541	16193.346090017856
0.8522277665511693	16226.500949180601
0.8524408234928071	16316.947980476107
0.8526539336986805	16383.564916771644
0.8528670971821053	16440.70815288241
0.8530803139564007	16495.049088265976
0.8532935840348901	16547.91222853505
0.8535069074308987	16607.307972389062
0.8537202841577566	16673.602441789244
0.8539337142287962	16722.81372199174
0.8541471976573534	16736.51468257954
0.8543607344567677	16828.601357652868
0.8545743246403821	16917.94541794596
0.8547879682215422	16981.03398999919
0.8550016652135977	17035.166545069198
0.8552154156299011	17095.791206041715
0.8554292194838088	17159.532594198423
0.8556430767886797	17214.87626685069
0.855856987557877	17288.543722467995
0.8560709518047664	17354.653563895234
0.8562849695427177	17414.79274282233
0.8564990407851035	17476.75310807712
0.8567131655452999	17542.08477472576
0.8569273438366862	17606.070521907663
0.8571415756726455	17665.307621197273
0.8573558610665638	17708.559507071557
0.8575702000318304	17785.29460539634
0.8577845925818384	17852.753169171097
0.857999038729984	17923.614026769483
0.8582135384896665	17985.848824220604
0.858428091874289	18040.301040592854
0.8586426988972576	18102.49878621662
0.8588573595719821	18170.334100379052
0.8590720739118751	18237.58056431961
0.8592868419303532	18298.23294730667
0.8595016636408359	18364.982551636214
0.8597165390567462	18436.644693046488
0.8599314681915105	18502.12028107033
0.8601464510585584	18566.346759277058
0.860361487671323	18631.967808728805
0.8605765780432408	18700.763747060635
0.8607917221877518	18762.694902741427
0.8610069201182988	18830.058512071275
0.8612221718483286	18898.303277667423
0.8614374773912907	18965.11936629906
0.8616528367606385	19031.004715211337
0.8618682499698288	19073.19925961526
0.8620837170323213	19133.410536374868
0.8622992379615795	19214.10338706171
0.8625148127710699	19256.866874796942
0.8627304414742627	19320.047073466016
0.8629461240846313	19423.631116873126
0.8631618606156526	19501.80755708185
0.8633776510808066	19573.388700365053
0.8635934954935769	19642.91695947815
0.8638093938674504	19716.033686568746
0.8640253462159173	19747.3030757326
0.8642413525524714	19754.01963197286
0.8644574128906095	19897.377487540834
0.8646735272438323	19937.48540706332
0.8648896956256433	19967.642496350792
0.8651059180495498	20103.04879843333
0.8653221945290621	20204.537227623205
0.8655385250776946	20270.735395358264
0.8657549097089641	20350.70790010444
0.8659713484363913	20425.977346197316
0.8661878412735006	20504.761272553544
0.866404388233819	20576.780587558314
0.8666209893308775	20643.77767444355
0.8668376445782103	20725.75938258789
0.8670543539893549	20799.376055174842
0.8672711175778525	20861.259051119636
0.8674879353572469	20925.71252189267
0.8677048073410862	21008.627801114188
0.8679217335429217	21086.455548543687
0.8681387139763074	21159.627064075303
0.8683557486548015	21219.298451001425
0.8685728375919655	21304.076717688353
0.8687899808013633	21389.665563179544
0.8690071782965637	21466.030712332067
0.869224430091138	21542.241633744474
0.8694417361986609	21616.940243494548
0.8696590966327107	21683.466441584747
0.869876511406869	21734.0531955361
0.8700939805347206	21805.582250390882
0.8703115040298544	21913.03816192437
0.870529081905862	21998.927908280035
0.8707467141763385	22079.54934845282
0.8709644008548827	22150.382194650258
0.8711821419550964	22217.435359669522
0.8713999374905854	22291.40182497865
0.871617787474958	22386.08103929885
0.8718356919218269	22456.73399589041
0.8720536508448075	22526.00917524268
0.8722716642575187	22615.817843711207
0.8724897321735832	22703.35253464313
0.8727078546066265	22782.976966735387
0.8729260315702784	22864.81834574931
0.873144263078171	22947.984325142752
0.8733625491439405	23030.997150531886
0.8735808897812266	23110.962025700308
0.8737992850036719	23159.240298968878
0.874017734824923	23181.60392384754
0.8742362392586293	23329.72489693188
0.874454798318444	23420.58035870586
0.8746734120180236	23510.779006784684
0.8748920803710283	23594.241530635714
0.875110803391121	23677.117167557568
0.8753295810919689	23760.975066066912
0.875548413487242	23849.36107436584
0.8757673005906139	23935.281567692236
0.8759862424157616	24011.314492200127
0.8762052389763657	24089.29471951272
0.8764242902861098	24177.5292991398
0.8766433963586814	24255.462464604647
0.8768625572077712	24344.62656124764
0.8770817728470732	24424.933085929675
0.8773010432902849	24520.791949881404
0.8775203685511077	24613.118478737157
0.8777397486432454	24699.29878611557
0.8779591835804065	24785.729378845383
0.8781786733763015	24869.99717143991
0.8783982180446457	24953.834322441766
0.878617817599157	25034.602329792753
0.8788374720535569	25129.206766631203
0.8790571814215703	25210.67553010096
0.8792769457169257	25293.96734173063
0.879496764953355	25391.753770442338
0.8797166391445934	25483.258610115514
0.8799365683043796	25571.185919774984
0.8801565524464557	25658.337971038975
0.8803765915845676	25747.745582974887
0.8805966857324639	25838.071367269822
0.880816834903897	25916.927828791457
0.881037039112623	25990.034715708982
0.8812572983724012	26081.57302384578
0.8814776126969944	26164.361218204678
0.8816979821001687	26274.442922280617
0.8819184065956938	26375.170045634015
0.8821388861973429	26462.799517002484
0.8823594209188923	26550.242453448187
0.882580010774122	26646.434380553448
0.8828006557768155	26741.635472607315
0.8830213559407598	26834.1663942272
0.8832421112797452	26925.486586522245
0.8834629218075651	26966.08630286287
0.8836837875380171	26983.888427261296
0.8839047084849018	27127.872482466875
0.884125684662023	27292.03273029653
0.8843467160831886	27394.72340434354
0.8845678027622095	27489.33684102672
0.8847889447129001	27582.141637515688
0.8850101419490785	27673.776225064
0.8852313944845657	27768.956063210222
0.885452702333187	27868.823345224406
0.8856740655087704	27953.13354015961
0.8858954840251476	27994.454987490026
0.8861169578961539	28097.648274912084
0.886338487135628	28243.170296231736
0.886560071757412	28348.388392790814
0.8867817117753515	28449.388702326854
0.8870034072032955	28549.99754935723
0.8872251580550963	28646.82510365322
0.8874469643446101	28735.65158945893
0.8876688260856963	28823.807546238095
0.8878907432922178	28933.595247654674
0.8881127159780409	29029.563747471726
0.8883347441570356	29096.328378965754
0.8885568278430749	29189.927985353963
0.8887789670500358	29319.510694418375
0.8890011617917983	29424.76976956303
0.8892234120822464	29538.929229094876
0.8894457179352669	29643.28723867726
0.8896680793647509	29738.06783397514
0.8898904963845921	29802.389853232955
0.8901129690086883	29902.593628320854
0.8903354972509405	30038.48376652126
0.8905580811252535	30144.044861877774
0.8907807206455347	30022.527996333287
0.8910034158256963	29450.43538071456
0.8912261666796527	30066.49281548205
0.8914489732213227	30494.955645683185
0.8916718354646282	30469.724637903644
0.8918947534234944	30474.783483312578
0.8921177271118502	30440.67761174552
0.8923407565436284	29958.863193067988
0.8925638417327644	30562.333162241248
0.8927869826931977	31113.792122269082
0.8930101794388711	31248.960358638877
0.8932334319837308	30920.408494055853
0.8934567403417267	30589.80832738056
0.8936801045268123	31405.538806353565
0.8939035245529441	31649.68630387508
0.8941270004340824	31679.133325968403
0.894350532184191	31454.902537790786
0.8945741198172371	31728.557669641625
0.8947977633471915	32113.699523629035
0.8950214627880284	32260.87655115385
0.8952452181537254	32342.438493178324
0.8954690294582639	32434.39460436382
0.8956928967156286	32570.528697421294
0.8959168199398075	32604.18201526959
0.8961407991447926	32646.584600056616
0.8963648343445789	32567.763946864052
0.896588925553165	32194.617966524867
0.8968130727845534	32648.256196946975
0.8970372760527496	32615.528512738034
0.8972615353717629	30249.143665691954
0.8974858507556059	29873.960379415457
0.8977102222182949	33003.06396262664
0.8979346497738496	33716.13666603195
0.8981591334362931	33825.01388471223
0.8983836732196523	33925.458025758024
0.8986082691379572	33972.964712533874
0.8988329212052417	32307.182134002916
0.8990576294355432	29817.70350386331
0.8992823938429022	32152.92010024532
0.8995072144413631	34007.37138786577
0.8997320912449734	34563.66736802228
0.8999570242677847	34724.763411870954
0.9001820135238516	34804.37664752648
0.9004070590272328	34423.0360412129
0.9006321607919896	33435.001938313
0.9008573188321878	34076.25543176666
0.9010825331618959	34182.43498136263
0.9013078037951865	35191.36830064997
0.9015331307461353	35477.13527267103
0.9017585140288219	35624.454870643145
0.9019839536573292	35793.27360933538
0.9022094496457435	35932.15470226996
0.9024350020081551	36039.04605578381
0.9026606107586572	36146.71414217612
0.902886275911347	36247.012782690734
0.9031119974803249	36255.24382425465
0.9033377754796951	36418.47881778582
0.903563609923565	36635.9356143625
0.903789500826046	36713.78023526341
0.9040154482012526	36655.57996607371
0.904241452063303	36958.37413330997
0.9044675124263188	37032.52674666941
0.9046936293044254	37051.82509408612
0.9049198027117517	37245.72102576194
0.9051460326624297	37445.53585583375
0.9053723191705955	37632.08084966798
0.9055986622503881	37776.85043963602
0.9058250619159507	37907.288863203394
0.9060515181814298	38004.520791528725
0.9062780310609752	37943.73607920122
0.9065046005687405	38029.099054102764
0.906731226718883	38294.048676290455
0.9069579095255627	38455.932542532595
0.907184649002944	38538.08601462318
0.907411445165195	38734.79494485855
0.9076382980264862	38798.10851737109
0.907865207600993	38852.324550547855
0.9080921739028933	39054.15617890944
0.9083191969463691	39186.7467491892
0.9085462767456058	39160.92683174581
0.9087734133147922	39061.484600558324
0.9090006066681211	39528.24577745474
0.909227856819788	39758.736588352825
0.9094551637839932	39856.606035780474
0.9096825275749393	40029.35176655698
0.9099099482068329	39949.77479377996
0.9101374256938848	40062.297687008875
0.9103649600503083	40083.28004811051
0.9105925512903209	40461.932000978464
0.9108201994281437	40577.5495822639
0.9110479044780008	40719.17195730818
0.9112756664541204	40954.65487504557
0.911503485370734	41121.41438436644
0.9117313612420768	41233.042730156194
0.9119592940823873	41394.10251994208
0.912187283905908	41568.74317626309
0.9124153307268845	41707.32866036398
0.9126434345595664	41839.990062138524
0.9128715954182063	41968.37561948209
0.9130998133170609	42078.80944060218
0.9133280882703902	42107.68635159057
0.913556420292458	42267.44883517511
0.9137848093975312	42441.24967065723
0.9140132555998806	42664.95636982944
0.9142417589137806	42734.23458585838
