#wavelength	surface flux
0.7	59.62063243800006
0.7001166666666666	59.85910961241646
0.7002333527777778	60.087340302404506
0.700350058336574	60.28990416285711
0.7004667833462966	60.501967248351185
0.7005835278101878	60.72114528436502
0.7007002917314895	60.93182307624788
0.7008170751134447	61.14169068110069
0.7009338779592968	61.354846562409236
0.7010507002722901	61.568603301855255
0.7011675420556689	61.78313308251838
0.701284403312678	61.99336379356816
0.7014012840465635	62.20185754546188
0.7015181842605713	62.40095616223794
0.701635103957948	62.59800983222018
0.701752043141941	62.790252102368484
0.701869001815798	63.010837938410354
0.7019859799827672	63.25114057302193
0.7021029776460976	63.45230561875685
0.7022199948090387	63.65183243352392
0.7023370314748403	63.86916980986671
0.7024540876467528	64.10351049247008
0.702571163328027	64.35764650422342
0.7026882585219152	64.5896050384708
0.7028053732316688	64.8136287168764
0.7029225074605406	65.0228716392902
0.7030396612117841	65.22194349631891
0.7031568344886527	65.40110421044658
0.7032740272944008	65.63507558797075
0.7033912396322832	65.9010341159495
0.7035084715055552	66.14583681069071
0.7036257229174727	66.38312800365843
0.7037429938712924	66.59967564899168
0.7038602843702709	66.82644498113358
0.7039775944176659	67.06288542009807
0.7040949240167356	67.2949240731344
0.7042122731707383	67.52613803157705
0.7043296418829335	67.75897545114304
0.7044470301565806	67.98694000425704
0.70456443799494	68.20759335972838
0.7046818654012724	68.43969935337161
0.7047993123788394	68.6768038632117
0.7049167789309024	68.89142910264817
0.7050342650607243	69.1202131873885
0.7051517707715678	69.38366460409411
0.7052692960666963	69.6338322850662
0.705386840949374	69.8747642346371
0.7055044054228656	70.1074891497373
0.7056219894904361	70.34179128827827
0.7057395931553511	70.58734194306972
0.705857216420877	70.83429806821596
0.7059748592902804	71.08273622597208
0.7060925217668288	71.32684984845652
0.70621020385379	71.56982439514113
0.7063279055544321	71.81291089328894
0.7064456268720246	72.05605736603754
0.7065633678098366	72.29927511711462
0.7066811283711383	72.53948317086585
0.7067989085592001	72.77835374660332
0.7069167083772933	73.01892292779888
0.7070345278286895	73.24777389077757
0.707152366916661	73.44825620719911
0.7072702256444803	73.62892140496018
0.7073881040154211	73.79615012797638
0.7075060020327569	74.13589910993768
0.7076239196997625	74.48126645657814
0.7077418570197124	74.77245482997994
0.7078598139958823	75.04531417603731
0.7079777906315483	75.30035187395275
0.7080957869299869	75.54703434390282
0.7082138028944751	75.79477826206812
0.7083318385282908	76.06497417684413
0.7084498938347124	76.33078812134357
0.708567968817018	76.59059749803048
0.7086860634784875	76.81913229573837
0.7088041778224007	77.03336194476032
0.7089223118520377	77.17438013518414
0.7090404655706796	77.40404396842347
0.709158638981608	77.80391635642353
0.709276832088105	78.09673916402808
0.7093950448934531	78.33193728639493
0.7095132774009353	78.36779408737405
0.7096315296138355	78.52145631616
0.7097498015354378	79.02320369092192
0.7098680931690269	79.3859145068262
0.7099864045178884	79.64610891353995
0.7101047355853081	79.94499559875392
0.7102230863745722	80.24548305136052
0.7103414568889679	80.53171264260719
0.7104598471317828	80.81697251824475
0.7105782571063047	81.10128451955134
0.7106966868158224	81.3532854310241
0.710815136263625	81.60471107158845
0.7109336054530023	81.90164909398598
0.7110520943872445	82.19710946173525
0.7111706030696424	82.49067239571114
0.7112891315034873	82.77829316675853
0.7114076796920712	83.06412400094993
0.7115262476386865	83.35200095406348
0.7116448353466263	83.6314987809135
0.711763442819184	83.89717862668492
0.711882070059654	84.18510445679257
0.7120007170713306	84.48288713453259
0.7121193838575091	84.7671842849268
0.7122380704214853	85.05104417158675
0.7123567767665555	85.33392493224387
0.7124755028960166	85.59846056370634
0.7125942488131658	85.85250948130357
0.7127130145213015	86.1188850031353
0.7128318000237216	86.39795875268874
0.7129506053237256	86.70998740063912
0.7130694304246129	87.00656491201525
0.7131882753296837	87.29216066195006
0.7133071400422386	87.57081700352684
0.7134260245655789	87.80206051392607
0.7135449289030065	87.86670096105644
0.7136638530578235	88.18049769071074
0.7137827970333332	88.70926208569172
0.7139017608328388	89.04741051937637
0.7140207444596443	89.35527370442361
0.7141397479170543	89.6722009989001
0.7142587712083737	89.96201826522437
0.7143778143369084	90.22403191393462
0.7144968773059646	90.58070556777845
0.7146159601188489	90.94830112169787
0.7147350627788687	91.24610613628968
0.7148541852893318	91.5501117644802
0.7149733276535467	91.86154080087714
0.7150924898748222	92.13019728519156
0.715211671956468	92.39683810760073
0.7153308739017941	92.75833293784257
0.715450095714111	93.10998043210394
0.71556933739673	93.44801297239052
0.7156885989529628	93.7686163039744
0.7158078803861218	94.08224230190721
0.7159271816995193	94.38208844829346
0.7160465028964692	94.62463605999993
0.7161658439802853	94.77740782068153
0.7162852049542819	94.86834547198283
0.7164045858217744	94.94575952454674
0.716523986586078	95.30517461876738
0.7166434072505089	95.20841087798397
0.716762847818384	94.31254690207777
0.7168823082930204	94.98409998187128
0.7170017886777359	96.35309207866187
0.7171212889758488	97.04076942571847
0.7172408091906781	97.48755268501817
0.7173603493255433	97.46948564454019
0.7174799093837642	97.63825729364694
0.7175994893686615	97.89978252907325
0.7177190892835562	98.4052377603659
0.7178387091317702	98.95973146078407
0.7179583489166254	99.614473328309
0.7180780086414448	99.97788318707039
0.7181976883095517	100.18571877908099
0.7183173879242699	100.69292184318289
0.718437107488924	101.15007009782339
0.7185568470068389	101.4825235010081
0.7186766064813399	101.6510515497553
0.7187963859157535	101.72722072379064
0.7189161853134061	102.31398338529182
0.719036004677625	102.85624168096291
0.7191558440117378	103.25776012213174
0.7192757033190732	103.62797898044772
0.7193955826029597	103.979961140016
0.7195154818667269	104.27930358097115
0.7196354011137046	104.59141215338236
0.7197553403472235	104.93875134065546
0.7198752995706147	105.31528004181312
0.7199952787872098	105.70915214142406
0.720115278000341	106.0315928634699
0.7202352972133411	106.35491225462353
0.7203553364295432	106.68729654740314
0.7204753956522815	106.99954283681649
0.7205954748848902	107.29987682095238
0.7207155741307044	107.69596573947199
0.7208356933930594	108.10295952292532
0.7209558326752915	108.52679647143597
0.7210759919807375	108.86382070050084
0.7211961713127342	109.15039517772011
0.7213163706746197	109.30349934022384
0.7214365900697322	109.54908115176214
0.7215568295014103	110.01608886663001
0.721677088972994	110.48928046213665
0.7217973684878227	110.96597093194873
0.7219176680492374	111.16226016539888
0.7220379876605789	111.46111177058968
0.722158327325189	111.99586565861703
0.7222786870464099	112.48814210486034
0.7223990668275843	112.95795357772413
0.7225194666720555	113.34662513609406
0.7226398865831676	113.71812860304802
0.7227603265642646	114.05617535619686
0.722880786618692	114.30149112990586
0.7230012667497951	114.50381750390814
0.7231217669609201	114.9456474757582
0.7232422872554135	115.36240904814194
0.7233628276366229	115.73271859744565
0.7234833881078956	116.16177883577419
0.7236039686725803	116.60349863669232
0.7237245693340255	116.64624998083829
0.7238451900955812	116.88695597917217
0.7239658309605971	117.45816836876529
0.7240864919324239	118.02114489501415
0.7242071730144127	118.57086506431624
0.724327874209915	118.96148281025263
0.7244485955222832	119.38236980932754
0.7245693369548704	119.84816362381918
0.7246900985110294	120.25694853417676
0.7248108801941148	120.65002996943095
0.7249316820074803	121.08015071800897
0.7250525039544815	121.49460532888428
0.7251733460384739	121.88864759117008
0.7252942082628137	122.25401937110587
0.7254150906308574	122.60849518903792
0.7255359931459625	122.9432202435435
0.7256569158114868	123.29844955389613
0.7257778586307888	123.67673800947313
0.7258988216072273	124.14556023552498
0.7260198047441617	124.62912900119026
0.7261408080449525	125.08413727411255
0.72626183151296	125.49414527689585
0.7263828751515454	125.86106259502512
0.7265039389640706	126.31568108154268
0.726625022953898	126.75927705018552
0.7267461271243904	127.10488410517733
0.7268672514789111	127.45248017510048
0.7269883960208241	127.80168162552731
0.7271095607534942	128.3344540288604
0.7272307456802866	128.85544994253053
0.7273519508045666	129.28443275346166
0.7274731761297006	129.66656629788778
0.7275944216590555	130.01794910169554
0.7277156873959987	130.3671261044212
0.7278369733438982	130.59816478132998
0.727958279506122	130.559915265509
0.7280796058860397	131.16703457895383
0.7282009524870207	132.10960433401183
0.7283223193124353	132.6805842407062
0.7284437063656539	133.20715756637063
0.7285651136500483	133.6547111329313
0.7286865411689898	134.07685169369105
0.7288079889258514	134.47945818569931
0.7289294569240056	134.74963062501155
0.7290509451668262	135.1003243086589
0.7291724536576875	135.56252932912298
0.7292939823999636	136.10258150412224
0.7294155313970303	136.6579791264708
0.7295371006522632	137.1619729912932
0.7296586901690385	137.62056397631164
0.7297802999507332	138.03047413275482
0.7299019300007252	138.28298030103127
0.7300235803223919	138.5299353746739
0.7301452509191123	138.8802853514603
0.7302669417942654	139.21923575826074
0.7303886529512311	139.54887007531462
0.7305103843933897	139.17110373945633
0.7306321361241218	139.23244990964523
0.7307539081468093	140.7215722416955
0.7308757004648336	141.64608828232258
0.7309975130815778	142.22677731251977
0.7311193460004248	142.8072094411778
0.7312411992247582	143.37730703562974
0.7313630727579622	143.92708980887156
0.7314849666034219	144.39227136106464
0.7316068807645224	144.80965598616686
0.7317288152446498	145.04217610216492
0.7318507700471907	145.39944603256913
0.7319727451755319	145.93166220690287
0.732094740633061	146.60832737474456
0.7322167564231665	147.28195369231554
0.7323387925492371	147.6749282351145
0.7324608490146619	148.1648256461847
0.732582925822831	148.75224886360454
0.7327050229771347	149.29572715348525
0.7328271404809642	149.82009929043537
0.7329492783377112	150.30243493638565
0.7330714365507675	150.79361744877576
0.7331936151235259	151.2911072711059
0.7333158140593796	151.70676055219164
0.7334380333617229	152.14930583353416
0.7335602730339499	152.6613061814464
0.7336825330794556	153.1917906807849
0.7338048135016354	153.72658666793797
0.7339271143038857	154.14835188111894
0.734049435489603	154.41327376590888
0.7341717770621846	154.44685411704327
0.7342941390250283	155.14760400634233
0.7344165213815324	156.00793230392793
0.734538924135096	156.60829325095833
0.7346613472891185	157.1809645182482
0.734783790847	157.72605983231452
0.7349062548121412	157.98368640692973
0.7350287391879431	157.95586079603757
0.7351512439778078	157.13974981635556
0.7352737691851374	157.91881520836074
0.735396314813335	159.75257068772189
0.7355188808658037	160.4804566913183
0.7356414673459482	161.16374165776955
0.7357640742571725	161.8267409467688
0.7358867016028818	162.3615909348541
0.7360093493864824	162.83700656175571
0.7361320176113801	163.23530953001966
0.736254706280982	163.578779282146
0.7363774153986956	163.85407228658457
0.7365001449679286	163.75184574189666
0.7366228949920899	163.69001925677202
0.7367456654745885	164.1759806385509
0.7368684564188344	165.2769327639382
0.7369912678282374	166.86620957365534
0.7371140997062088	167.6826707436313
0.7372369520561599	168.36098585424347
0.7373598248815024	168.855486531223
0.7374827181856494	169.37461573776815
0.7376056319720137	169.90496807323362
0.7377285662440091	170.41901529459287
0.7378515210050496	170.84040321548636
0.7379744962585505	171.13324923961264
0.738097492007927	171.82301855263836
0.7382205082565949	172.56436107385565
0.738343545007971	173.04396485459478
0.7384666022654723	173.6437613805522
0.7385896800325165	174.34548771149352
0.7387127783125219	174.95281701055882
0.7388358971089073	175.53485758594528
0.7389590364250921	176.0763144329145
0.7390821962644963	176.65063284800263
0.7392053766305403	177.24168106222106
0.7393285775266454	177.83938756355985
0.7394517989562333	178.42631404322591
0.7395750409227259	178.9983345616207
0.7396983034295463	179.58773563424324
0.739821586480118	180.17562846791287
0.7399448900778645	180.73536718959014
0.7400682142262109	181.30732880048288
0.740191558928582	181.8891868124746
0.7403149241884034	182.35251463285448
0.7404383100091014	182.80834030421093
0.7405617163941028	183.26676318069508
0.7406851433468352	183.84311155012256
0.7408085908707264	184.42555671640073
0.7409320589692048	184.37965681009436
0.7410555476456997	184.89977429928584
0.7411790569036406	186.11240628060168
0.7413025867464579	186.81007487756366
0.7414261371775823	187.44761326824914
0.7415497082004452	188.25278517313367
0.7416732998184786	188.92647297304342
0.741796912035115	189.50995326173916
0.7419205448537874	189.8413104137381
0.7420441982779297	190.31688434716412
0.742167872310976	191.0633585517276
0.7422915669563612	191.87234770719675
0.7424152822175206	192.67349859874074
0.7425390180978901	193.26282709436956
0.7426627746009065	193.7509940596277
0.7427865517300065	194.1408579861349
0.7429103494886282	194.94926104400943
0.7430341678802096	195.76307450184433
0.7431580069081896	196.45701035640332
0.7432818665760077	197.09572882660356
0.7434057468871037	197.70467170881105
0.7435296478449182	198.28299039463232
0.7436535694528923	198.88367870637205
0.7437775117144678	199.5137232008792
0.7439014746330868	199.96066465239804
0.7440254582121922	200.44930227769524
0.7441494624552276	201.25631150919065
0.7442734873656368	201.81811253847022
0.7443975329468645	202.21125595713207
0.7445215992023557	202.83954141168812
0.7446456861355559	203.58199527756565
0.7447697937499119	204.5121600291715
0.7448939220488703	205.28142155906104
0.7450180710358784	205.998280949009
0.7451422407143843	206.7110103151207
0.7452664310878367	207.39848812467534
0.7453906421596846	208.06401829469564
0.7455148739333779	208.72525789370684
0.7456391264123667	209.3912443574148
0.7457633996001021	210.06821168039866
0.7458876935000356	210.7270409194044
0.7460120081156189	211.38107913842023
0.7461363434503048	212.06064876018715
0.7462606995075466	212.71656992100338
0.7463850762907978	213.34767694823097
0.7465094738035127	213.94547469608398
0.7466338920491467	214.5922329527658
0.746758331031155	215.3817998100487
0.7468827907529935	216.07361315203326
0.7470072712181189	216.72291338352693
0.7471317724299886	217.47946786373944
0.7472562943920602	218.19090140424046
0.7473808371077922	218.8476059654948
0.7475054005806435	219.36581862479667
0.7476299848140736	219.95139716955043
0.7477545898115426	220.82889708397846
0.7478792155765113	221.6125436686324
0.7480038621124406	222.33476209758325
0.7481285294227926	222.81735398522116
0.7482532175110298	223.48682500118582
0.7483779263806148	224.40731816047793
0.7485026560350116	225.12311653617488
0.7486274064776842	225.7962160810296
0.748752177712097	226.4738211460235
0.7488769697417158	227.26046714091865
0.749001782570006	228.11372324710138
0.7491266162004343	228.88355130778586
0.7492514706364677	229.6302195687943
0.7493763458815739	230.34380393423106
0.7495012419392209	231.07437287681051
0.7496261588128773	231.7974026398416
0.7497510965060128	232.47674396925802
0.7498760550220971	233.21187925537083
0.7500010343646007	233.98279176349203
0.7501260345369949	234.73536873411499
0.750251055542751	235.48360372484268
0.7503760973853414	236.2254902931494
0.7505011600682389	236.94264331650578
0.750626243594917	237.650996755548
0.7507513479688495	238.34799906405
0.7508764731935109	239.1325420357647
0.7510016192723765	239.9720373482002
0.7511267862089218	240.75010722707958
0.7512519740066232	241.51551894633798
0.7513771826689577	242.26304149475934
0.7515024121994025	243.0456815192496
0.7516276626014359	243.8283711392644
0.751752933878536	244.58339281435474
0.7518782260341824	245.28745750825027
0.7520035390718548	245.96595070981934
0.7521288729950334	246.81838977281427
0.7522542278071992	247.6432549977881
0.7523796035118337	248.43189852566996
0.7525050001124189	249.21243593204912
0.7526304176124378	249.96755785060984
0.7527558560153731	250.64800798918267
0.752881315324709	251.48153005030446
0.7530067955439299	252.3924391331057
0.7531322966765205	253.20213409487766
0.7532578187259665	254.00890425248193
0.7533833616957542	254.81222543074338
0.75350892558937	255.62378081606704
0.7536345104103016	256.43630200451435
0.7537601161620366	257.2478843961211
0.7538857428480638	258.0483085699306
0.7540113904718717	258.84386050766614
0.7541370590369503	259.6420378517631
0.7542627485467898	260.4133079551614
0.7543884590048808	261.15757889473014
0.7545141904147151	262.0565727799885
0.7546399427797842	262.94578646732924
0.7547657161035808	263.78023341412273
0.754891510389598	264.6127943940678
0.7550173256413296	265.44237586572007
0.7551431618622698	266.2573186172397
0.7552690190559135	267.07450598409645
0.7553948972257561	267.8935664570009
0.7555207963752938	268.7431783208807
0.755646716508023	269.5979203075873
0.755772657627441	270.4590847440285
0.7558986197370455	271.31915356754405
0.756024602840335	272.17561462130834
0.7561506069408084	273.01817486408254
0.7562766320419653	273.87314330062566
0.7564026781473054	274.7359041769352
0.75652874526033	275.58689719608344
0.7566548333845401	276.447203573142
0.7567809425234375	277.3195735106641
0.7569070726805247	278.1815827413038
0.7570332238593047	279.04892209301175
0.7571593960632813	279.9361469406126
0.7572855892959586	280.8182208413672
0.7574118035608413	281.69248033057585
0.7575380388614347	282.514077360046
0.7576642952012449	283.38197336169105
0.7577905725837782	284.2945076789009
0.7579168710125422	285.1907824141235
0.7580431904910444	286.09897000912576
0.7581695310227928	287.0325028519518
0.7582958926112967	287.9347824888789
0.7584222752600652	288.8268626690768
0.7585486789726085	289.7173698163798
0.7586751037524372	290.6247823648874
0.7588015496030628	291.5435606929821
0.7589280165279966	292.44330654108666
0.7590545045307512	293.3452153843899
0.7591810136148396	294.24993358319375
0.7593075437837755	295.1786180637519
0.7594340950410726	296.1064912895158
0.7595606673902461	297.0204938183026
0.7596872608348112	297.9332718521488
0.7598138753782836	298.8467907044497
0.75994051102418	299.77028992688
0.7600671677760173	300.71265475122846
0.7601938456373134	301.6717519138197
0.7603205446115863	302.63557818207414
0.7604472647023548	303.58996971664607
0.7605740059131385	304.5279948194005
0.7607007682474575	305.4645777549318
0.7608275517088319	306.4018898314092
0.7609543563007835	307.34290801007756
0.7610811820268336	308.2913744224278
0.7612080288905045	309.2455460047873
0.7613348968953197	310.2212925925461
0.7614617860448022	311.17808072306224
0.7615886963424764	312.1148773398502
0.7617156277918667	313.0966196159038
0.7618425803964988	314.08054190494283
0.7619695541598982	315.05994532193967
0.7620965490855914	316.05716382572945
0.7622235651771058	317.05629414934407
0.7623506024379685	318.03881116461923
0.7624776608717082	319.0201877837732
0.7626047404818536	320.0013424333108
0.7627318412719337	320.99412439402215
0.762858963245479	322.00128058760333
0.7629861064060198	323.02503204439165
0.7631132707570876	324.0240699856548
0.7632404563022137	325.013244819391
0.7633676630449308	325.9876251995233
0.7634948909887717	327.00547650544826
0.7636221401372697	328.0357503249374
0.7637494104939593	329.0542860044636
0.7638767020623748	330.0715812014182
0.7640040148460518	331.08827126295097
0.7641313488485262	332.10991028809514
0.7642587040733344	333.1340172896559
0.7643860805240132	334.1609824598117
0.7645134782041005	335.19253703656716
0.7646408971171346	336.2240299370329
0.764768337266654	337.25405353037957
0.7648957986561985	338.2726718793925
0.7650232812893079	339.2987127171736
0.7651507851695227	340.374522765211
