#wavelength	surface flux
0.6450077295303345	2572.0005151471155
0.6472567915916443	2736.5848799958617
0.6494921445846558	2907.349896375533
0.6517150402069092	3084.9672930253505
0.6539263725280762	3270.953959590589
0.6561272740364075	3463.6436066255715
0.6583186388015747	3662.9652011821304
0.6605015397071838	3881.84384178244
0.6626768708229065	4104.32710167375
0.6648455858230591	4335.871557320452
0.6670085787773132	4579.549036147103
0.6691668033599854	4829.991347534696
0.6713210344314575	5046.595757252415
0.6734722256660461	5374.560660522954
0.6756211519241333	5664.622829672514
0.6777685880661011	5959.892594044776
0.6799154281616211	6277.386955218989
0.6820623278617859	6608.194673188788
0.6842101216316223	6954.8039055523395
0.6863595843315125	7314.1082290105205
0.688511312007904	7685.0396268369905
0.6906660795211792	8067.321920281355
0.6928245425224304	8467.715775144276
0.6949873566627502	8917.512791540123
0.6971551775932312	9369.538334307228
0.6993286609649658	9817.01005171541
0.7015084028244019	10331.772570014395
0.7036949396133423	10847.18233236106
0.7058889269828796	11384.993931353243
0.7080909013748169	11941.464092189224
0.710301399230957	12519.08408496235
0.712520956993103	13134.804750834224
0.7147500514984131	13771.264342803654
0.7169892191886902	14385.324705375504
0.7192389369010925	15125.703547334413
0.7214996814727783	15855.346501674883
0.723771870136261	16619.61419108356
0.7260559797286987	17412.382685649427
0.7283523678779602	18244.780222776615
0.7306615710258484	19083.575003601556
0.7329838871955872	19992.883359590527
0.7353196740150452	20865.705602912418
0.7376693487167358	21862.139516355466
0.7400332689285278	22836.369260267747
0.7424117922782898	23851.751027087153
0.7448052167892456	24892.557523364307
0.7472138404846191	26005.034176462064
0.7496379613876343	27106.23679980102
0.7520779371261597	28108.602178251902
0.7545340061187744	28991.69849768386
0.7570064663887024	29507.520610736454
0.7594954967498779	29109.767920121525
0.7620013952255249	26230.90538682937
0.7645244002342224	17295.539885759892
0.7670646905899048	10062.498652406617
0.7696225643157959	11502.327465498816
0.7721980810165405	22752.493218124684
0.7747915983200073	35366.712516962376
0.7774031162261963	41355.8546688592
0.7800329327583313	37245.94021708382
0.7826811671257019	48454.08516979848
0.7853479981422424	51676.936654773104
0.7880334854125977	54577.31884044795
0.7907378077507019	57443.03095947984
0.7934610247612	58486.560249796006
0.7962033748626709	60295.301257322804
0.7989648580551147	66451.87296808657
0.801745593547821	69708.209303806
0.8045456409454346	73107.87535954789
0.8073651194572449	76609.50752141637
0.8102040886878967	80122.1656166447
0.8130625486373901	83812.78341147973
0.8159406185150146	87887.29033064001
0.8188382983207703	91978.00249021636
0.8217556476593018	96364.00583997954
0.8246926665306091	100839.99480726388
0.8276493549346924	105545.63826797577
0.8306257724761963	110439.01681577455
0.8336219191551208	115634.78981773557
0.8366377949714661	120895.88708006691
0.8396733403205872	126494.3176208669
0.8427285552024841	132416.21212966376
0.8458034992218018	138409.91598275278
0.8488980531692505	144766.43397483145
0.8520121574401855	151407.5509634882
0.8551458716392517	158222.68429991265
0.8582990765571594	165381.87978780008
0.8614717125892639	171949.82111058052
0.8646637797355652	179366.03255349683
0.8678751587867737	188133.3915038024
0.8711057901382446	196567.94329234352
0.8743556141853333	205556.98715953022
0.87762451171875	214851.91579447786
0.8809124231338501	224385.3958781096
0.8842192888259888	234502.11785643626
0.8875449895858765	244869.46304747483
0.8908893465995789	255071.7033020399
0.894252359867096	266017.95187321416
0.8976338505744934	275652.50485474855
0.9010337591171265	289532.00291800185
0.9044519662857056	302892.4829348828
0.9078882932662964	315597.43113736226
0.9113426208496094	328829.7024947996
0.914814829826355	342935.8128787489
0.9183048605918884	356901.4633160042
0.9218124747276306	372470.03651492734
0.925337553024292	385444.5638175544
0.9288799166679382	391077.214301359
0.9324395060539246	394632.3433840257
0.9360161423683167	422045.57710455876
0.9396095871925354	452001.99506125477
0.943219780921936	470457.68740703905
0.9468464851379395	478475.947180669
0.9504896402359009	497385.6111201833
0.9541489481925964	523580.60609575006
0.9578243494033813	546970.7861144587
0.9615156054496765	566816.5120948812
0.9652225375175476	592755.53699807
0.9689450263977051	623043.9993125147
0.9726828336715698	640108.4224886806
0.9764357805252075	673260.9270781745
0.9802037477493286	698274.2766543935
0.983986496925354	728449.1825894631
0.9877838492393494	758099.4053235805
0.9915955662727356	788169.4917549681
0.9954215884208679	819134.9792574043
0.9992615580558777	849428.288073659
1.0031154155731201	880438.9761158455
1.0069829225540161	913122.0519949684
1.0108637809753418	946749.6284529483
1.0147579908370972	981004.0463152844
1.018665075302124	1016439.0867326888
1.022585153579712	1052783.4860380678
1.0265177488327026	1089960.9470913338
1.0304628610610962	1128554.9332589991
1.0344202518463135	1168042.1980815018
1.0383895635604858	1208385.2918083859
1.0423706769943237	1249811.956491195
1.0463634729385376	1292101.713436479
1.0503677129745483	1335963.6125577672
1.0543830394744873	1380731.4118878087
1.058409333229065	1426398.2157806116
1.0624464750289917	1476421.4124909977
1.0664942264556885	1525763.956432487
1.0705522298812866	1576273.9665988234
1.0746204853057861	1627967.325121223
1.0786986351013184	1678646.9582716173
1.0827864408493042	1732325.4727259674
1.086883783340454	1785486.1883080185
1.0909905433654785	1838304.496422181
1.0951062440872192	1888329.7157499783
1.0992310047149658	1925393.3862163601
1.10336434841156	1959209.3427062023
1.1075061559677124	2001422.7210466573
1.1116561889648438	2009377.7403332645
1.115814208984375	1877885.052316979
1.1199802160263062	2071677.5931346377
1.124153733253479	1954899.0109393478
1.1283347606658936	2276293.2335230666
1.1325229406356812	2297610.4921740443
1.1367181539535522	2391304.7585382788
1.1409201622009277	2567900.262181392
1.145128846168518	2530443.5989234284
1.1493438482284546	2508532.267206161
1.1535650491714478	2707161.2809320795
1.1577922105789185	2836953.4968872154
1.1620250940322876	2884286.5534212147
1.1662636995315552	2982398.8493119804
1.170507550239563	3051797.425504696
1.174756646156311	3154167.1788033387
1.1790107488632202	3281497.871041498
1.1832695007324219	3384112.44104345
1.1875330209732056	3480361.599971753
1.191800832748413	3581030.223761634
1.1960728168487549	3676720.4980704705
1.2003488540649414	3772176.420959364
1.2046287059783936	3875888.072435111
1.2089121341705322	3970290.401383681
1.2131990194320679	4063659.0229476206
1.2174891233444214	4175588.279816167
1.2217823266983032	4275847.952703085
1.2260783910751343	4382141.898197907
1.230377197265625	4486218.632241561
1.2346785068511963	4596005.767319312
1.238982081413269	4706443.138559146
1.2432878017425537	4813438.559892151
1.2475954294204712	4923797.856932806
1.2519049644470215	5034850.483628873
1.256216049194336	5149781.71073261
1.2605286836624146	5265001.262207752
1.2648425102233887	5378790.635318056
1.2691574096679688	5496740.280270379
1.2734732627868652	5607685.892935618
1.2777899503707886	5730809.153085251
1.2821072340011597	5838326.684073623
1.2864248752593994	5954352.512319409
1.2907428741455078	6076684.674358237
1.2950609922409058	6135146.9012091
1.2993791103363037	6284683.118690453
1.303696870803833	6428716.91394859
1.3080145120620728	6571791.682743914
1.3123314380645752	6689707.777120372
1.3166478872299194	6799725.328398465
1.3209635019302368	6925290.281583608
1.3252781629562378	7023276.674467213
1.3295916318893433	7049282.160944373
1.3339040279388428	6841430.971082432
1.3382149934768677	5479515.330294825
1.3425244092941284	4908574.925496548
1.3468321561813354	4217476.131700957
1.3511382341384888	4686494.859796669
1.3554422855377197	3927958.4865870313
1.3597444295883179	3647354.3343914817
1.3640443086624146	5023372.39658524
1.3683418035507202	5265602.548032984
1.3726370334625244	6011159.248817002
1.3769296407699585	6305260.617443153
1.381219506263733	5605335.552394261
1.3855066299438477	4668555.268209319
1.3897908926010132	5610948.272570544
1.3940720558166504	5072994.10384379
1.3983501195907593	5744366.671693088
1.4026249647140503	6517017.638194277
1.4068963527679443	6577557.085108317
1.4111642837524414	6473979.74144054
1.4154287576675415	6408291.9330937965
1.419689416885376	5543516.105129555
1.4239463806152344	5483889.696944642
1.4281994104385376	7378753.751417065
1.4324485063552856	6478430.225228833
1.436693549156189	7784644.3399928585
1.440934419631958	7387836.824167947
1.4451709985733032	8086024.572824005
1.449403166770935	8645571.442134663
1.453631043434143	8936393.793306535
1.4578542709350586	10079228.854686983
1.4620729684829712	9760778.956632538
1.4662868976593018	10440269.226884678
1.4704961776733398	10457601.139807709
1.4747005701065063	10755579.882843679
1.4788999557495117	11313192.7051138
1.4830944538116455	11159588.494338658
1.4872838258743286	11646252.414219553
1.491468071937561	11954946.37987202
1.4956470727920532	12121172.01337503
1.4998208284378052	12513488.971702095
1.5039892196655273	12762684.662974427
1.5081522464752197	12976884.050872127
1.5123097896575928	13286429.271407608
1.5164618492126465	13565378.000783687
1.5206083059310913	13838590.485494697
1.5247491598129272	14134828.595544867
1.5288842916488647	14058305.89792631
1.5330137014389038	14639976.862418327
1.5371372699737549	14893322.443351857
1.541254997253418	15033791.73511716
1.545366883277893	15203782.559649002
1.5494728088378906	15433439.024094738
1.5535727739334106	15705737.62881989
1.5576666593551636	15888642.490572728
1.561754584312439	16118828.165636038
1.5658363103866577	16313903.967306823
1.5699119567871094	16558908.000978276
1.5739814043045044	16752502.180030813
1.5780447721481323	16943503.11976473
1.582101821899414	17125620.95363076
1.5861525535583496	17224337.424297333
1.5901970863342285	17455883.51994182
1.5942351818084717	17666156.897656575
1.5982669591903687	17863692.14181394
1.6022924184799194	18060954.415804137
1.606311559677124	18227604.680750873
1.6103241443634033	18418123.346565664
1.6143304109573364	18608029.006260607
1.6183301210403442	18775647.552258536
1.6223233938217163	18773362.593481667
1.6263102293014526	18663017.935764045
1.6302905082702637	18420801.32513311
1.634264349937439	19008505.7645159
1.638231635093689	19532601.91395571
1.6421923637390137	19691202.234232057
1.646146535873413	19780068.906749442
1.6500942707061768	19984787.388801187
1.6540353298187256	20089535.729623027
1.6579699516296387	20081804.96683733
1.661897897720337	20456937.794128213
1.6658192873001099	19444950.554077923
1.6697341203689575	19747877.834317118
1.6736423969268799	21032098.090909775
1.677544116973877	21098829.495599
1.6814392805099487	21147934.597066697
1.6853278875350952	21187118.129149582
1.6892099380493164	21679029.826167386
1.6930854320526123	20983643.152132273
1.696954369544983	21519890.354462065
1.7008168697357178	20918462.86117975
1.7046726942062378	21332144.714496437
1.708522081375122	21849104.228406247
1.712364912033081	22608720.080049574
1.7162011861801147	22850788.591723535
1.7200311422348022	22765101.62840721
1.723854422569275	21983650.9519871
1.7276713848114014	21880015.75024856
1.731481909751892	22246239.28639374
1.7352858781814575	21937899.99509304
1.7390835285186768	22617603.44212374
1.7428747415542603	22571648.09369712
1.7466596364974976	22848893.310650207
1.7504380941390991	23266373.372599907
1.7542102336883545	21336506.885405093
1.7579760551452637	21593853.12475505
1.7617355585098267	21272879.7542973
1.7654887437820435	20007938.139406975
1.7692357301712036	19602751.55850185
1.7729763984680176	20130826.971092068
1.776710867881775	16919274.173352245
1.7804391384124756	18343790.236836858
1.7841613292694092	15725602.577896765
1.7878772020339966	16115413.710465195
1.7915871143341064	15156721.180193657
1.7952908277511597	16331496.102340508
1.7989884614944458	16327270.534589026
1.8026801347732544	13064249.227770863
1.806365728378296	13587419.103386616
1.8100452423095703	12728813.085656624
1.8137187957763672	16223896.496535022
1.817386507987976	16879628.952352766
1.8210482597351074	15564878.06242673
1.8247040510177612	18964732.7635795
1.828354001045227	16658988.40601399
1.8319982290267944	16528959.143367346
1.8356364965438843	16248132.382042281
1.8392690420150757	15800911.075486729
1.8428958654403687	16735284.07787993
1.8465168476104736	15711110.293003112
1.8501322269439697	16120783.911086103
1.8537418842315674	18068061.511663355
1.8573459386825562	14883332.33244955
1.860944390296936	10859086.325349607
1.864537239074707	10981131.868221598
1.8681244850158691	11446457.305574175
1.871706247329712	12249410.755545316
1.8752825260162354	14513441.255775351
1.8788533210754395	18843839.811983686
1.8824186325073242	18904699.915196367
1.8859784603118896	17396986.75490775
1.8895330429077148	17510911.726570707
1.8930821418762207	19134839.52940509
1.8966259956359863	19956111.53463005
1.9001644849777222	16337029.592217078
1.9036977291107178	17244953.85736268
1.9072256088256836	21408806.89070017
1.9107483625411987	21153548.542566642
1.9142658710479736	17487157.803273823
1.9177782535552979	21858397.265563335
1.9212853908538818	17948838.992371008
1.9247875213623047	17751721.22980981
1.9282845258712769	20119936.16176623
1.9317764043807983	18185346.670843087
1.9352631568908691	18939788.670349147
1.9387450218200684	11784627.85287404
1.942221760749817	16035425.068174222
1.9456936120986938	16680033.553563884
1.9491604566574097	16094300.370288823
1.952622413635254	19710990.30545651
1.956079363822937	15536032.750705894
1.959531545639038	16294149.4310159
1.962978720664978	16714936.426658412
1.966421127319336	20915986.01496323
1.9698586463928223	20176288.528582707
1.9732913970947266	21275746.316596158
1.9767193794250488	20977760.013535235
1.9801424741744995	21301340.50603262
1.9835609197616577	22950780.23512699
1.9869745969772339	24051464.15562696
1.990383505821228	19415537.275888607
1.9937876462936401	22619540.26811156
1.9971871376037598	23769440.659646142
2.000581979751587	22443215.388673805
2.003972291946411	26224841.21979932
2.007357597351074	26414763.026766032
2.0107386112213135	27373176.191445295
2.0141148567199707	30144901.948362634
2.017486572265625	29230045.063221026
2.0208535194396973	30471813.591269106
2.0242159366607666	31205044.62939426
2.027573823928833	29509082.796995316
2.0309269428253174	28973810.65001385
2.034275770187378	31707386.79923693
2.0376198291778564	32314941.548952434
2.040959596633911	32322286.484682832
2.044294595718384	32247698.016907576
2.0476250648498535	30863932.31518427
2.0509510040283203	30461583.68189697
2.054272413253784	31840167.01292363
2.057589530944824	32062441.66006927
2.0609018802642822	30836399.753326144
2.0642096996307373	31849775.508260682
2.0675129890441895	32755325.232213635
2.0708119869232178	33292895.961325686
2.074106216430664	33646401.464268655
2.0773961544036865	33819398.40569415
2.080681324005127	34031809.80773034
2.0839622020721436	33882833.42194946
2.087238311767578	33521744.36267339
2.090510129928589	33909345.37575273
2.0937774181365967	34065188.73490006
2.0970399379730225	34120493.77151071
2.1002981662750244	34050340.75395911
2.1035518646240234	34353934.35096527
2.1068007946014404	34336332.272769086
2.1100454330444336	33601463.27920329
2.1132853031158447	33042443.57977842
2.116520881652832	33685965.84231927
2.1197516918182373	34454238.16600233
2.1229779720306396	34697812.168343164
2.12619948387146	34703735.774004534
2.1294167041778564	34681382.49441748
2.132629156112671	34769807.052504815
2.1358368396759033	34964983.30126485
2.139039993286133	35012181.29369857
2.1422386169433594	34923413.328890584
2.145432472229004	34938686.238795705
2.1486217975616455	34868949.147626385
2.151806354522705	34585539.37231817
2.1549863815307617	34030479.92805273
2.1581614017486572	34558584.85534721
2.16133189201355	34887650.15234569
2.1644976139068604	34934601.87790679
2.167658567428589	35064225.218912974
2.1708147525787354	34998010.572012
2.173966407775879	34824788.2716783
2.1771130561828613	35112185.13608383
2.1802549362182617	35265113.02816719
2.183391809463501	35302698.526196286
2.1865241527557373	35233429.50233141
2.1896514892578125	35168245.66997186
2.1927738189697266	35196651.30441714
2.1958916187286377	34876856.10298626
2.1990041732788086	33711301.68519342
2.2021119594573975	33335895.96214141
2.2052149772644043	34274902.37997045
2.208312749862671	35082672.38579729
2.2114057540893555	35211059.71074472
2.214493751525879	34682605.16585005
2.217576742172241	34140186.7560878
2.2206547260284424	34236117.72667583
2.2237277030944824	33712549.448099636
2.2267956733703613	32882167.493998744
2.2298583984375	32836462.335782778
2.2329163551330566	33486401.84931572
2.235969066619873	33986026.11675386
2.2390167713165283	32504988.57992795
2.2420592308044434	31522851.58569338
2.2450966835021973	32409598.72716774
2.248128890991211	32117045.998266995
2.2511560916900635	31714987.239105657
2.254178285598755	30544804.55377159
2.257194995880127	30898844.837341256
2.260206699371338	32025707.281467885
2.2632133960723877	31286766.4258104
2.266214609146118	31920264.60361447
2.2692108154296875	32921288.885994248
2.2722020149230957	33047377.975757882
2.2751877307891846	32587247.777866777
2.278168201446533	32686654.44068477
2.2811436653137207	33971441.279640846
2.284113883972168	31415282.726825815
2.287078857421875	28016912.440397993
2.290038824081421	29785529.65644435
2.2929933071136475	29564624.70977161
2.295942783355713	28931029.016987365
2.298887014389038	29922075.721773338
2.301826238632202	31738913.825844605
2.304760217666626	33025469.12354576
2.3076889514923096	33272543.454381436
2.310612440109253	33481264.356307518
2.3135311603546143	32741447.459672615
2.3164443969726562	29388334.37566999
2.319352865219116	29129578.843203496
2.322256088256836	28989054.65543303
2.3251543045043945	28605541.59484286
2.328047275543213	29548504.902107164
2.330935478210449	29426005.75622905
2.3338186740875244	28840941.7190494
2.3366971015930176	28910002.771560848
2.3395702838897705	29757027.486357097
2.3424389362335205	29617656.51268832
2.3453025817871094	27819913.88467642
2.348161458969116	26577827.361251865
2.351015567779541	28080036.06513852
2.353865146636963	29194365.667383656
2.3567099571228027	28276220.578980666
2.3595502376556396	28287968.902762566
2.3623859882354736	30456433.55353902
2.3652172088623047	32132306.134486083
2.368043899536133	27950807.65897937
2.370866537094116	23660884.72954532
2.3736846446990967	23922620.39433615
2.3764986991882324	25050122.50291287
2.3793084621429443	26383675.159177758
2.3821144104003906	27947658.74772753
2.384916305541992	28584865.478669334
2.387714147567749	29346822.146733522
2.3905084133148193	32132000.18015124
2.393299102783203	33095255.546397083
2.3960859775543213	30758434.589226373
2.398869514465332	27195649.110106133
2.4016497135162354	25682116.312831763
2.4044265747070312	26820286.43941949
2.407200336456299	29108114.965501938
2.409970998764038	29660124.234526236
2.4127390384674072	28493637.168682523
2.415503978729248	25919744.30303696
2.418266534805298	25222854.806526933
2.4210267066955566	26412857.312751208
2.4237842559814453	26544961.321593873
2.426539897918701	25214108.590325747
2.429293394088745	24699907.958009705
2.4320452213287354	26276770.935520556
2.4347951412200928	24882925.376425993
2.4375438690185547	22638013.70544216
2.440291166305542	23095403.02721816
2.443037271499634	24131774.117140632
2.445782423019409	26859244.160332657
2.4485268592834473	27413068.712579273
2.451270818710327	22867980.802082863
2.454014539718628	21183645.569090884
2.4567582607269287	23381028.96790894
2.4595019817352295	24022252.143436093
2.4622461795806885	25001158.580701347
2.4649908542633057	23705931.292056732
2.4677364826202393	18374680.66002057
2.4704833030700684	16569387.10871993
2.473231554031372	17622784.4762292
2.4759814739227295	18906353.94529478
2.4787333011627197	18835885.717633534
