#wavelength	surface flux
0.8	2827.594797859498
0.8002000000000001	2839.689436102529
0.8004000500000003	2851.3429970682296
0.8006001500125003	2863.894414499371
0.8008003000500035	2875.4361626467253
0.8010005001250161	2887.0331894321607
0.8012007502500472	2899.9638876870977
0.8014010504376099	2912.59295713009
0.8016014007002193	2924.3516016383996
0.8018018010503944	2936.4159547506274
0.8020022515006572	2948.752107927448
0.8022027520635323	2961.4925329493644
0.8024033027515483	2973.8166947315012
0.8026039035772362	2985.851180340941
0.8028045545531306	2998.541877625833
0.8030052556917691	3010.9163521462783
0.803206007005692	3024.296241109331
0.8034068085074435	3037.0014222872765
0.8036076602095705	3049.3258309536295
0.8038085621246229	3062.4009623896163
0.8040095142651542	3075.0330900168065
0.8042105166437206	3087.051711507046
0.8044115692728815	3099.942516451696
0.8046126721651998	3112.3393244417343
0.8048138253332411	3126.205559374225
0.8050150287895745	3139.9364667155446
0.805216282546772	3153.0322829258953
0.8054175866174087	3165.8846311648144
0.8056189410140631	3179.334245380408
0.8058203457493168	3192.2415372715764
0.8060218008357541	3205.1861165027344
0.8062233062859632	3217.845405692421
0.8064248621125346	3231.707975054445
0.806626468328063	3245.461097222875
0.8068281249451449	3258.248322659578
0.8070298319763813	3271.8519119463754
0.8072315894343755	3285.852770322081
0.8074333973317341	3299.4321188342356
0.8076352556810671	3313.4500855405713
0.8078371644949874	3327.1163644827952
0.8080391237861113	3340.841094150473
0.8082411335670578	3353.83999229194
0.8084431938504498	3368.1778300461506
0.8086453046489125	3382.0098948341288
0.8088474659750746	3394.726806081571
0.8090496778415686	3408.8184692075774
0.809251940261029	3422.6277874427315
0.8094542532460944	3435.878648464204
0.8096566168094059	3449.3520869918493
0.8098590309636085	3465.263044730445
0.8100614957213493	3479.521798141038
0.8102640110952797	3493.2439117096587
0.8104665770980536	3507.752869994911
0.8106691937423283	3521.712350382788
0.8108718610407639	3528.6775106227624
0.8110745790060241	3538.272022296429
0.8112773476507757	3559.1718916413274
0.8114801669876885	3567.944485592967
0.8116830370294355	3580.9908325840624
0.8118859577886929	3608.631004786119
0.8120889292781401	3625.497525861032
0.8122919515104597	3639.6340921048413
0.8124950244983374	3654.728247980672
0.8126981482544621	3670.169998954848
0.8129013227915257	3684.918579301255
0.8131045481222237	3696.1663169802073
0.8133078242592543	3704.718232904761
0.8135111512153191	3709.6714076459507
0.813714529003123	3728.243811465313
0.8139179576353739	3754.647505480618
0.8141214371247829	3764.520853792149
0.8143249674840641	3771.580882370139
0.814528548725935	3782.203411290228
0.8147321808631167	3810.1544729862453
0.8149358639083326	3833.0008710019883
0.8151395978743097	3842.8729893763602
0.8153433827737784	3863.984954083254
0.8155472186194719	3882.1960418290705
0.8157511054241268	3899.2267243242936
0.815955043200483	3910.1015566265505
0.8161590319612831	3928.942693592239
0.8163630717192736	3937.4603527040363
0.8165671624872033	3959.4951033172515
0.8167713042778252	3983.1951671462652
0.8169754971038948	3997.306730420747
0.8171797409781707	4000.42409592461
0.8173840359134155	4029.900328713366
0.8175883819223938	4051.420300725311
0.8177927790178745	4066.3299643914106
0.8179972272126291	4075.720483606989
0.8182017265194322	4092.8565529895004
0.8184062769510622	4095.0211695713897
0.8186108785203001	4129.330324501189
0.8188155312399301	4151.586769340939
0.8190202351227402	4167.860991973743
0.819224990181521	4183.797330942257
0.8194297964290664	4202.324026551558
0.8196346538781738	4217.803565203013
0.8198395625416434	4230.770938349314
0.8200445224322789	4240.5524115952985
0.820249533562887	4267.93714032925
0.8204545959462778	4288.861879617534
0.8206597095952644	4306.349680811094
0.8208648745226633	4323.677277316436
0.8210700907412941	4341.134234936311
0.8212753582639793	4358.971349234516
0.8214806771035456	4377.149043123646
0.8216860472728215	4395.256520593209
0.8218914687846397	4411.977265783823
0.822096941651836	4429.595656587322
0.822302465887249	4446.58778802366
0.8225080415037209	4460.24481493515
0.8227136685140968	4467.183716083928
0.8229193469312254	4445.5609602272725
0.8231250767679583	4460.598144901733
0.8233308580371503	4494.787337305613
0.8235366907516598	4523.325367955234
0.8237425749243477	4553.008247582439
0.8239485105680789	4584.700106338502
0.824154497695721	4608.257348383125
0.824360536320145	4628.072680142834
0.8245666264542252	4647.6566052458675
0.8247727681108388	4670.116847403919
0.8249789613028664	4687.832396213252
0.8251852060431922	4707.970541096126
0.825391502344703	4728.334512551633
0.8255978502202894	4747.338584451928
0.8258042496828445	4765.2272036803515
0.8260107007452654	4783.281997609892
0.8262172034204517	4798.13148113624
0.8264237577213068	4815.884657784512
0.8266303636607373	4828.71749609993
0.8268370212516525	4860.840685546226
0.8270437305069654	4883.73471219699
0.8272504914395923	4901.639156550102
0.8274573040624523	4918.47284101929
0.8276641683884679	4939.01688706756
0.8278710844305652	4959.904257632262
0.8280780522016729	4977.517199198941
0.8282850717147234	4991.508362918762
0.8284921429826521	5013.9718664893335
0.8286992660183978	5036.789758289696
0.8289064408349024	5042.778793931018
0.8291136674451112	5062.259915399695
0.8293209458619727	5095.164114512367
0.8295282760984382	5114.71901915494
0.829735658167463	5130.795325973738
0.8299430920820048	5154.111683994782
0.8301505778550254	5179.597903660285
0.8303581154994891	5203.509817602222
0.8305657050283641	5223.088553245124
0.8307733464546212	5243.949192232337
0.8309810397912352	5266.017600660549
0.8311887850511829	5285.242984514442
0.8313965822474458	5290.002480852936
0.8316044313930077	5319.089248621879
0.8318123325008561	5344.725639119629
0.8320202855839813	5366.427277417574
0.8322282906553774	5387.916037117229
0.8324363477280413	5400.637297491853
0.8326444568149735	5437.032292851916
0.8328526179291771	5461.534313838771
0.8330608310836596	5474.7214042181795
0.8332690962914304	5488.689702555584
0.8334774135655034	5516.915445369385
0.833685782918895	5540.412270696378
0.8338942043646247	5566.144972630621
0.834102677915716	5590.274825441002
0.834311203585195	5612.229224930227
0.8345197813860912	5636.475461802506
0.8347284113314379	5661.419991642424
0.8349370934342709	5683.998248050379
0.8351458277076294	5704.518144581484
0.8353546141645565	5726.164030839212
0.8355634528180977	5741.789877522506
0.8357723436813022	5769.243880035962
0.8359812867672226	5792.876665132013
0.8361902820889144	5815.871351476157
0.8363993296594368	5830.12856566457
0.8366084294918518	5863.413239169404
0.8368175815992247	5889.30082231382
0.8370267859946247	5910.374467258295
0.8372360426911234	5934.725657020092
0.8374453517017962	5954.699124014244
0.8376547130397217	5971.090414272823
0.8378641267179816	6002.300344840357
0.8380735927496613	6031.14356258796
0.8382831111478488	6054.932417110646
0.8384926819256358	6072.850598940446
0.8387023050961173	6093.193846700675
0.8389119806723914	6122.283904034763
0.8391217086675596	6153.190976251668
0.8393314890947265	6179.064984139141
0.8395413219670003	6199.260330628436
0.8397512072974922	6223.3648724202785
0.8399611450993165	6244.526151706861
0.8401711353855914	6263.852660912591
0.8403811781694378	6297.225445666592
0.8405912734639802	6322.394168720737
0.8408014212823464	6339.326717838639
0.8410116216376671	6372.14869566832
0.8412218745430766	6401.5802147412
0.8414321800117124	6427.225161071536
0.8416425380567154	6449.272455783193
0.8418529486912297	6472.909640543171
0.8420634119284025	6497.60050671194
0.8422739277813847	6527.338973330457
0.8424844962633302	6555.729567061981
0.842695117387396	6580.157143364496
0.8429057911667428	6602.5260198337255
0.8431165176145345	6629.635358740848
0.8433272967439382	6658.760412192643
0.8435381285681244	6684.8577960276525
0.8437490131002665	6711.732291786371
0.8439599503535415	6738.052468373057
0.84417094034113	6762.241993556028
0.8443819830762154	6789.685790697608
0.8445930785719846	6814.922653820344
0.8448042268416277	6844.662142071953
0.8450154278983382	6871.0106742871485
0.8452266817553128	6897.078233224348
0.8454379884257517	6923.073347534268
0.8456493479228583	6947.744330863797
0.845860760259839	6980.647206481042
0.846072225449904	7008.980747503293
0.8462837435062666	7032.832566573197
0.8464953144421433	7052.797941547263
0.8467069382707537	7082.782128670903
0.8469186150053215	7117.756966023123
0.847130344659073	7145.715066877662
0.8473421272452377	7173.870960838794
0.8475539627770492	7201.345615419858
0.8477658512677435	7230.656359628708
0.8479777927305605	7259.470696764047
0.8481897871787432	7286.845911529919
0.848401834625538	7315.311607871139
0.8486139350841944	7344.632066931289
0.8488260885679657	7370.3567791705245
0.8490382950901076	7395.871612461087
0.8492505546638802	7429.501622056055
0.8494628673025462	7459.293896273301
0.8496752330193721	7489.304398812354
0.8498876518276269	7518.167787468083
0.8501001237405839	7547.493659987022
0.8503126487715191	7577.098712014246
0.850525226933712	7606.826760816294
0.8507378582404455	7636.678242398857
0.8509505427050057	7666.6540673647205
0.8511632803406821	7696.512904646137
0.8513760711607672	7725.641510479388
0.8515889151785576	7754.99678582916
0.8518018124073523	7783.6377633471975
0.8520147628604541	7815.387975995184
0.8522277665511693	7845.564867979606
0.8524408234928071	7878.274015869837
0.8526539336986805	7908.384886550338
0.8528670971821053	7939.303828764469
0.8530803139564007	7969.121173639563
0.8532935840348901	7999.430163228634
0.8535069074308987	8030.76650650379
0.8537202841577566	8062.3920949145795
0.8539337142287962	8093.5177606891375
0.8541471976573534	8122.817302018775
0.8543607344567677	8155.267601390464
0.8545743246403821	8188.261444285216
0.8547879682215422	8220.332150975008
0.8550016652135977	8251.463109047927
0.8552154156299011	8283.678805676682
0.8554292194838088	8315.884646416764
0.8556430767886797	8347.62389227113
0.855856987557877	8380.863077259386
0.8560709518047664	8414.201280816644
0.8562849695427177	8445.9014456651
0.8564990407851035	8478.17880447842
0.8567131655452999	8511.519119865177
0.8569273438366862	8544.952018353944
0.8571415756726455	8577.45258118581
0.8573558610665638	8609.601517650688
0.8575702000318304	8642.738840896698
0.8577845925818384	8675.913659442964
0.857999038729984	8710.826588731337
0.8582135384896665	8743.870814020143
0.858428091874289	8776.842098791489
0.8586426988972576	8810.731891192094
0.8588573595719821	8844.383682241949
0.8590720739118751	8878.33803348752
0.8592868419303532	8911.842036795535
0.8595016636408359	8946.747463991474
0.8597165390567462	8981.761285745042
0.8599314681915105	9015.685255672259
0.8601464510585584	9050.349072421248
0.860361487671323	9084.955023502465
0.8605765780432408	9119.827614515372
0.8607917221877518	9152.208033761422
0.8610069201182988	9181.260559348453
0.8612221718483286	9203.787207805246
0.8614374773912907	9223.717687661776
0.8616528367606385	9254.757413223138
0.8618682499698288	9281.119142354552
0.8620837170323213	9313.739294536977
0.8622992379615795	9352.889937270595
0.8625148127710699	9380.125577708035
0.8627304414742627	9416.103424544517
0.8629461240846313	9462.20894323411
0.8631618606156526	9491.978724950228
0.8633776510808066	9529.31360387607
0.8635934954935769	9570.709786882704
0.8638093938674504	9610.678644673599
0.8640253462159173	9645.912722072107
0.8642413525524714	9680.158736026457
0.8644574128906095	9728.170840267387
0.8646735272438323	9766.416875750041
0.8648896956256433	9803.640546606634
0.8651059180495498	9850.835290425704
0.8653221945290621	9892.44214335877
0.8655385250776946	9935.973164823175
0.8657549097089641	9976.96848165437
0.8659713484363913	10017.297476316253
0.8661878412735006	10057.04446955959
0.866404388233819	10092.4464575152
0.8666209893308775	10127.486433808375
0.8668376445782103	10170.740280343205
0.8670543539893549	10210.137567385864
0.8672711175778525	10246.709402796496
0.8674879353572469	10284.82408428546
0.8677048073410862	10326.490706604158
0.8679217335429217	10368.696193566851
0.8681387139763074	10405.800905271197
0.8683557486548015	10437.255610465516
0.8685728375919655	10476.580329745088
0.8687899808013633	10523.867108963379
0.8690071782965637	10569.161914525495
0.869224430091138	10610.284424863657
0.8694417361986609	10643.844412140506
0.8696590966327107	10676.109255686431
0.869876511406869	10719.578411351173
0.8700939805347206	10764.978578467933
0.8703115040298544	10811.476943962654
0.870529081905862	10851.192967840587
0.8707467141763385	10886.413477210888
0.8709644008548827	10923.010911601672
0.8711821419550964	10966.965020825539
0.8713999374905854	11010.400318112816
0.871617787474958	11059.918504092822
0.8718356919218269	11101.260606816115
0.8720536508448075	11135.716235086222
0.8722716642575187	11169.832405911146
0.8724897321735832	11212.669554362383
0.8727078546066265	11263.609900460895
0.8729260315702784	11309.363446816835
0.873144263078171	11348.276736805024
0.8733625491439405	11393.651128803675
0.8735808897812266	11430.293685540319
0.8737992850036719	11474.79474359888
0.874017734824923	11521.89982992315
0.8742362392586293	11571.484820832118
0.874454798318444	11615.14041257383
0.8746734120180236	11658.58778918232
0.8748920803710283	11700.55244852422
0.875110803391121	11738.129608913263
0.8753295810919689	11781.881007849206
0.875548413487242	11833.148703075214
0.8757673005906139	11880.857953844315
0.8759862424157616	11925.65244916325
0.8762052389763657	11968.927418664114
0.8764242902861098	12011.920627733876
0.8766433963586814	12053.639867861742
0.8768625572077712	12098.724762367743
0.8770817728470732	12142.561597328855
0.8773010432902849	12192.771364480583
0.8775203685511077	12243.471884661338
0.8777397486432454	12292.822406986294
0.8779591835804065	12337.732981899497
0.8781786733763015	12380.93796319951
0.8783982180446457	12424.280936000307
0.878617817599157	12467.167638366791
0.8788374720535569	12514.364755935765
0.8790571814215703	12562.815274523875
0.8792769457169257	12610.877570266608
0.879496764953355	12662.661248941813
0.8797166391445934	12714.730408936497
0.8799365683043796	12762.108762475467
0.8801565524464557	12804.823922486632
0.8803765915845676	12850.848811533413
0.8805966857324639	12899.088281715569
0.880816834903897	12946.226706494908
0.881037039112623	12994.792569237998
0.8812572983724012	13041.659791047678
0.8814776126969944	13089.245903389376
0.8816979821001687	13143.963753250318
0.8819184065956938	13198.08256221041
0.8821388861973429	13245.731823864531
0.8823594209188923	13289.520897390807
0.882580010774122	13339.7653168372
0.8828006557768155	13390.652793567717
0.8830213559407598	13435.49606782532
0.8832421112797452	13491.272187191722
0.8834629218075651	13538.327734040511
0.8836837875380171	13586.7875351745
0.8839047084849018	13641.403783388127
0.884125684662023	13698.50450665867
0.8843467160831886	13750.127598947825
0.8845678027622095	13796.686909175367
0.8847889447129001	13841.93644517778
0.8850101419490785	13894.500375918335
0.8852313944845657	13947.616689532464
0.885452702333187	14002.418718302146
0.8856740655087704	14052.064395089488
0.8858954840251476	14098.059739765047
0.8861169578961539	14150.255245215
0.886338487135628	14211.6447457272
0.886560071757412	14268.584062756976
0.8867817117753515	14320.927504238532
0.8870034072032955	14370.424059638526
0.8872251580550963	14417.062787676972
0.8874469643446101	14472.53854882127
0.8876688260856963	14529.731719462105
0.8878907432922178	14586.408332750252
0.8881127159780409	14637.406361398087
0.8883347441570356	14684.900462287605
0.8885568278430749	14733.533503321592
0.8887789670500358	14790.58686672577
0.8890011617917983	14849.009999161563
0.8892234120822464	14913.765651629601
0.8894457179352669	14968.32438378304
0.8896680793647509	15015.38198889141
0.8898904963845921	15063.771856067855
0.8901129690086883	15122.126463481563
0.8903354972509405	15183.154957974071
0.8905580811252535	15239.533249800632
0.8907807206455347	15277.453491747618
0.8910034158256963	15288.341520878941
0.8912261666796527	15376.14158993677
0.8914489732213227	15453.005091179437
0.8916718354646282	15505.806786982324
0.8918947534234944	15548.450450837418
0.8921177271118502	15589.896643848779
0.8923407565436284	15624.75400245911
0.8925638417327644	15693.450714657401
0.8927869826931977	15769.301295096113
0.8930101794388711	15820.775355591684
0.8932334319837308	15848.981024009483
0.8934567403417267	15906.833473058561
0.8936801045268123	15977.607107019912
0.8939035245529441	16045.292047492792
0.8941270004340824	16101.870868585778
0.894350532184191	16151.802877511473
0.8945741198172371	16238.888941824955
0.8947977633471915	16310.836808743463
0.8950214627880284	16359.417640789656
0.8952452181537254	16403.71806415305
0.8954690294582639	16441.421390384043
0.8956928967156286	16519.431088106645
0.8959168199398075	16592.42697530692
0.8961407991447926	16668.3664956148
0.8963648343445789	16680.65891548675
0.896588925553165	16607.316686063245
0.8968130727845534	16693.410985111426
0.8970372760527496	16855.764072387738
0.8972615353717629	16765.0266723888
0.8974858507556059	16768.434200037707
0.8977102222182949	17059.543526370686
0.8979346497738496	17179.255683085186
0.8981591334362931	17228.056353523978
0.8983836732196523	17274.20304452292
0.8986082691379572	17350.496159017
0.8988329212052417	17288.78648321876
0.8990576294355432	17156.323591175813
0.8992823938429022	17278.696526113625
0.8995072144413631	17463.27647809474
0.8997320912449734	17666.1851518495
0.8999570242677847	17745.088749060276
0.9001820135238516	17773.92589912006
0.9004070590272328	17823.716923187767
0.9006321607919896	17825.95208291377
0.9008573188321878	17907.679165948928
0.9010825331618959	17960.591231541835
0.9013078037951865	18093.764501485042
0.9015331307461353	18177.357095676973
0.9017585140288219	18249.61402521966
0.9019839536573292	18313.815499971508
0.9022094496457435	18406.899095582685
0.9024350020081551	18469.558917344613
0.9026606107586572	18516.338793795734
0.902886275911347	18576.47442614759
0.9031119974803249	18654.098101413012
0.9033377754796951	18716.52086914917
0.903563609923565	18805.975708303406
0.903789500826046	18886.265726628146
0.9040154482012526	18946.833597973993
0.904241452063303	19011.750285708324
0.9044675124263188	19077.54677391791
0.9046936293044254	19142.008656895865
0.9049198027117517	19207.311409170936
0.9051460326624297	19286.712766642748
0.9053723191705955	19362.780535566624
0.9055986622503881	19427.45990089801
0.9058250619159507	19507.010989727136
0.9060515181814298	19576.005798559516
0.9062780310609752	19629.91555630417
0.9065046005687405	19690.023513546803
0.906731226718883	19772.17696504885
0.9069579095255627	19842.822375451684
0.907184649002944	19879.02500758758
0.907411445165195	19938.915144002225
0.9076382980264862	20046.333922883492
0.907865207600993	20126.5382819238
0.9080921739028933	20161.109465972822
0.9083191969463691	20217.789905302754
0.9085462767456058	20317.57438939122
0.9087734133147922	20362.132122607538
0.9090006066681211	20421.04598693477
0.909227856819788	20537.99044860191
0.9094551637839932	20628.36607022326
0.9096825275749393	20683.09966251236
0.9099099482068329	20750.13161714951
0.9101374256938848	20813.009510733442
0.9103649600503083	20908.055956409742
0.9105925512903209	20958.934153704664
0.9108201994281437	20849.44569211166
0.9110479044780008	21004.0869372305
0.9112756664541204	21221.64779335204
0.911503485370734	21320.978109607888
0.9117313612420768	21363.625223010975
0.9119592940823873	21432.116983616314
0.912187283905908	21523.70461131725
0.9124153307268845	21626.67471270009
0.9126434345595664	21705.439421242743
0.9128715954182063	21755.463728667284
0.9130998133170609	21789.912208589365
0.9133280882703902	21857.853019631046
0.913556420292458	21961.841219365382
0.9137848093975312	22017.501482436186
0.9140132555998806	22129.40961290485
0.9142417589137806	22236.907917190416
0.9144703193535092	22267.906131675758
0.9146989369333476	22336.42277200478
