#wavelength	surface flux
0.6450077295303345	75.45098671851397
0.6472567915916443	81.06931873289946
0.6494921445846558	87.0313522846483
0.6517150402069092	93.30736413001306
0.6539263725280762	100.0049886983893
0.6561272740364075	107.05756794589104
0.6583186388015747	114.56528276002624
0.6605015397071838	122.48828526079407
0.6626768708229065	130.83796080256107
0.6648455858230591	139.7093807458633
0.6670085787773132	149.08015393578503
0.6691668033599854	158.98958302444845
0.6713210344314575	169.23500919268014
0.6734722256660461	180.51685584648905
0.6756211519241333	192.20961078428203
0.6777685880661011	204.56330530762523
0.6799154281616211	217.6271927594394
0.6820623278617859	231.40571203589357
0.6842101216316223	245.97270401027242
0.6863595843315125	261.36276617731636
0.688511312007904	277.5578368602099
0.6906660795211792	294.5774922195551
0.6928245425224304	312.28747567364917
0.6949873566627502	332.01960304885347
0.6971551775932312	352.4049105009661
0.6993286609649658	373.42808037656386
0.7015084028244019	396.4829567667848
0.7036949396133423	420.47691048481596
0.7058889269828796	445.8488356092493
0.7080909013748169	472.3519681549738
0.710301399230957	500.45135327840944
0.712520956993103	530.5570188963418
0.7147500514984131	561.9818705207093
0.7169892191886902	592.4879440797539
0.7192389369010925	630.579295438796
0.7214996814727783	667.5172681165175
0.723771870136261	706.9635625855393
0.7260559797286987	749.2700159177207
0.7283523678779602	793.3001797990598
0.7306615710258484	838.3523627991823
0.7329838871955872	889.2376520999344
0.7353196740150452	938.1267494533097
0.7376693487167358	995.2249771038653
0.7400332689285278	1054.4335470519852
0.7424117922782898	1115.3448388894344
0.7448052167892456	1180.6456830233492
0.7472138404846191	1250.6310095223027
0.7496379613876343	1325.137623961701
0.7520779371261597	1402.40594882132
0.7545340061187744	1485.0128435262618
0.7570064663887024	1572.0724064225237
0.7594954967498779	1663.5562161857704
0.7620013952255249	1759.3168650243656
0.7645244002342224	1849.1895199162611
0.7670646905899048	1859.7427509578633
0.7696225643157959	1995.4170166558247
0.7721980810165405	2197.67458312145
0.7747915983200073	2336.9648429020217
0.7774031162261963	2474.4240425017824
0.7800329327583313	2604.6173597640714
0.7826811671257019	2771.6061424617096
0.7853479981422424	2933.2103211690473
0.7880334854125977	3102.773351496077
0.7907378077507019	3283.1724220831115
0.7934610247612	3470.4981787036013
0.7962033748626709	3670.09047034516
0.7989648580551147	3888.1284059382056
0.801745593547821	4113.126012421836
0.8045456409454346	4353.176930915038
0.8073651194572449	4605.071081489549
0.8102040886878967	4849.179751814328
0.8130625486373901	5138.095997486223
0.8159406185150146	5442.548269715059
0.8188382983207703	5725.169733496083
0.8217556476593018	6089.089875814394
0.8246926665306091	6435.0025453509725
0.8276493549346924	6801.023478751432
0.8306257724761963	7198.214320280894
0.8336219191551208	7623.020156026755
0.8366377949714661	8055.977834760472
0.8396733403205872	8509.117750066596
0.8427285552024841	9008.470775189015
0.8458034992218018	9510.787319125897
0.8488980531692505	10056.70280787039
0.8520121574401855	10632.901165297679
0.8551458716392517	11235.433847085993
0.8582990765571594	11873.599324562145
0.8614717125892639	12536.335827625946
0.8646637797355652	13229.640018887038
0.8678751587867737	13987.416888630922
0.8711057901382446	14770.036707249823
0.8743556141853333	15594.881873137023
0.87762451171875	16470.041117550965
0.8809124231338501	17383.803856482515
0.8842192888259888	18341.41096660043
0.8875449895858765	19360.100884871885
0.8908893465995789	20312.10441581444
0.894252359867096	21441.65810725996
0.8976338505744934	22128.30947588863
0.9010337591171265	23773.092145729126
0.9044519662857056	25212.004691264345
0.9078882932662964	26569.19800915292
0.9113426208496094	28040.86542521037
0.914814829826355	29466.230921020055
0.9183048605918884	30966.708221349392
0.9218124747276306	32642.212462248528
0.925337553024292	34026.92483564572
0.9288799166679382	35229.27672140466
0.9324395060539246	35179.59282738277
0.9360161423683167	37192.72160878398
0.9396095871925354	41644.71816385667
0.943219780921936	44281.82926978616
0.9468464851379395	43343.78291755473
0.9504896402359009	45642.92310328528
0.9541489481925964	49838.26612401623
0.9578243494033813	53033.89217929548
0.9615156054496765	55047.185956788744
0.9652225375175476	58486.66832638934
0.9689450263977051	62776.46511546254
0.9726828336715698	64598.08994100598
0.9764357805252075	68837.82769635842
0.9802037477493286	71995.85840532366
0.983986496925354	76214.08082266977
0.9877838492393494	79921.26272788741
0.9915955662727356	84097.47036729117
0.9954215884208679	88337.99579685781
0.9992615580558777	92581.00504462964
1.0031154155731201	96804.07717825538
1.0069829225540161	101340.88830605816
1.0108637809753418	106089.39661609633
1.0147579908370972	110997.56886972279
1.018665075302124	116059.75841084146
1.022585153579712	121376.79234885042
1.0265177488327026	126858.85791333651
1.0304628610610962	132559.39581909936
1.0344202518463135	138472.24960613615
1.0383895635604858	144603.74201035837
1.0423706769943237	150959.4373273459
1.0463634729385376	157534.6022151787
1.0503677129745483	164314.69376436944
1.0543830394744873	171444.64077755908
1.058409333229065	178728.7272542543
1.0624464750289917	186735.18724853406
1.0664942264556885	194734.1409091073
1.0705522298812866	202991.91044214868
1.0746204853057861	211600.0556474036
1.0786986351013184	219952.04568810738
1.0827864408493042	229247.63138505776
1.086883783340454	238152.74025196084
1.0909905433654785	247384.8406526783
1.0951062440872192	256290.13633634042
1.0992310047149658	260126.14395925062
1.10336434841156	270514.4882087074
1.1075061559677124	285295.45154169213
1.1116561889648438	294909.01744787674
1.115814208984375	252679.1880503287
1.1199802160263062	290461.25300951826
1.124153733253479	262239.7804378579
1.1283347606658936	313640.5277870311
1.1325229406356812	349027.758835162
1.1367181539535522	345425.9482366063
1.1409201622009277	384048.63171443064
1.145128846168518	371230.48257317074
1.1493438482284546	341989.96119388967
1.1535650491714478	418875.4222629264
1.1577922105789185	441940.4780938102
1.1620250940322876	450577.3808859758
1.1662636995315552	467092.7154285306
1.170507550239563	468978.30452117464
1.174756646156311	501273.05261208833
1.1790107488632202	525120.3072285781
1.1832695007324219	546542.3949059098
1.1875330209732056	562960.5993398504
1.191800832748413	586325.57137108
1.1960728168487549	603872.6291248503
1.2003488540649414	622807.365386614
1.2046287059783936	646169.6865421594
1.2089121341705322	667695.2749050551
1.2131990194320679	684217.0810736403
1.2174891233444214	711529.6635482241
1.2217823266983032	733564.2941612098
1.2260783910751343	756912.2573485711
1.230377197265625	779445.2082219692
1.2346785068511963	804902.2910878147
1.238982081413269	829540.4320151664
1.2432878017425537	854314.4765794573
1.2475954294204712	879424.3899655656
1.2519049644470215	905449.271938404
1.256216049194336	932095.7531935582
1.2605286836624146	959150.5131286291
1.2648425102233887	986920.3575242058
1.2691574096679688	1013279.4525749508
1.2734732627868652	1040926.5037916563
1.2777899503707886	1072193.1372770173
1.2821072340011597	1096186.1520498341
1.2864248752593994	1127912.1036703046
1.2907428741455078	1156495.8781264583
1.2950609922409058	1157946.8853377947
1.2993791103363037	1201154.8168883445
1.303696870803833	1245547.9275056766
1.3080145120620728	1280968.6219485966
1.3123314380645752	1308464.7941910655
1.3166478872299194	1340698.3494940377
1.3209635019302368	1365093.5608656364
1.3252781629562378	1412231.456516194
1.3295916318893433	1439970.7838538268
1.3339040279388428	1416701.5275365904
1.3382149934768677	1283798.1073458495
1.3425244092941284	1085190.6764443303
1.3468321561813354	1114017.9801620257
1.3511382341384888	1141310.9244246995
1.3554422855377197	1132552.4758923657
1.3597444295883179	1225517.5990996335
1.3640443086624146	1194544.5614478728
1.3683418035507202	1270577.5753539829
1.3726370334625244	1521530.84874376
1.3769296407699585	1555972.5869335453
1.381219506263733	1629091.9741518039
1.3855066299438477	1420449.3554311607
1.3897908926010132	1528981.8348716146
1.3940720558166504	1469649.4179498334
1.3983501195907593	1488972.4810106438
1.4026249647140503	1657755.8780418315
1.4068963527679443	1704593.4240741604
1.4111642837524414	1860250.2970482716
1.4154287576675415	1607872.7934915302
1.419689416885376	1571725.255106505
1.4239463806152344	1370105.95955799
1.4281994104385376	1931427.9708473813
1.4324485063552856	1851578.093227269
1.436693549156189	2057384.444875339
1.440934419631958	2001068.057143269
1.4451709985733032	2092602.1103785117
1.449403166770935	2073282.0646142638
1.453631043434143	2046846.2017075124
1.4578542709350586	2469413.735001163
1.4620729684829712	2447836.8255583816
1.4662868976593018	2543162.3211493804
1.4704961776733398	2683722.9426414934
1.4747005701065063	2584776.7649326543
1.4788999557495117	2797633.359647181
1.4830944538116455	2744244.5973360552
1.4872838258743286	2910784.1032317984
1.491468071937561	3057527.9701428674
1.4956470727920532	3087726.412492421
1.4998208284378052	3109056.1377740684
1.5039892196655273	3210351.821421713
1.5081522464752197	3301630.531696231
1.5123097896575928	3348377.9820288704
1.5164618492126465	3427562.0918411072
1.5206083059310913	3429279.606403101
1.5247491598129272	3505507.387151788
1.5288842916488647	3399194.762692113
1.5330137014389038	3669298.1100849244
1.5371372699737549	3809999.9522333066
1.541254997253418	3856562.6386448075
1.545366883277893	3932312.049157986
1.5494728088378906	4003849.509968604
1.5535727739334106	4070527.30722343
1.5576666593551636	4126346.617613705
1.561754584312439	4184896.743944365
1.5658363103866577	4273702.966386501
1.5699119567871094	4340703.020350415
1.5739814043045044	4413034.24659067
1.5780447721481323	4481461.105857672
1.582101821899414	4542701.467364052
1.5861525535583496	4599798.034141792
1.5901970863342285	4670618.109834046
1.5942351818084717	4741189.784595628
1.5982669591903687	4811967.905991084
1.6022924184799194	4876335.807271125
1.606311559677124	4941761.594054989
1.6103241443634033	5010828.640436921
1.6143304109573364	5079000.260273364
1.6183301210403442	5145137.411679034
1.6223233938217163	5157919.831480399
1.6263102293014526	5117930.44739226
1.6302905082702637	5169578.162027325
1.634264349937439	5240158.379130171
1.638231635093689	5458401.230828817
1.6421923637390137	5530834.551591557
1.646146535873413	5575067.233611782
1.6500942707061768	5621756.693801177
1.6540353298187256	5613403.947568223
1.6579699516296387	5625761.873821752
1.661897897720337	5773385.495620262
1.6658192873001099	5431181.849276828
1.6697341203689575	5528859.465409183
1.6736423969268799	6057336.062648389
1.677544116973877	6077026.47794553
1.6814392805099487	6058244.644825364
1.6853278875350952	6062433.477835561
1.6892099380493164	6350500.697405999
1.6930854320526123	5900239.40824825
1.696954369544983	6204977.535982011
1.7008168697357178	5878067.817400922
1.7046726942062378	5948484.330690081
1.708522081375122	6348901.502749205
1.712364912033081	6699988.215426867
1.7162011861801147	6797623.530066167
1.7200311422348022	6767372.1589533705
1.723854422569275	6421604.572224198
1.7276713848114014	6468937.528498007
1.731481909751892	6495701.300363679
1.7352858781814575	6334424.128824236
1.7390835285186768	6779893.506399438
1.7428747415542603	6785176.715961914
1.7466596364974976	7235416.895509105
1.7504380941390991	7312349.48792827
1.7542102336883545	7040318.340458923
1.7579760551452637	6889285.35149173
1.7617355585098267	6983522.924304286
1.7654887437820435	6737036.155187851
1.7692357301712036	6574843.068704036
1.7729763984680176	6853960.882489172
1.776710867881775	6117598.4437102275
1.7804391384124756	6927657.796876782
1.7841613292694092	6463435.545243574
1.7878772020339966	6432015.817448085
1.7915871143341064	5598467.530662162
1.7952908277511597	6538195.912796874
1.7989884614944458	6689896.452130302
1.8026801347732544	6468204.282904101
1.806365728378296	6109600.312774205
1.8100452423095703	4972831.0116330655
1.8137187957763672	6520680.078183627
1.817386507987976	7547669.999818675
1.8210482597351074	7515000.082113637
1.8247040510177612	8407095.958972331
1.828354001045227	8310942.371892546
1.8319982290267944	7154844.8557640035
1.8356364965438843	7980811.121540802
1.8392690420150757	7577048.898133604
1.8428958654403687	7955635.198854893
1.8465168476104736	7175312.973266635
1.8501322269439697	7292213.012036045
1.8537418842315674	8546037.212394392
1.8573459386825562	7396760.372208944
1.860944390296936	5718138.830173369
1.864537239074707	5888530.1027870225
1.8681244850158691	5841294.568694591
1.871706247329712	6306958.199778545
1.8752825260162354	6881229.430223655
1.8788533210754395	8725070.183757335
1.8824186325073242	8067580.192247672
1.8859784603118896	7220533.156922919
1.8895330429077148	7696363.27688155
1.8930821418762207	7798545.3775186995
1.8966259956359863	8375382.196814843
1.9001644849777222	8129656.330394439
1.9036977291107178	8162275.242200556
1.9072256088256836	9625834.019640617
1.9107483625411987	9494923.421792604
1.9142658710479736	8494214.659339914
1.9177782535552979	9755330.960923633
1.9212853908538818	8730353.121573487
1.9247875213623047	7689542.029861191
1.9282845258712769	9330752.177366877
1.9317764043807983	9093375.114077287
1.9352631568908691	9474246.876885436
1.9387450218200684	6438757.5597535325
1.942221760749817	7211708.862408147
1.9456936120986938	7488118.6101901475
1.9491604566574097	7758051.569653704
1.952622413635254	8772951.705529148
1.956079363822937	6505197.698917838
1.959531545639038	6463082.63400783
1.962978720664978	8620980.06466177
1.966421127319336	10332910.060717236
1.9698586463928223	9917310.356153132
1.9732913970947266	10436926.736077625
1.9767193794250488	10063560.543048102
1.9801424741744995	10380399.829932228
1.9835609197616577	10382883.270806849
1.9869745969772339	10263079.72060987
1.990383505821228	9106789.485191178
1.9937876462936401	10266605.400944116
1.9971871376037598	10802610.563277448
2.000581979751587	9983252.507762652
2.003972291946411	10454434.750303162
2.007357597351074	11435770.955229659
2.0107386112213135	11913806.206417698
2.0141148567199707	12168183.125180809
2.017486572265625	11332425.198171936
2.0208535194396973	12056594.885287818
2.0242159366607666	12544212.705840679
2.027573823928833	12126416.303110715
2.0309269428253174	11858210.436361896
2.034275770187378	12686136.775110388
2.0376198291778564	12972888.997342383
2.040959596633911	13054903.835230889
2.044294595718384	13063659.378182696
2.0476250648498535	12475348.88164693
2.0509510040283203	12365561.634972598
2.054272413253784	13047363.26607604
2.057589530944824	13147980.222111778
2.0609018802642822	12838597.911680652
2.0642096996307373	13098491.472663393
2.0675129890441895	13353577.286559159
2.0708119869232178	13592211.780790243
2.074106216430664	13808637.550215008
2.0773961544036865	13921426.893790895
2.080681324005127	14040410.44613075
2.0839622020721436	14031988.591813663
2.087238311767578	14012931.754273959
2.090510129928589	14132718.96194906
2.0937774181365967	14232194.740273915
2.0970399379730225	14316152.010790652
2.1002981662750244	14330331.930015437
2.1035518646240234	14456070.686833309
2.1068007946014404	14489406.454543792
2.1100454330444336	14249333.479078114
2.1132853031158447	14010956.236102786
2.116520881652832	14274344.332437064
2.1197516918182373	14676179.553028295
2.1229779720306396	14865720.272030056
2.12619948387146	14925684.604853092
2.1294167041778564	14972651.200411465
2.132629156112671	15047420.71412412
2.1358368396759033	15137122.669820447
2.139039993286133	15193381.833417205
2.1422386169433594	15220274.697832726
2.145432472229004	15260173.482324036
2.1486217975616455	15214924.428755974
2.151806354522705	15007966.324603394
2.1549863815307617	14595193.30710189
2.1581614017486572	15052368.229613742
2.16133189201355	15346414.252467776
2.1644976139068604	15526875.909366492
2.167658567428589	15662017.769503493
2.1708147525787354	15646216.303433042
2.173966407775879	15563382.12914958
2.1771130561828613	15754822.056875104
2.1802549362182617	15914234.29291622
2.183391809463501	15958960.763086928
2.1865241527557373	15982012.962761516
2.1896514892578125	16020359.225315977
2.1927738189697266	16073472.370647227
2.1958916187286377	15837820.656272037
2.1990041732788086	15002446.579445232
2.2021119594573975	14958183.291031297
2.2052149772644043	15657721.255979426
2.208312749862671	16250148.356322536
2.2114057540893555	16404144.349976277
2.214493751525879	16047785.804014899
2.217576742172241	15673022.010831727
2.2206547260284424	15892004.799839325
2.2237277030944824	15637038.187073825
2.2267956733703613	15383451.117903713
2.2298583984375	15767212.424596896
2.2329163551330566	15886427.089108862
2.235969066619873	16164034.419063801
2.2390167713165283	15728953.394583168
2.2420592308044434	14979823.744569147
2.2450966835021973	15543607.454281664
2.248128890991211	15170280.322471231
2.2511560916900635	14635514.14408585
2.254178285598755	13738617.134800505
2.257194995880127	14051117.69197491
2.260206699371338	15150677.08209946
2.2632133960723877	15609961.589955654
2.266214609146118	15926570.545801302
2.2692108154296875	15698122.733456433
2.2722020149230957	15799844.202727605
2.2751877307891846	15393451.408962399
2.278168201446533	15506359.962265756
2.2811436653137207	16618833.445412423
2.284113883972168	14992473.11577009
2.287078857421875	12962985.220160702
2.290038824081421	14093795.989836093
2.2929933071136475	13567334.853126327
2.295942783355713	13025377.049269058
2.298887014389038	13833305.898762785
2.301826238632202	15465731.968279002
2.304760217666626	16483945.662730446
2.3076889514923096	16975313.23747819
2.310612440109253	17215963.657275252
2.3135311603546143	16105668.684037825
2.3164443969726562	13354488.184948156
2.319352865219116	13548153.662759189
2.322256088256836	13709909.847238766
2.3251543045043945	12767960.930336447
2.328047275543213	13485424.401089167
2.330935478210449	13980573.719396375
2.3338186740875244	14457301.394703928
2.3366971015930176	15055838.265357142
2.3395702838897705	15200134.65616685
2.3424389362335205	15009098.936964419
2.3453025817871094	13956259.748188555
2.348161458969116	12797980.588759322
2.351015567779541	13337743.160178248
2.353865146636963	13859420.136829635
2.3567099571228027	13446296.667886188
2.3595502376556396	13945135.98698408
2.3623859882354736	15490020.91851378
2.3652172088623047	16128035.14321374
2.368043899536133	13434631.300758947
2.370866537094116	11616907.290484535
2.3736846446990967	11310980.988829156
2.3764986991882324	11633971.613968285
2.3793084621429443	12842217.492946453
2.3821144104003906	14085193.247009654
2.384916305541992	14609343.242145486
2.387714147567749	14949080.738379017
2.3905084133148193	17157298.708800625
2.393299102783203	18099792.005509123
2.3960859775543213	17050838.863675572
2.398869514465332	14860974.481465006
2.4016497135162354	12858742.202296762
2.4044265747070312	13036015.546205575
2.407200336456299	14819289.472336777
2.409970998764038	15788262.614979433
2.4127390384674072	14933958.296437645
2.415503978729248	12953005.526660858
2.418266534805298	12432591.806898393
2.4210267066955566	12957477.303824589
2.4237842559814453	13297798.09635858
2.426539897918701	12718032.881694727
2.429293394088745	12462707.93889031
2.4320452213287354	13508322.210263744
2.4347951412200928	13751675.071013207
2.4375438690185547	13456616.177958693
2.440291166305542	13608050.637256058
2.443037271499634	13954094.022563444
2.445782423019409	14755030.387837796
2.4485268592834473	14950223.354992002
2.451270818710327	14710786.019178204
2.454014539718628	14789074.507399855
2.4567582607269287	14243017.26870295
2.4595019817352295	14449150.506670652
2.4622461795806885	16117338.253113838
2.4649908542633057	17159328.099341698
2.4677364826202393	16038414.644369366
2.4704833030700684	15015795.765076334
2.473231554031372	14904962.277614601
2.4759814739227295	14884337.875529826
