#wavelength	surface flux
0.8	82247.2398591726
0.8002000000000001	82484.07405393515
0.8004000500000003	82716.52592496236
0.8006001500125003	83065.32698485596
0.8008003000500035	83307.16247450038
0.8010005001250161	83586.3712561478
0.8012007502500472	83899.35408680882
0.8014010504376099	84179.78398839447
0.8016014007002193	84442.62678930325
0.8018018010503944	84688.26202515513
0.8020022515006572	85013.45788818155
0.8022027520635323	85333.95470051357
0.8024033027515483	85633.13212304642
0.8026039035772362	85879.62671294883
0.8028045545531306	86159.11905418403
0.8030052556917691	86441.64846468388
0.803206007005692	86775.89824355404
0.8034068085074435	87079.5695924968
0.8036076602095705	87358.62488481237
0.8038085621246229	87661.96741113323
0.8040095142651542	87935.47611475947
0.8042105166437206	88207.21021004631
0.8044115692728815	88481.92476664293
0.8046126721651998	88711.65231138995
0.8048138253332411	89048.88084245654
0.8050150287895745	89360.86600397385
0.805216282546772	89674.19035760518
0.8054175866174087	89962.04297594022
0.8056189410140631	90261.12904053844
0.8058203457493168	90551.49962458521
0.8060218008357541	90848.41250049566
0.8062233062859632	91103.20859377449
0.8064248621125346	91445.21610071753
0.806626468328063	91761.27818251705
0.8068281249451449	92015.06114256523
0.8070298319763813	92314.63731995394
0.8072315894343755	92620.70393479412
0.8074333973317341	92872.10757645826
0.8076352556810671	93234.02530102726
0.8078371644949874	93563.3382169008
0.8080391237861113	93871.69345418895
0.8082411335670578	94140.89744790824
0.8084431938504498	94463.88948255923
0.8086453046489125	94781.61374821379
0.8088474659750746	95038.7425515267
0.8090496778415686	95342.09081394061
0.809251940261029	95615.92204823405
0.8094542532460944	95779.71122228245
0.8096566168094059	96068.47844919973
0.8098590309636085	96569.82991752808
0.8100614957213493	96887.4188810753
0.8102640110952797	97160.25990350729
0.8104665770980536	97500.81091899078
0.8106691937423283	97733.20119547611
0.8108718610407639	97528.5807331758
0.8110745790060241	97552.0503513977
0.8112773476507757	98394.63634195816
0.8114801669876885	98432.56949830813
0.8116830370294355	98614.6392396362
0.8118859577886929	99584.8931101686
0.8120889292781401	100039.28121095007
0.8122919515104597	100371.94788566008
0.8124950244983374	100731.97754667058
0.8126981482544621	101052.65257868214
0.8129013227915257	101353.85852561607
0.8131045481222237	101568.55711783271
0.8133078242592543	101637.21173095655
0.8135111512153191	101490.06358225098
0.813714529003123	102001.09797551866
0.8139179576353739	102759.23377929242
0.8141214371247829	102809.53035319211
0.8143249674840641	102723.03569948724
0.814528548725935	102575.68699413251
0.8147321808631167	103525.55294954535
0.8149358639083326	104407.0181933237
0.8151395978743097	104482.65261879473
0.8153433827737784	105035.2070451142
0.8155472186194719	105523.12840096235
0.8157511054241268	105890.09859156462
0.815955043200483	106063.07820416229
0.8161590319612831	106498.15369358996
0.8163630717192736	106680.79724498895
0.8165671624872033	107179.15203241477
0.8167713042778252	107693.238404489
0.8169754971038948	107942.76415066658
0.8171797409781707	107934.1575516914
0.8173840359134155	108588.96118238365
0.8175883819223938	109063.13349670336
0.8177927790178745	109403.13784576867
0.8179972272126291	109535.98741597575
0.8182017265194322	109723.01986253759
0.8184062769510622	109132.04578337845
0.8186108785203001	110474.50544978649
0.8188155312399301	111180.10419676248
0.8190202351227402	111490.42424252225
0.819224990181521	111858.23284666378
0.8194297964290664	112193.2979800364
0.8196346538781738	112428.95075314741
0.8198395625416434	112638.97428711127
0.8200445224322789	112790.20947619693
0.820249533562887	113538.35259901184
0.8204545959462778	113960.17941770282
0.8206597095952644	114305.8209633183
0.8208648745226633	114674.9635118516
0.8210700907412941	115031.9663246697
0.8212753582639793	115412.30648256649
0.8214806771035456	115785.05160762838
0.8216860472728215	116164.55458698468
0.8218914687846397	116534.98356559775
0.822096941651836	116883.96117973667
0.822302465887249	117199.5054851416
0.8225080415037209	117490.18838861553
0.8227136685140968	117436.89084444364
0.8229193469312254	116032.44616289012
0.8231250767679583	116361.65924369615
0.8233308580371503	117640.27521365118
0.8235366907516598	118234.72435802754
0.8237425749243477	118775.36420872934
0.8239485105680789	119795.87233307997
0.824154497695721	120455.5580494664
0.824360536320145	120868.77109902207
0.8245666264542252	121288.21274413208
0.8247727681108388	121715.20679723278
0.8249789613028664	121968.0083798456
0.8251852060431922	122450.10408466199
0.825391502344703	122918.47237459931
0.8255978502202894	123325.54179781143
0.8258042496828445	123691.71425641749
0.8260107007452654	124016.15292325232
0.8262172034204517	124211.12053852442
0.8264237577213068	124246.61906137592
0.8266303636607373	124002.1195453452
0.8268370212516525	125372.9424064385
0.8270437305069654	126026.7807946348
0.8272504914395923	126372.39178042838
0.8274573040624523	126703.66207068083
0.8276641683884679	127097.15543800229
0.8278710844305652	127469.40205260059
0.8280780522016729	127869.92987889881
0.8282850717147234	128162.35140682985
0.8284921429826521	128607.68445077847
0.8286992660183978	128975.33599750305
0.8289064408349024	128867.57080541477
0.8291136674451112	129272.5339981928
0.8293209458619727	130136.65313453092
0.8295282760984382	130577.03652916785
0.829735658167463	130720.80553401397
0.8299430920820048	131111.0307539988
0.8301505778550254	131781.23052442828
0.8303581154994891	132335.17241098444
0.8305657050283641	132712.37373867352
0.8307733464546212	133097.9610926437
0.8309810397912352	133399.67929698227
0.8311887850511829	133703.05867891718
0.8313965822474458	133376.0552835578
0.8316044313930077	134097.50537713087
0.8318123325008561	134996.21476069678
0.8320202855839813	135538.14953206677
0.8322282906553774	135956.98941843704
0.8324363477280413	136161.2994839709
0.8326444568149735	136812.95947177114
0.8328526179291771	137299.7120862091
0.8330608310836596	137491.91442478797
0.8332690962914304	137673.4712385904
0.8334774135655034	138341.54942552722
0.833685782918895	138822.43144222273
0.8338942043646247	139314.8071726616
0.834102677915716	139798.67290923762
0.834311203585195	140196.04945858283
0.8345197813860912	140635.91774399206
0.8347284113314379	141132.56248404869
0.8349370934342709	141582.00835647775
0.8351458277076294	142003.7054199475
0.8353546141645565	142382.3629663719
0.8355634528180977	142554.745824204
0.8357723436813022	143131.1648854641
0.8359812867672226	143627.52568564686
0.8361902820889144	144024.4884420505
0.8363993296594368	144260.14170666703
0.8366084294918518	144887.03450118314
0.8368175815992247	145504.93208831243
0.8370267859946247	145920.1739986962
0.8372360426911234	146315.22030264672
0.8374453517017962	146663.12005427975
0.8376547130397217	146883.05550973656
0.8378641267179816	147617.743001419
0.8380735927496613	148195.09848986004
0.8382831111478488	148533.0787039661
0.8384926819256358	148666.42352109283
0.8387023050961173	149060.38412934318
0.8389119806723914	149781.54669294826
0.8391217086675596	150444.9671412066
0.8393314890947265	150947.8075790317
0.8395413219670003	151274.08633122218
0.8397512072974922	151746.6324330655
0.8399611450993165	152036.70247739155
0.8401711353855914	152020.66989933883
0.8403811781694378	152874.00322305685
0.8405912734639802	153513.22084867538
0.8408014212823464	153740.62269689175
0.8410116216376671	154465.26613357692
0.8412218745430766	155018.12184989502
0.8414321800117124	155562.7464461506
0.8416425380567154	155972.87474743353
0.8418529486912297	156396.34274787712
0.8420634119284025	156835.69686090833
0.8422739277813847	157414.27812322875
0.8424844962633302	157921.9311003534
0.842695117387396	158325.22014814688
0.8429057911667428	158693.2102568177
0.8431165176145345	159260.70217499693
0.8433272967439382	159852.62461984897
0.8435381285681244	160326.0525002856
0.8437490131002665	160802.8743940399
0.8439599503535415	161278.70306692718
0.84417094034113	161616.98576195346
0.8443819830762154	162136.45035257682
0.8445930785719846	162390.83084960346
0.8448042268416277	163142.31055489663
0.8450154278983382	163693.4895359879
0.8452266817553128	164186.26225988384
0.8454379884257517	164552.164983079
0.8456493479228583	164886.92825091578
0.845860760259839	165687.64016837598
0.846072225449904	166227.56466781697
0.8462837435062666	166422.27425108376
0.8464953144421433	166298.17443781882
0.8467069382707537	166985.9061005832
0.8469186150053215	168084.43949404324
0.847130344659073	168659.77944811276
0.8473421272452377	169176.00135482618
0.8475539627770492	169591.90605380142
0.8477658512677435	170155.91836264083
0.8479777927305605	170691.3532810783
0.8481897871787432	171132.1963545923
0.848401834625538	171677.4893462831
0.8486139350841944	172230.77069474183
0.8488260885679657	172548.1206990685
0.8490382950901076	172767.94081367942
0.8492505546638802	173610.36793502735
0.8494628673025462	174235.93582722353
0.8496752330193721	174755.6305251528
0.8498876518276269	175278.9625021738
0.8501001237405839	175843.79834905214
0.8503126487715191	176379.4461604199
0.850525226933712	176927.0357181318
0.8507378582404455	177448.00848620085
0.8509505427050057	177986.6756055962
0.8511632803406821	178539.73263832324
0.8513760711607672	179052.26491754656
0.8515889151785576	179557.40058413192
0.8518018124073523	180043.69036799113
0.8520147628604541	180568.35497772225
0.8522277665511693	181029.15468202226
0.8524408234928071	181689.0782641621
0.8526539336986805	182212.3956539332
0.8528670971821053	182783.18127692188
0.8530803139564007	183240.20893637437
0.8532935840348901	183666.40817505136
0.8535069074308987	184220.49201630108
0.8537202841577566	184783.22621870285
0.8539337142287962	185287.2286589563
0.8541471976573534	185654.5779057314
0.8543607344567677	186363.42731926686
0.8545743246403821	187054.61640090062
0.8547879682215422	187572.21970199994
0.8550016652135977	188109.70490916524
0.8552154156299011	188692.82616400215
0.8554292194838088	189303.15496163693
0.8556430767886797	189829.95518272452
0.855856987557877	190438.6840129231
0.8560709518047664	191033.8804438868
0.8562849695427177	191586.92550738243
0.8564990407851035	192133.78819150972
0.8567131655452999	192703.54428142944
0.8569273438366862	193301.36438458838
0.8571415756726455	193887.71131654765
0.8573558610665638	194374.18188060753
0.8575702000318304	194991.0320239965
0.8577845925818384	195587.19236551487
0.857999038729984	196182.66547062405
0.8582135384896665	196693.54699525438
0.858428091874289	197125.20922730173
0.8586426988972576	197679.13644160546
0.8588573595719821	198278.821786612
0.8590720739118751	198876.0188460506
0.8592868419303532	199455.4513412202
0.8595016636408359	200075.8856558486
0.8597165390567462	200661.9930877113
0.8599314681915105	201206.0171034927
0.8601464510585584	201782.8507173604
0.860361487671323	202387.33727196915
0.8605765780432408	203004.99762598856
0.8607917221877518	203543.39190831376
0.8610069201182988	204029.51011164146
0.8612221718483286	204111.13526770566
0.8614374773912907	203859.69972089375
0.8616528367606385	204600.25297072742
0.8618682499698288	204488.81661208562
0.8620837170323213	204883.47780932472
0.8622992379615795	205941.12857172347
0.8625148127710699	205540.6168282385
0.8627304414742627	206072.5849185001
0.8629461240846313	207879.40173077566
0.8631618606156526	207845.97338338336
0.8633776510808066	208460.79015756783
0.8635934954935769	209383.6041666842
0.8638093938674504	210252.75555207938
0.8640253462159173	210696.10872755366
0.8642413525524714	210389.70194245523
0.8644574128906095	212201.45916944297
0.8646735272438323	212753.7601223538
0.8648896956256433	212930.48035320512
0.8651059180495498	214437.7649249713
0.8653221945290621	215118.75678774857
0.8655385250776946	215992.6445358124
0.8657549097089641	216825.56582144863
0.8659713484363913	217533.05713470248
0.8661878412735006	218162.29595864503
0.866404388233819	218628.46795175746
0.8666209893308775	219251.14363294374
0.8668376445782103	220326.83082021793
0.8670543539893549	220989.11119157606
0.8672711175778525	221325.6411688222
0.8674879353572469	221777.33544292225
0.8677048073410862	222536.89235837647
0.8679217335429217	223342.2973492836
0.8681387139763074	223946.22111710088
0.8683557486548015	224091.39043504753
0.8685728375919655	224789.53092698505
0.8687899808013633	225979.14269134356
0.8690071782965637	226840.14466357615
0.869224430091138	227598.26978231638
0.8694417361986609	227816.2710549227
0.8696590966327107	227910.77889312038
0.869876511406869	228725.45516619994
0.8700939805347206	229515.53323340812
0.8703115040298544	230652.98703132514
0.870529081905862	231228.01777298976
0.8707467141763385	231633.65212745222
0.8709644008548827	232068.30527420226
0.8711821419550964	232732.73522167891
0.8713999374905854	233459.42807410684
0.871617787474958	234782.10245869367
0.8718356919218269	235371.25928241835
0.8720536508448075	235402.3516330509
0.8722716642575187	235867.80076416736
0.8724897321735832	236970.37090202954
0.8727078546066265	238014.24810215208
0.8729260315702784	238853.48694177062
0.873144263078171	239608.9336552271
0.8733625491439405	240275.54476017662
0.8735808897812266	240471.5995185893
0.8737992850036719	241241.3192841682
0.874017734824923	241529.13586270233
0.8742362392586293	242920.36386782437
0.874454798318444	243594.16398233632
0.8746734120180236	244215.685999206
0.8748920803710283	245162.13942531863
0.875110803391121	245648.15211864002
0.8753295810919689	246336.3627072011
0.875548413487242	247265.95751453523
0.8757673005906139	248082.6374969301
0.8759862424157616	248820.668263205
0.8762052389763657	249403.0127731776
0.8764242902861098	249932.27338872646
0.8766433963586814	250851.9175231098
0.8768625572077712	251133.76615620172
0.8770817728470732	251435.64541358926
0.8773010432902849	252670.20654675015
0.8775203685511077	253779.1063392919
0.8777397486432454	254656.14881099673
0.8779591835804065	255290.66236045852
0.8781786733763015	255941.67687912023
0.8783982180446457	256775.6829563233
0.878617817599157	257430.0937835378
0.8788374720535569	257851.00875926716
0.8790571814215703	258538.9222025115
0.8792769457169257	259322.45280339225
0.879496764953355	260434.58283364435
0.8797166391445934	261370.0311008139
0.8799365683043796	261967.48264509643
0.8801565524464557	262057.0826352497
0.8803765915845676	262599.0282945996
0.8805966857324639	263866.02712139505
0.880816834903897	264481.69721349183
0.881037039112623	265485.76135847124
0.8812572983724012	266160.0456803021
0.8814776126969944	266644.6378627718
0.8816979821001687	267629.79195935745
0.8819184065956938	268805.0770708154
0.8821388861973429	269508.1766543788
0.8823594209188923	269839.6480163029
0.882580010774122	270736.4766705533
0.8828006557768155	271685.0325516657
0.8830213559407598	272382.61410078383
0.8832421112797452	273288.6219482405
0.8834629218075651	273661.1602314709
0.8836837875380171	274044.2239157604
0.8839047084849018	275243.3848847161
0.884125684662023	276526.8526489056
0.8843467160831886	277381.82577194576
0.8845678027622095	277977.0565455018
0.8847889447129001	278320.09307586786
0.8850101419490785	279273.0148536981
0.8852313944845657	279996.3362464569
0.885452702333187	281184.03847035207
0.8856740655087704	281927.7290223715
0.8858954840251476	282173.60008965334
0.8861169578961539	282913.2845330781
0.886338487135628	284244.9652278084
0.886560071757412	285254.91491799057
0.8867817117753515	286076.24803481955
0.8870034072032955	286704.19904559606
0.8872251580550963	287117.3701982629
0.8874469643446101	288052.5824712693
0.8876688260856963	289021.68347056746
0.8878907432922178	290024.1834995406
0.8881127159780409	290807.79339178646
0.8883347441570356	291274.72228559566
0.8885568278430749	291535.70892297884
0.8887789670500358	292743.8288805606
0.8890011617917983	293864.4338072707
0.8892234120822464	294982.7322798446
0.8894457179352669	295797.05135185504
0.8896680793647509	296328.7602436697
0.8898904963845921	296769.4039211352
0.8901129690086883	297757.140902106
0.8903354972509405	298938.0513845984
0.8905580811252535	299838.1472154954
0.8907807206455347	299773.02775894175
0.8910034158256963	297946.71667533787
0.8912261666796527	300049.64837822894
0.8914489732213227	302591.8850589298
0.8916718354646282	303140.21417786606
0.8918947534234944	303449.3709163696
0.8921177271118502	303737.3385884933
0.8923407565436284	302987.1753748053
0.8925638417327644	304724.3649734111
0.8927869826931977	307271.3481358053
0.8930101794388711	308382.05906867277
0.8932334319837308	307753.8911421738
0.8934567403417267	307917.0652397745
0.8936801045268123	310204.91577278456
0.8939035245529441	310993.02597325214
0.8941270004340824	311910.7431752664
0.894350532184191	312290.0648800513
0.8945741198172371	314002.0314141769
0.8947977633471915	315731.3500311477
0.8950214627880284	316556.4413661086
0.8952452181537254	316830.2169036698
0.8954690294582639	317225.5414420799
0.8956928967156286	318767.24801996775
0.8959168199398075	319499.8833639865
0.8961407991447926	320415.9657330476
0.8963648343445789	320167.8178875771
0.896588925553165	316746.67352876894
0.8968130727845534	318615.6451063288
0.8970372760527496	321972.4260992334
0.8972615353717629	315953.0344791919
0.8974858507556059	315057.84703348455
0.8977102222182949	325408.21797491476
0.8979346497738496	328284.8467621367
0.8981591334362931	328919.9818445201
0.8983836732196523	329378.29952956125
0.8986082691379572	330446.5562120487
0.8988329212052417	326833.88199858845
0.8990576294355432	320301.5360198787
0.8992823938429022	324742.544944223
0.8995072144413631	330513.4935836506
0.8997320912449734	334868.71673720394
0.8999570242677847	336035.98758412036
0.9001820135238516	336413.37118580204
0.9004070590272328	336595.1185459586
0.9006321607919896	334996.6831237893
0.9008573188321878	336784.63391263795
0.9010825331618959	337411.6471747684
0.9013078037951865	340694.14087833127
0.9015331307461353	342078.0237189511
0.9017585140288219	343399.0782892313
0.9019839536573292	344509.9879522555
0.9022094496457435	345806.8606993013
0.9024350020081551	346670.2018723716
0.9026606107586572	347356.9829505811
0.902886275911347	348102.55957718607
0.9031119974803249	348773.2502810896
0.9033377754796951	349635.09202891064
0.903563609923565	351234.2068762042
0.903789500826046	352364.3190821581
0.9040154482012526	352877.18158454413
0.904241452063303	354142.6332848668
0.9044675124263188	354800.7683487751
0.9046936293044254	355396.831145004
0.9049198027117517	356368.7020303643
0.9051460326624297	357776.69032370474
0.9053723191705955	359183.23484260833
0.9055986622503881	360148.69689263054
0.9058250619159507	361207.861624495
0.9060515181814298	362076.2749476796
0.9062780310609752	362451.7068697641
0.9065046005687405	363227.9553450827
0.906731226718883	364540.71055741713
0.9069579095255627	365691.06469556363
0.907184649002944	366389.71575667046
0.907411445165195	367403.732493638
0.9076382980264862	368556.27982509683
0.907865207600993	369400.4035657167
0.9080921739028933	369971.1576271681
0.9083191969463691	370748.3521868031
0.9085462767456058	371870.7498637892
0.9087734133147922	372178.1753325336
0.9090006066681211	373942.4481570139
0.909227856819788	375446.7145910201
0.9094551637839932	376570.6989437145
0.9096825275749393	377326.7828722746
0.9099099482068329	377866.54012312234
0.9101374256938848	378810.7456308189
0.9103649600503083	379981.4415202462
0.9105925512903209	380813.9207258649
0.9108201994281437	378229.5948486759
0.9110479044780008	380690.0751682954
0.9112756664541204	384545.32456132583
0.911503485370734	386000.69225086784
0.9117313612420768	386230.2883602957
0.9119592940823873	387509.55679249007
0.912187283905908	389136.9187443303
0.9124153307268845	390357.62504627445
0.9126434345595664	391377.3065270016
0.9128715954182063	392125.0678811319
0.9130998133170609	392642.1944087884
0.9133280882703902	393136.2907539162
0.913556420292458	394555.7037407517
0.9137848093975312	395542.2672497645
0.9140132555998806	397263.9482323633
