#wavelength	surface flux
0.7	2316.630781473433
0.7001166666666666	2323.2341123193814
0.7002333527777778	2329.79138544432
0.700350058336574	2336.2319048522904
0.7004667833462966	2342.8568344360197
0.7005835278101878	2349.619993207909
0.7007002917314895	2356.1276520046836
0.7008170751134447	2362.6067717568153
0.7009338779592968	2369.160165860859
0.7010507002722901	2375.601483546173
0.7011675420556689	2381.896258431061
0.701284403312678	2388.595640459392
0.7014012840465635	2395.447014258913
0.7015181842605713	2401.9085747319536
0.701635103957948	2408.2385882232106
0.701752043141941	2414.2605026432116
0.701869001815798	2420.579671845629
0.7019859799827672	2427.105825653635
0.7021029776460976	2434.0773096781318
0.7022199948090387	2441.0659635448174
0.7023370314748403	2447.839892619088
0.7024540876467528	2454.7678286993455
0.702571163328027	2461.8749288019944
0.7026882585219152	2468.745293914071
0.7028053732316688	2475.5411153727173
0.7029225074605406	2482.380907707437
0.7030396612117841	2489.0650122036113
0.7031568344886527	2495.4437597412552
0.7032740272944008	2502.342578426853
0.7033912396322832	2509.5452323071913
0.7035084715055552	2516.680359208048
0.7036257229174727	2523.764971255749
0.7037429938712924	2530.6865145036318
0.7038602843702709	2537.7043099405514
0.7039775944176659	2544.8132171700954
0.7040949240167356	2551.787264166535
0.7042122731707383	2558.728778653337
0.7043296418829335	2565.65793931491
0.7044470301565806	2572.6206901467253
0.70456443799494	2579.6331334399038
0.7046818654012724	2586.7774214680358
0.7047993123788394	2593.979674804492
0.7049167789309024	2600.852990936477
0.7050342650607243	2607.8576410687024
0.7051517707715678	2615.1844286573337
0.7052692960666963	2622.5296911241476
0.705386840949374	2629.888188202975
0.7055044054228656	2636.9105435946813
0.7056219894904361	2643.9665866792616
0.7057395931553511	2651.3501046877245
0.705857216420877	2658.672345164116
0.7059748592902804	2665.9298014043998
0.7060925217668288	2673.216869038484
0.70621020385379	2680.5341283944185
0.7063279055544321	2688.0765611826605
0.7064456268720246	2695.5516487783707
0.7065633678098366	2702.919566581754
0.7066811283711383	2710.242508639099
0.7067989085592001	2717.5458051694345
0.7069167083772933	2724.616109989809
0.7070345278286895	2731.63372195231
0.707152366916661	2738.527813446477
0.7072702256444803	2745.2398141415233
0.7073881040154211	2751.828623756885
0.7075060020327569	2760.3132780209457
0.7076239196997625	2768.8819939028353
0.7077418570197124	2776.9410927697686
0.7078598139958823	2784.779536583185
0.7079777906315483	2792.403454536214
0.7080957869299869	2800.014905561033
0.7082138028944751	2807.628536471424
0.7083318385282908	2815.274374693561
0.7084498938347124	2822.936398575526
0.708567968817018	2830.620073706061
0.7086860634784875	2838.095070692702
0.7088041778224007	2845.458100100357
0.7089223118520377	2851.866111223951
0.7090404655706796	2859.2118598295124
0.709158638981608	2868.357404795571
0.709276832088105	2876.4423385244404
0.7093950448934531	2883.956745039281
0.7095132774009353	2889.1326656996166
0.7096315296138355	2895.6627761932154
0.7097498015354378	2906.1985406157305
0.7098680931690269	2915.195821228773
0.7099864045178884	2923.0589433056266
0.7101047355853081	2931.390128960459
0.7102230863745722	2939.74428123114
0.7103414568889679	2947.938784972711
0.7104598471317828	2956.1620240535526
0.7105782571063047	2964.413411363805
0.7106966868158224	2972.1565877063254
0.710815136263625	2979.8751208238855
0.7109336054530023	2988.2003362880123
0.7110520943872445	2996.4896963191286
0.7111706030696424	3004.732963656259
0.7112891315034873	3012.962828962364
0.7114076796920712	3021.1880217088833
0.7115262476386865	3029.3976906765874
0.7116448353466263	3037.55172575965
0.711763442819184	3045.6133379310204
0.711882070059654	3053.9994523659657
0.7120007170713306	3062.5285888130297
0.7121193838575091	3070.6730870655656
0.7122380704214853	3078.8706865868908
0.7123567767665555	3087.179240996281
0.7124755028960166	3095.319888705973
0.7125942488131658	3103.3649625534044
0.7127130145213015	3111.260073797857
0.7128318000237216	3119.376698210854
0.7129506053237256	3128.1181700235566
0.7130694304246129	3136.841479887612
0.7131882753296837	3145.552283923938
0.7133071400422386	3153.8616384482048
0.7134260245655789	3161.6132975962196
0.7135449289030065	3167.528400811723
0.7136638530578235	3176.2081383593722
0.7137827970333332	3187.2732728835995
0.7139017608328388	3196.3806775083067
0.7140207444596443	3205.1534412205547
0.7141397479170543	3213.9047810672114
0.7142587712083737	3222.226904761111
0.7143778143369084	3230.1088153474057
0.7144968773059646	3239.5335630980353
0.7146159601188489	3249.1550159394424
0.7147350627788687	3257.7573730849076
0.7148541852893318	3266.560463851209
0.7149733276535467	3275.603908376958
0.7150924898748222	3284.2109116655665
0.715211671956468	3292.769470501105
0.7153308739017941	3302.0336438920285
0.715450095714111	3311.2292132705707
0.71556933739673	3320.32950319825
0.7156885989529628	3329.073895761274
0.7158078803861218	3337.6593886805845
0.7159271816995193	3345.728244586133
0.7160465028964692	3353.8148610200715
0.7161658439802853	3361.928534675549
0.7162852049542819	3369.1275828045577
0.7164045858217744	3376.0344760991966
0.716523986586078	3384.7925771753467
0.7166434072505089	3388.474649014831
0.716762847818384	3383.2643134671316
0.7168823082930204	3395.8114440443787
0.7170017886777359	3416.282911308458
0.7171212889758488	3430.5178864820773
0.7172408091906781	3442.1341164536407
0.7173603493255433	3448.695940003952
0.7174799093837642	3456.6916532823257
0.7175994893686615	3465.399764604421
0.7177190892835562	3476.5266291879
0.7178387091317702	3488.08565333284
0.7179583489166254	3500.5245152565567
0.7180780086414448	3509.9771086975265
0.7181976883095517	3517.835449101751
0.7183173879242699	3529.0626780516372
0.718437107488924	3539.818445601892
0.7185568470068389	3549.3743640599737
0.7186766064813399	3557.436075287775
0.7187963859157535	3564.656394649503
0.7189161853134061	3576.422118640047
0.719036004677625	3587.687098496187
0.7191558440117378	3597.454359398695
0.7192757033190732	3607.1672687103896
0.7193955826029597	3616.8491398746796
0.7195154818667269	3626.0813466115765
0.7196354011137046	3635.416856444833
0.7197553403472235	3645.0381456822415
0.7198752995706147	3655.0586878154963
0.7199952787872098	3665.316782414819
0.720115278000341	3674.7692175351044
0.7202352972133411	3684.225470573252
0.7203553364295432	3693.7680756954705
0.7204753956522815	3703.246002349211
0.7205954748848902	3712.6862451320376
0.7207155741307044	3722.875676686695
0.7208356933930594	3733.197927299347
0.7209558326752915	3743.762831550308
0.7210759919807375	3753.514723011918
0.7211961713127342	3762.7946060206705
0.7213163706746197	3770.865339264254
0.7214365900697322	3779.6188303759054
0.7215568295014103	3790.022530812077
0.721677088972994	3801.358216951821
0.7217973684878227	3813.2168283092315
0.7219176680492374	3821.4923513908298
0.7220379876605789	3830.774513277827
0.722158327325189	3842.411144463683
0.7222786870464099	3853.874345210975
0.7223990668275843	3865.246565092002
0.7225194666720555	3875.991155908756
0.7226398865831676	3886.4410045585046
0.7227603265642646	3896.3037094986066
0.722880786618692	3905.1094488206277
0.7230012667497951	3913.4272733864036
0.7231217669609201	3924.6244518302137
0.7232422872554135	3935.370334973508
0.7233628276366229	3945.279503276834
0.7234833881078956	3956.285256651816
0.7236039686725803	3967.6544341160707
0.7237245693340255	3975.305399527404
0.7238451900955812	3984.647565744755
0.7239658309605971	3996.812559017817
0.7240864919324239	4009.1616631656134
0.7242071730144127	4021.463460267615
0.724327874209915	4031.8473379950246
0.7244485955222832	4042.7454802738594
0.7245693369548704	4054.406271848003
0.7246900985110294	4065.320500843404
0.7248108801941148	4076.0225950954286
0.7249316820074803	4087.1389299617736
0.7250525039544815	4098.136868847989
0.7251733460384739	4108.980147384819
0.7252942082628137	4119.4146083656315
0.7254150906308574	4129.699153122677
0.7255359931459625	4139.736784103543
0.7256569158114868	4150.183855481122
0.7257778586307888	4161.091314966523
0.7258988216072273	4172.515053213885
0.7260198047441617	4184.051058192287
0.7261408080449525	4195.563828945521
0.72626183151296	4206.759306512133
0.7263828751515454	4217.65101408695
0.7265039389640706	4228.958495086949
0.726625022953898	4240.1153519799345
0.7267461271243904	4250.426588918447
0.7268672514789111	4260.8996457127905
0.7269883960208241	4271.502721118683
0.7271095607534942	4284.122469412604
0.7272307456802866	4296.526923510304
0.7273519508045666	4307.665909066798
0.7274731761297006	4318.475995901158
0.7275944216590555	4329.070666438446
0.7277156873959987	4339.880797229623
0.7278369733438982	4349.787607837391
0.727958279506122	4357.608215134904
0.7280796058860397	4370.487595431249
0.7282009524870207	4386.000818273627
0.7283223193124353	4399.0760529815825
0.7284437063656539	4411.699798009984
0.7285651136500483	4423.519192742341
0.7286865411689898	4435.056847216017
0.7288079889258514	4446.392411252388
0.7289294569240056	4456.456789966448
0.7290509451668262	4467.210285404679
0.7291724536576875	4478.917619578705
0.7292939823999636	4491.497109927514
0.7294155313970303	4504.2499743217995
0.7295371006522632	4516.432691148026
0.7296586901690385	4528.242973257589
0.7297802999507332	4539.65383556107
0.7299019300007252	4548.989160278064
0.7300235803223919	4558.476559322869
0.7301452509191123	4570.262063287899
0.7302669417942654	4581.8077306259265
0.7303886529512311	4593.157529781237
0.7305103843933897	4597.702125746035
0.7306321361241218	4606.134120575921
0.7307539081468093	4627.359678171913
0.7308757004648336	4643.494525781759
0.7309975130815778	4656.52980357145
0.7311193460004248	4669.621812379991
0.7312411992247582	4682.7055546032325
0.7313630727579622	4695.76879290891
0.7314849666034219	4707.952227019934
0.7316068807645224	4719.682045364893
0.7317288152446498	4730.205474787641
0.7318507700471907	4741.502552731875
0.7319727451755319	4753.88396844089
0.732094740633061	4768.321403076507
0.7322167564231665	4782.831280976641
0.7323387925492371	4794.070627070987
0.7324608490146619	4806.596847342977
0.732582925822831	4820.417941103325
0.7327050229771347	4833.618625071736
0.7328271404809642	4846.603221971986
0.7329492783377112	4859.1803648881505
0.7330714365507675	4872.137978093669
0.7331936151235259	4885.366450351224
0.7333158140593796	4897.525092669685
0.7334380333617229	4909.735748188479
0.7335602730339499	4922.189965600128
0.7336825330794556	4935.084234716858
0.7338048135016354	4948.111334398517
0.7339271143038857	4959.1838008861205
0.734049435489603	4967.108777445387
0.7341717770621846	4970.391047693443
0.7342941390250283	4983.587799790897
0.7344165213815324	4999.535468659074
0.734538924135096	5014.050389684865
0.7346613472891185	5028.351640065412
0.734783790847	5042.440104398472
0.7349062548121412	5053.74082322137
0.7350287391879431	5062.224633385978
0.7351512439778078	5062.902457649203
0.7352737691851374	5078.930351791538
0.735396314813335	5105.107804084324
0.7355188808658037	5120.4208071517805
0.7356414673459482	5135.6232781060935
0.7357640742571725	5151.266341212532
0.7358867016028818	5165.061503080646
0.7360093493864824	5178.02453533099
0.7361320176113801	5190.171330615739
0.736254706280982	5201.891155242072
0.7363774153986956	5213.079740759918
0.7365001449679286	5217.2027333949945
0.7366228949920899	5222.354310939115
0.7367456654745885	5238.944380404019
0.7368684564188344	5260.879085741751
0.7369912678282374	5287.058048368507
0.7371140997062088	5303.6807349339315
0.7372369520561599	5318.71164123725
0.7373598248815024	5331.739150274421
0.7374827181856494	5345.165247856062
0.7376056319720137	5358.787701442773
0.7377285662440091	5372.444742747991
0.7378515210050496	5384.910043759211
0.7379744962585505	5395.721645294881
0.738097492007927	5406.890267054516
0.7382205082565949	5418.347970532152
0.738343545007971	5430.778831602683
0.7384666022654723	5445.302858315989
0.7385896800325165	5461.602103671461
0.7387127783125219	5476.382314405273
0.7388358971089073	5491.041163743897
0.7389590364250921	5505.739999550203
0.7390821962644963	5520.634951682487
0.7392053766305403	5535.65143990079
0.7393285775266454	5551.163961834875
0.7394517989562333	5566.517977245847
0.7395750409227259	5581.652394622365
0.7396983034295463	5596.663701701886
0.739821586480118	5611.496861830711
0.7399448900778645	5625.6316185600335
0.7400682142262109	5638.9083375601585
0.740191558928582	5651.492045999054
0.7403149241884034	5664.771262167795
0.7404383100091014	5678.26691928977
0.7405617163941028	5692.12750515191
0.7406851433468352	5706.854329574028
0.7408085908707264	5721.417230296979
0.7409320589692048	5728.562558766999
0.7410555476456997	5742.760805173351
0.7411790569036406	5765.587912358592
0.7413025867464579	5780.246078550121
0.7414261371775823	5792.913362434822
0.7415497082004452	5804.372845231651
0.7416732998184786	5817.921483507656
0.741796912035115	5832.904700364995
0.7419205448537874	5846.30223153604
0.7420441982779297	5861.107592339374
0.742167872310976	5878.515841941273
0.7422915669563612	5896.445091358171
0.7424152822175206	5914.287387271688
0.7425390180978901	5930.204133014066
0.7426627746009065	5945.292376725792
0.7427865517300065	5959.575581631024
0.7429103494886282	5977.743696059701
0.7430341678802096	5995.69332990341
0.7431580069081896	6011.822748373582
0.7432818665760077	6027.439199070425
0.7434057468871037	6042.785799862207
0.7435296478449182	6057.972432858606
0.7436535694528923	6073.543086522962
0.7437775117144678	6089.617424714071
0.7439014746330868	6103.275016974469
0.7440254582121922	6116.8968919158515
0.7441494624552276	6132.449728603356
0.7442734873656368	6146.183078675798
0.7443975329468645	6158.6654582113515
0.7445215992023557	6173.549189189931
0.7446456861355559	6187.6073831350295
0.7447697937499119	6200.163181747883
0.7448939220488703	6215.885332001322
0.7450180710358784	6232.770810243325
0.7451422407143843	6250.497963756708
0.7452664310878367	6267.995208306796
0.7453906421596846	6285.292869438377
0.7455148739333779	6303.022736256479
0.7456391264123667	6320.611586871006
0.7457633996001021	6337.813967435165
0.7458876935000356	6354.620578852895
0.7460120081156189	6371.293410563526
0.7461363434503048	6388.248004018146
0.7462606995075466	6404.608638695018
0.7463850762907978	6420.346038287009
0.7465094738035127	6436.049768980476
0.7466338920491467	6452.615566787507
0.746758331031155	6471.493331094596
0.7468827907529935	6488.959323384792
0.7470072712181189	6505.758438371914
0.7471317724299886	6523.244991912283
0.7472562943920602	6540.520529207862
0.7473808371077922	6557.539623260264
0.7475054005806435	6571.79866007152
0.7476299848140736	6586.246050840021
0.7477545898115426	6602.867999245196
0.7478792155765113	6620.016926657121
0.7480038621124406	6637.3591408492575
0.7481285294227926	6651.259659409372
0.7482532175110298	6668.352124876413
0.7483779263806148	6689.731793952772
0.7485026560350116	6707.476592612
0.7486274064776842	6724.417618752021
0.748752177712097	6741.275338513252
0.7488769697417158	6759.723963480033
0.749001782570006	6779.141835338006
0.7491266162004343	6797.13426532678
0.7492514706364677	6814.987664818163
0.7493763458815739	6832.641509214195
0.7495012419392209	6850.238041873347
0.7496261588128773	6867.754821189887
0.7497510965060128	6885.015466651479
0.7498760550220971	6902.903489531552
0.7500010343646007	6921.187536190264
0.7501260345369949	6938.44642073472
0.750251055542751	6955.674099635435
0.7503760973853414	6972.855265946344
0.7505011600682389	6990.442243735919
0.750626243594917	7007.870653143208
0.7507513479688495	7024.3349119059385
0.7508764731935109	7040.846052546807
0.7510016192723765	7057.405399053342
0.7511267862089218	7075.29272413071
0.7512519740066232	7093.167316878016
0.7513771826689577	7111.02274995804
0.7515024121994025	7129.877314015374
0.7516276626014359	7148.782851251129
0.751752933878536	7167.0770778108545
0.7518782260341824	7184.406857776497
0.7520035390718548	7201.237913152541
0.7521288729950334	7220.845403274601
0.7522542278071992	7239.999915268221
0.7523796035118337	7258.559092377923
0.7525050001124189	7277.370627382939
0.7526304176124378	7295.695934086794
0.7527558560153731	7312.344390759733
0.752881315324709	7331.616937523411
0.7530067955439299	7352.257305342367
0.7531322966765205	7371.876223783111
0.7532578187259665	7391.251076713651
0.7533833616957542	7410.339491131525
0.75350892558937	7428.840678759367
0.7536345104103016	7447.2311993101575
0.7537601161620366	7465.562622103611
0.7538857428480638	7483.946097798911
0.7540113904718717	7502.34754285121
0.7541370590369503	7520.672898162861
0.7542627485467898	7538.963896878331
0.7543884590048808	7557.220412298245
0.7545141904147151	7577.805232044807
0.7546399427797842	7598.168017974129
0.7547657161035808	7617.5447062142175
0.754891510389598	7637.070915191481
0.7550173256413296	7656.581699890443
0.7551431618622698	7675.635448705438
0.7552690190559135	7694.642105556831
0.7553948972257561	7713.610527237594
0.7555207963752938	7732.809750112176
0.755646716508023	7752.28538804172
0.755772657627441	7772.211252082272
0.7558986197370455	7791.841294859821
0.756024602840335	7811.496079046137
0.7561506069408084	7831.584495128079
0.7562766320419653	7851.343609433147
0.7564026781473054	7870.893080792192
0.75652874526033	7890.51531170421
0.7566548333845401	7910.4583404059285
0.7567809425234375	7930.817381394178
0.7569070726805247	7950.696706573258
0.7570332238593047	7970.423045261054
0.7571593960632813	7989.956013403315
0.7572855892959586	8008.990663625591
0.7574118035608413	8027.828488900651
0.7575380388614347	8047.037757014727
0.7576642952012449	8067.299538122083
0.7577905725837782	8088.576083775419
0.7579168710125422	8108.417128603222
0.7580431904910444	8128.502164895603
0.7581695310227928	8149.277369076873
0.7582958926112967	8169.7571962858265
0.7584222752600652	8190.158886190968
0.7585486789726085	8210.62670134953
0.7586751037524372	8231.443035503844
0.7588015496030628	8252.483163142593
0.7589280165279966	8272.274131059236
0.7590545045307512	8292.39416593268
0.7591810136148396	8312.947864304366
0.7593075437837755	8334.13863195146
0.7594340950410726	8355.104356311527
0.7595606673902461	8375.150186759121
0.7596872608348112	8395.599249678617
0.7598138753782836	8416.260385191415
0.75994051102418	8437.15562820901
0.7600671677760173	8458.09771963857
0.7601938456373134	8479.081715986888
0.7603205446115863	8500.14730292689
0.7604472647023548	8521.251126227346
0.7605740059131385	8542.410147812903
0.7607007682474575	8563.639240589182
0.7608275517088319	8584.865746255058
0.7609543563007835	8606.011878874542
0.7610811820268336	8626.772109525416
0.7612080288905045	8647.36565308399
0.7613348968953197	8668.685523174021
0.7614617860448022	8690.052113294594
0.7615886963424764	8711.46775627159
0.7617156277918667	8732.312383215678
0.7618425803964988	8753.369539361058
0.7619695541598982	8774.955851181745
0.7620965490855914	8796.608410907216
0.7622235651771058	8818.131764299182
0.7623506024379685	8838.988792479366
0.7624776608717082	8859.897159592516
0.7626047404818536	8880.869172356248
0.7627318412719337	8902.611592694355
0.762858963245479	8924.062735111745
0.7629861064060198	8945.176503510698
0.7631132707570876	8966.014448188753
0.7632404563022137	8986.611412896978
0.7633676630449308	9006.761148893273
0.7634948909887717	9027.370220107257
0.7636221401372697	9048.023683629412
0.7637494104939593	9068.137124355642
0.7638767020623748	9088.174963431027
0.7640040148460518	9108.153846775724
0.7641313488485262	9127.82239286456
0.7642587040733344	9146.648499668416
0.7643860805240132	9164.488559846914
0.7645134782041005	9181.846938367535
0.7646408971171346	9198.60378842972
0.764768337266654	9214.210317763323
0.7648957986561985	9226.833589505559
0.7650232812893079	9238.141497349226
0.7651507851695227	9247.97208749397
0.7652783103003843	9253.884168132936
0.7654058566854343	9256.799674820224
0.7655334243282153	9248.628895564952
0.7656610132322699	9230.510050746185
