#wavelength	surface flux
0.6450077295303345	13.32601408599469
0.6472567915916443	14.436631041107269
0.6494921445846558	15.625148463050243
0.6517150402069092	16.887673381295325
0.6539263725280762	18.242838651341913
0.6561272740364075	19.682698950933755
0.6583186388015747	21.22803810399673
0.6605015397071838	22.870246641163497
0.6626768708229065	24.617687364932333
0.6648455858230591	26.48471571415687
0.6670085787773132	28.47237617439747
0.6691668033599854	30.592846393037213
0.6713210344314575	32.839422854001306
0.6734722256660461	35.24856196461378
0.6756211519241333	37.805624718435375
0.6777685880661011	40.52858408377551
0.6799154281616211	43.4242570511636
0.6820623278617859	46.50820384875088
0.6842101216316223	49.7882662678251
0.6863595843315125	53.280153582808026
0.688511312007904	56.99603285488286
0.6906660795211792	60.94473421594316
0.6928245425224304	65.04857908940329
0.6949873566627502	69.6112019198526
0.6971551775932312	74.39974085658865
0.6993286609649658	79.3907757068823
0.7015084028244019	84.8492937207016
0.7036949396133423	90.59542676882953
0.7058889269828796	96.7234849999602
0.7080909013748169	103.17686088007133
0.710301399230957	110.06517042991717
0.712520956993103	117.47871813202164
0.7147500514984131	125.2806876518216
0.7169892191886902	132.94451177741502
0.7192389369010925	142.45771693279005
0.7214996814727783	151.86658872626785
0.723771870136261	161.90475722752868
0.7260559797286987	172.73913011601613
0.7283523678779602	184.1464120813627
0.7306615710258484	195.8990494489486
0.7329838871955872	209.2709607755145
0.7353196740150452	222.47245056251765
0.7376693487167358	237.58498180263967
0.7400332689285278	253.4410262702747
0.7424117922782898	270.0024047088424
0.7448052167892456	287.7802795922797
0.7472138404846191	306.7957711210139
0.7496379613876343	327.15506546370716
0.7520779371261597	348.59581653193294
0.7545340061187744	371.5546312914973
0.7570064663887024	395.93764821714535
0.7594954967498779	421.80682935944475
0.7620013952255249	449.02912969618984
0.7645244002342224	475.1858957547862
0.7670646905899048	489.1785001494295
0.7696225643157959	525.3804710139486
0.7721980810165405	576.3464241040557
0.7747915983200073	617.1447429310947
0.7774031162261963	658.0050388798309
0.7800329327583313	697.7065287169582
0.7826811671257019	747.2543987979899
0.7853479981422424	796.2850281986023
0.7880334854125977	848.1484799442644
0.7907378077507019	903.6810921960174
0.7934610247612	962.0797697512269
0.7962033748626709	1024.462466255901
0.7989648580551147	1092.7206606426732
0.801745593547821	1164.0595183074697
0.8045456409454346	1240.3344760104405
0.8073651194572449	1321.1962167141414
0.8102040886878967	1401.0846321291135
0.8130625486373901	1493.1440499794526
0.8159406185150146	1593.2009834656476
0.8188382983207703	1688.1637349487844
0.8217556476593018	1807.696598435869
0.8246926665306091	1923.618361978687
0.8276493549346924	2048.391305440984
0.8306257724761963	2182.119311607215
0.8336219191551208	2326.9757293218977
0.8366377949714661	2476.093518330369
0.8396733403205872	2634.421315678956
0.8427285552024841	2808.3172430238064
0.8458034992218018	2986.023713931439
0.8488980531692505	3179.011249511656
0.8520121574401855	3384.635424052935
0.8551458716392517	3601.7186996423366
0.8582990765571594	3832.8737592713414
0.8614717125892639	4073.128967165414
0.8646637797355652	4328.729219687425
0.8678751587867737	4609.58204233477
0.8711057901382446	4899.825153522806
0.8743556141853333	5210.286374543157
0.87762451171875	5540.3259094409495
0.8809124231338501	5888.419157704663
0.8842192888259888	6257.027767978615
0.8875449895858765	6648.885339764532
0.8908893465995789	7028.117469756911
0.894252359867096	7469.002266878306
0.8976338505744934	7752.897664860118
0.9010337591171265	8387.697380844598
0.9044519662857056	8962.826797187656
0.9078882932662964	9505.488833270345
0.9113426208496094	10092.944172121428
0.914814829826355	10686.968615456342
0.9183048605918884	11305.886936423265
0.9218124747276306	12005.677454309334
0.925337553024292	12603.167370013343
0.9288799166679382	13082.53422196936
0.9324395060539246	12965.050753913496
0.9360161423683167	13988.63164960997
0.9396095871925354	15829.186944091023
0.943219780921936	16916.2252887558
0.9468464851379395	16666.68133063291
0.9504896402359009	17666.653750620026
0.9541489481925964	19403.968595648992
0.9578243494033813	20785.7205122452
0.9615156054496765	21787.01885111443
0.9652225375175476	23267.329103556436
0.9689450263977051	25156.641216157394
0.9726828336715698	26055.646866443767
0.9764357805252075	27941.556864253016
0.9802037477493286	29394.704768453146
0.983986496925354	31376.919116964695
0.9877838492393494	33140.07419645955
0.9915955662727356	35075.279758932
0.9954215884208679	37086.39893338714
0.9992615580558777	39100.64780804099
1.0031154155731201	41108.16946505955
1.0069829225540161	43280.69112709744
1.0108637809753418	45568.47552462922
1.0147579908370972	47944.44718503987
1.018665075302124	50423.7214871064
1.022585153579712	53027.13216714671
1.0265177488327026	55733.0571028127
1.0304628610610962	58564.78253274496
1.0344202518463135	61516.801354972566
1.0383895635604858	64596.55206871878
1.0423706769943237	67808.0576270552
1.0463634729385376	71147.75162561513
1.0503677129745483	74627.24656051166
1.0543830394744873	78279.73014041147
1.058409333229065	82042.00223968497
1.0624464750289917	86253.39537517531
1.0664942264556885	90452.33145922466
1.0705522298812866	94798.42396315685
1.0746204853057861	99335.59811533206
1.0786986351013184	103797.75467414285
1.0827864408493042	108746.01088339956
1.086883783340454	113522.69710173566
1.0909905433654785	118540.14563794795
1.0951062440872192	123485.74538432136
1.0992310047149658	126427.43340194016
1.10336434841156	131236.12669136957
1.1075061559677124	138156.09326920813
1.1116561889648438	142541.05076479845
1.115814208984375	122927.93171337391
1.1199802160263062	142163.5944795053
1.124153733253479	126298.25386452346
1.1283347606658936	156343.3246299405
1.1325229406356812	172781.675887391
1.1367181539535522	174555.99033318108
1.1409201622009277	195017.52541965095
1.145128846168518	189625.29895990592
1.1493438482284546	174037.4552208209
1.1535650491714478	213550.22221549254
1.1577922105789185	227489.01789788893
1.1620250940322876	233280.91418464686
1.1662636995315552	243462.2556414174
1.170507550239563	246387.17008886812
1.174756646156311	263548.2090925248
1.1790107488632202	277864.2448728073
1.1832695007324219	290649.6330043998
1.1875330209732056	301427.9277594857
1.191800832748413	314684.002949065
1.1960728168487549	325847.6694660775
1.2003488540649414	337487.829673054
1.2046287059783936	351833.881154212
1.2089121341705322	364967.5361429186
1.2131990194320679	375765.2617057804
1.2174891233444214	392320.9044067314
1.2217823266983032	406168.6100353551
1.2260783910751343	420853.1224864089
1.230377197265625	435351.69897886954
1.2346785068511963	451277.70029484265
1.238982081413269	467072.90588059474
1.2432878017425537	483060.88966564834
1.2475954294204712	499288.482252664
1.2519049644470215	516271.28680260543
1.256216049194336	533552.3396628847
1.2605286836624146	551212.0095830325
1.2648425102233887	569364.1927823526
1.2691574096679688	587151.4492644342
1.2734732627868652	605425.0916573147
1.2777899503707886	625941.9041787307
1.2821072340011597	642597.5520812548
1.2864248752593994	663430.4808116114
1.2907428741455078	683069.4776216145
1.2950609922409058	687807.6879127178
1.2993791103363037	716241.7245703792
1.303696870803833	742775.7700262312
1.3080145120620728	768385.6951920498
1.3123314380645752	786428.4157409183
1.3166478872299194	808828.4923589061
1.3209635019302368	826484.9231072573
1.3252781629562378	857955.6287989197
1.3295916318893433	875033.3902091178
1.3339040279388428	864446.4008745918
1.3382149934768677	744842.8075125205
1.3425244092941284	641555.2722061666
1.3468321561813354	640043.1840978051
1.3511382341384888	666256.6711804582
1.3554422855377197	633381.8790674563
1.3597444295883179	620367.3890495474
1.3640443086624146	685369.1415544808
1.3683418035507202	712023.9276114629
1.3726370334625244	883568.2507869423
1.3769296407699585	899268.0542434534
1.381219506263733	921627.8217822704
1.3855066299438477	804481.5320179133
1.3897908926010132	906735.8838805194
1.3940720558166504	839833.4011743866
1.3983501195907593	892860.0826606908
1.4026249647140503	995975.1321348264
1.4068963527679443	1028190.7124421827
1.4111642837524414	1120178.3893912951
1.4154287576675415	989764.6599286956
1.419689416885376	927356.700018065
1.4239463806152344	817010.345297071
1.4281994104385376	1199112.8573609062
1.4324485063552856	1115184.5491899147
1.436693549156189	1264390.8376519424
1.440934419631958	1224434.6289759127
1.4451709985733032	1323421.526686821
1.449403166770935	1326556.5696238228
1.453631043434143	1363559.9950979864
1.4578542709350586	1657155.277198411
1.4620729684829712	1628232.0660225595
1.4662868976593018	1713783.7987595757
1.4704961776733398	1792698.5290256965
1.4747005701065063	1750625.4584134843
1.4788999557495117	1897378.537237391
1.4830944538116455	1868894.2276089385
1.4872838258743286	1997274.8076715693
1.491468071937561	2091343.5423012474
1.4956470727920532	2115492.3169543166
1.4998208284378052	2165129.67143566
1.5039892196655273	2235961.550928992
1.5081522464752197	2312165.2782133813
1.5123097896575928	2367707.056238175
1.5164618492126465	2420026.0515778684
1.5206083059310913	2441993.2652604887
1.5247491598129272	2517731.6416750634
1.5288842916488647	2460949.0258120634
1.5330137014389038	2653513.466089578
1.5371372699737549	2754975.8467639405
1.541254997253418	2794190.3996434133
1.545366883277893	2856398.903702978
1.5494728088378906	2922558.1953701465
1.5535727739334106	2977418.56552719
1.5576666593551636	3029533.671166169
1.561754584312439	3087497.756145853
1.5658363103866577	3156737.952924747
1.5699119567871094	3218525.465132642
1.5739814043045044	3279987.737013144
1.5780447721481323	3341813.774621359
1.582101821899414	3399971.5908454345
1.5861525535583496	3446636.4660146204
1.5901970863342285	3514536.4012528826
1.5942351818084717	3578424.428056717
1.5982669591903687	3640764.8528236803
1.6022924184799194	3703962.735173897
1.606311559677124	3764919.084230818
1.6103241443634033	3829124.9945391854
1.6143304109573364	3891834.6913613146
1.6183301210403442	3953399.6144710383
1.6223233938217163	3967442.3788404744
1.6263102293014526	3932355.180945149
1.6302905082702637	3952389.1246881294
1.634264349937439	4045143.4215688035
1.638231635093689	4244568.186822148
1.6421923637390137	4316803.254612347
1.646146535873413	4359346.390571677
1.6500942707061768	4404823.578322607
1.6540353298187256	4404469.07040082
1.6579699516296387	4425845.308861238
1.661897897720337	4560371.289456491
1.6658192873001099	4250958.632991857
1.6697341203689575	4341205.979116101
1.6736423969268799	4830485.135360655
1.677544116973877	4868281.153785715
1.6814392805099487	4847280.486412515
1.6853278875350952	4848737.315137081
1.6892099380493164	5116851.626580662
1.6930854320526123	4710954.700080645
1.696954369544983	4980956.242277436
1.7008168697357178	4664584.689642527
1.7046726942062378	4739859.208940012
1.708522081375122	5105441.58660795
1.712364912033081	5474593.241604177
1.7162011861801147	5579222.860474392
1.7200311422348022	5545399.476587838
1.723854422569275	5230652.584323932
1.7276713848114014	5273470.349163648
1.731481909751892	5330814.222888167
1.7352858781814575	5224450.15592216
1.7390835285186768	5645045.492201542
1.7428747415542603	5669274.4423000375
1.7466596364974976	5996697.117482545
1.7504380941390991	6076212.126184042
1.7542102336883545	5721758.367494826
1.7579760551452637	5660871.329902694
1.7617355585098267	5691372.903716412
1.7654887437820435	5494159.165038284
1.7692357301712036	5406705.680912201
1.7729763984680176	5522109.357051613
1.776710867881775	4787926.797011765
1.7804391384124756	5434213.539550019
1.7841613292694092	4876266.8695044285
1.7878772020339966	4925243.115138604
1.7915871143341064	4464132.2877635
1.7952908277511597	5260395.678602818
1.7989884614944458	5247067.815300959
1.8026801347732544	4706885.575511775
1.806365728378296	4495665.369394569
1.8100452423095703	3680388.676757944
1.8137187957763672	4991956.135961218
1.817386507987976	5983873.059720644
1.8210482597351074	5863380.1303670425
1.8247040510177612	6713709.529896437
1.828354001045227	6408328.963817801
1.8319982290267944	5592381.28184239
1.8356364965438843	6025855.94750253
1.8392690420150757	5764308.935790825
1.8428958654403687	5950114.630856068
1.8465168476104736	5448821.456206867
1.8501322269439697	5542170.860673565
1.8537418842315674	6868146.185846486
1.8573459386825562	5782062.560988608
1.860944390296936	4383264.665008298
1.864537239074707	4157260.8711535353
1.8681244850158691	4331254.8112792745
1.871706247329712	4715373.660014257
1.8752825260162354	5303604.667582986
1.8788533210754395	7002522.222782727
1.8824186325073242	6548805.465823884
1.8859784603118896	5866581.378017985
1.8895330429077148	6143606.167329875
1.8930821418762207	6312331.824696827
1.8966259956359863	6691000.360345954
1.9001644849777222	6229839.557199762
1.9036977291107178	6642116.747885923
1.9072256088256836	8048951.021912593
1.9107483625411987	7750324.848411911
1.9142658710479736	6364800.325578125
1.9177782535552979	8218164.269597634
1.9212853908538818	7186508.87658822
1.9247875213623047	6434302.423835281
1.9282845258712769	7790051.639557353
1.9317764043807983	7354979.662976672
1.9352631568908691	7926445.782208467
1.9387450218200684	4840658.910206845
1.942221760749817	5832700.6518662255
1.9456936120986938	6196136.636617417
1.9491604566574097	6267253.654632047
1.952622413635254	7609931.241821414
1.956079363822937	5503332.408838591
1.959531545639038	5082060.561896417
1.962978720664978	6617637.742172125
1.966421127319336	8740917.004911758
1.9698586463928223	8176124.114900905
1.9732913970947266	8789366.324297635
1.9767193794250488	8573257.438341826
1.9801424741744995	8736422.198578302
1.9835609197616577	9013943.76123661
1.9869745969772339	9320774.722924178
1.990383505821228	7972783.526943171
1.9937876462936401	9001439.295515867
1.9971871376037598	9552720.137475662
2.000581979751587	8784931.667848844
2.003972291946411	9522132.009963637
2.007357597351074	10300194.068071635
2.0107386112213135	10820461.535746444
2.0141148567199707	11428047.253915459
2.017486572265625	10652704.362292932
2.0208535194396973	11535074.759707531
2.0242159366607666	11987950.088763222
2.027573823928833	11488648.671875091
2.0309269428253174	11191890.93978196
2.034275770187378	12207507.64178108
2.0376198291778564	12509811.990938837
2.040959596633911	12548498.401725993
2.044294595718384	12618979.542696076
2.0476250648498535	12125071.826424304
2.0509510040283203	12015605.958157714
2.054272413253784	12649462.29252555
2.057589530944824	12777485.325340545
2.0609018802642822	12421437.829084815
2.0642096996307373	12708930.124453763
2.0675129890441895	13023150.642498342
2.0708119869232178	13294086.448647315
2.074106216430664	13501421.417408597
2.0773961544036865	13614334.785629053
2.080681324005127	13820460.071312262
2.0839622020721436	13830788.560404321
2.087238311767578	13813601.137502244
2.090510129928589	13960748.956428496
2.0937774181365967	14073660.50045053
2.0970399379730225	14173374.199960139
2.1002981662750244	14207940.527792105
2.1035518646240234	14365223.798144821
2.1068007946014404	14394558.249338001
2.1100454330444336	14091060.959109902
2.1132853031158447	13796334.512091517
2.116520881652832	14136930.030369183
2.1197516918182373	14601997.86801181
2.1229779720306396	14826893.847124206
2.12619948387146	14898816.000917751
2.1294167041778564	14954948.117492996
2.132629156112671	15045747.518550199
2.1358368396759033	15155072.542961255
2.139039993286133	15225791.230321959
2.1422386169433594	15254330.63267866
2.145432472229004	15298312.286155254
2.1486217975616455	15225827.990276437
2.151806354522705	14951607.493615001
2.1549863815307617	14493369.97773771
2.1581614017486572	15057402.274750663
2.16133189201355	15394026.886803238
2.1644976139068604	15611411.129950542
2.167658567428589	15776753.14631929
2.1708147525787354	15766800.256583592
2.173966407775879	15659437.950330323
2.1771130561828613	15881971.860922845
2.1802549362182617	16066757.907933807
2.183391809463501	16111398.334095038
2.1865241527557373	16158869.236756496
2.1896514892578125	16207422.791394465
2.1927738189697266	16267003.17995061
2.1958916187286377	15945530.988321396
2.1990041732788086	14803795.952373838
2.2021119594573975	14669825.432196096
2.2052149772644043	15616929.361684961
2.208312749862671	16437709.40318548
2.2114057540893555	16640027.13567315
2.214493751525879	16159276.052536683
2.217576742172241	15641333.92938173
2.2206547260284424	15945534.443064116
2.2237277030944824	15663725.156021442
2.2267956733703613	15307903.330335503
2.2298583984375	15617929.695668913
2.2329163551330566	15732781.056280145
2.235969066619873	16148183.054363219
2.2390167713165283	15502998.50387968
2.2420592308044434	14516317.752602125
2.2450966835021973	15292407.540976886
2.248128890991211	14904718.00360463
2.2511560916900635	14320280.4217485
2.254178285598755	13481214.671595233
2.257194995880127	13855770.097281918
2.260206699371338	14915473.75028526
2.2632133960723877	15137295.013057759
2.266214609146118	15520619.611986818
2.2692108154296875	15523304.984120065
2.2722020149230957	15776367.292936785
2.2751877307891846	15217296.518737402
2.278168201446533	15238549.705491526
2.2811436653137207	16651053.895212842
2.284113883972168	14882853.346287902
2.287078857421875	12727408.677704036
2.290038824081421	14001125.134284643
2.2929933071136475	13366857.325963356
2.295942783355713	12577875.479013978
2.298887014389038	13114643.067582024
2.301826238632202	14952666.32420795
2.304760217666626	16372649.044996085
2.3076889514923096	16866606.50139474
2.310612440109253	17077998.467299826
2.3135311603546143	15989653.33503376
2.3164443969726562	12823669.01431511
2.319352865219116	13075150.744850634
2.322256088256836	13531377.891821543
2.3251543045043945	12474308.237615116
2.328047275543213	12968827.09929914
2.330935478210449	13480869.075776242
2.3338186740875244	14038678.796005417
2.3366971015930176	14507849.095706154
2.3395702838897705	14465577.295521254
2.3424389362335205	14159768.475983264
2.3453025817871094	13222272.870972272
2.348161458969116	12162530.93923867
2.351015567779541	12747444.722825356
2.353865146636963	13534663.831165822
2.3567099571228027	13394053.87445073
2.3595502376556396	14059409.518079774
2.3623859882354736	15762935.052500345
2.3652172088623047	16767546.39202449
2.368043899536133	13899934.990816498
2.370866537094116	11237746.970073782
2.3736846446990967	10595692.8277737
2.3764986991882324	10947991.228874182
2.3793084621429443	12857234.093930382
2.3821144104003906	14446529.816602523
2.384916305541992	14495406.792725526
2.387714147567749	14803022.604724782
2.3905084133148193	17425685.146141194
2.393299102783203	18399942.39378735
2.3960859775543213	16740274.52440422
2.398869514465332	13924299.72430402
2.4016497135162354	11844339.048716323
2.4044265747070312	11981834.755970469
2.407200336456299	13739647.450563908
2.409970998764038	15063888.411235765
2.4127390384674072	14632087.43228377
2.415503978729248	12513429.144165618
2.418266534805298	11396805.47652684
2.4210267066955566	11848090.57930446
2.4237842559814453	12554867.94545742
2.426539897918701	12044336.737562744
2.429293394088745	11797542.86328241
2.4320452213287354	12931343.35755473
2.4347951412200928	12901150.015925692
2.4375438690185547	12381490.683860375
2.440291166305542	12863286.303513058
2.443037271499634	13343142.450292815
2.445782423019409	13852999.185671171
2.4485268592834473	13716865.303973291
2.451270818710327	13077182.951328421
2.454014539718628	13249054.347846545
2.4567582607269287	13481901.791826056
2.4595019817352295	14026032.5247459
2.4622461795806885	15476211.95609827
2.4649908542633057	15607168.099527815
2.4677364826202393	13231797.84862615
2.4704833030700684	12355636.663656287
2.473231554031372	13291472.817903
2.4759814739227295	13860623.163901148
2.4787333011627197	12572775.159729594
2.481487512588501	10693775.625262445
