#wavelength	surface flux
0.676892	10314.728613028678
0.678297	10650.753206487483
0.679702	11028.833271114558
0.681109	11411.194335032993
0.682517	11786.293689125685
0.683926	12197.132083587203
0.685337	12612.397968678675
0.686749	13026.924520024426
0.688164	13453.804336431742
0.689581	13876.559328221267
0.691	14315.776437404795
0.692422	14783.186228851702
0.693847	15271.16648600731
0.695274	15836.299927584982
0.696705	16360.87999074507
0.698139	16817.815419941522
0.699576	17367.304341550836
0.701017	18028.106681667155
0.702461	18625.851157526107
0.70391	19239.43617144066
0.705362	19867.10546678457
0.706819	20509.397573594604
0.70828	21157.3691106973
0.709745	21800.52812128429
0.711216	22546.322609206538
0.71269	23257.26913316524
0.71417	23991.109547025346
0.715655	24707.25889058565
0.717145	25386.998898759834
0.71864	26325.697828127133
0.72014	27162.785335797573
0.721647	28031.660716967417
0.723158	28937.090698613207
0.724676	29861.2216383354
0.726199	30791.558264934036
0.727728	31760.350818354553
0.729264	32726.71949871905
0.730805	33706.32756487458
0.732353	34808.911254593
0.733907	35812.53125364064
0.735468	36837.73343662294
0.737035	38026.28832996363
0.738609	39196.403210246426
0.74019	40343.136319405225
0.741777	41516.00055216136
0.743372	42794.347351366385
0.744973	43968.941166650795
0.746582	45285.47891530476
0.748197	46577.15109562344
0.74982	47893.74258240623
0.751451	49063.915619593965
0.753088	50205.015592894226
0.754734	51163.28473119637
0.756386	51824.10699877076
0.758047	51881.708564356675
0.759715	50850.997524630664
0.76139	47515.78589504806
0.763074	39211.18437460939
0.764765	23581.272677551187
0.766464	11087.559226396086
0.768172	15067.47672603112
0.769887	13118.325745257058
0.77161	27559.08734496471
0.773341	50194.558009171444
0.775081	63169.909765684984
0.776829	70729.55982168403
0.778585	73513.96248706328
0.780349	64188.93554393229
0.782121	82777.74564470148
0.783902	87984.32903757525
0.785691	91535.78199091606
0.787489	94919.58933227323
0.789295	98297.26379796032
0.79111	101652.32679610846
0.792933	104013.0039661617
0.794764	92339.95725086049
0.796604	109329.28775032135
0.798453	115668.30306443908
0.80031	119434.43137610193
0.802176	123317.21831025065
0.804051	127312.7812986536
0.805934	131312.55279484112
0.807826	135476.76220667793
0.809727	139416.60090108612
0.811636	143306.083909072
0.813554	147620.9207333307
0.81548	152628.67746134743
0.817416	157372.71145490484
0.81936	162447.82852898314
0.821313	167826.891298108
0.823274	171852.8172691438
0.825244	178138.368132396
0.827223	183308.748553263
0.829211	189269.3129350457
0.831208	194918.09366133885
0.833213	201262.65506287417
0.835227	207348.07315456544
0.837249	213497.30204317332
0.83928	219964.9048017896
0.841321	226901.39391135442
0.843369	233912.22768808922
0.845427	240738.5334664641
0.847493	248028.93856689124
0.849567	255537.06635585843
0.851651	263425.0269101658
0.853742	271060.45351348276
0.855843	279395.3236036574
0.857952	287728.1193285997
0.86007	295792.28060319123
0.862196	301213.8802968129
0.864331	310029.8071623047
0.866474	321402.13300065254
0.868626	331400.9869346483
0.870786	340778.9048261267
0.872955	351209.36521287437
0.875132	362027.9682570286
0.877317	372756.8546106449
0.879511	383883.4686704294
0.881713	395096.76150287106
0.883923	406782.2701745317
0.886142	418874.44383200543
0.888369	430911.16015619086
0.890604	441582.813437079
0.892847	452550.3483980013
0.895099	467149.810500414
0.897358	472298.6043637027
0.899626	488839.835021278
0.901901	508817.70158037526
0.904185	524382.5354982466
0.906476	539268.8304762166
0.908776	553753.3629606969
0.911083	568758.3468202557
0.913398	585676.857252201
0.915721	600068.3908263735
0.918051	616045.6071594827
0.92039	631528.1707526684
0.922736	652877.5149179504
0.925089	661864.6695460696
0.927451	664873.314247954
0.929819	659857.7537941242
0.932195	653464.9702137815
0.934579	651711.51810623
0.93697	700377.766904414
0.939369	768285.7070839641
0.941774	798231.3759043005
0.944187	815692.9921815797
0.946607	798586.9204861918
0.949035	819182.5681900835
0.951469	860469.3695139362
0.953911	892330.1344933561
0.956359	867963.7495488254
0.958814	934438.2296402428
0.961277	951997.066432104
0.963746	996039.4121236826
0.966222	1019796.672643793
0.968705	1065517.1951166524
0.971194	1079335.7531271633
0.97369	1100209.2096701255
0.976193	1145427.7592016412
0.978702	1181389.0692059111
0.981217	1208821.468672944
0.983739	1243793.0819024756
0.986268	1275711.4492750436
0.988802	1309779.5739038214
0.991343	1347546.8620005853
0.99389	1380269.3846365649
0.996444	1419463.6747439052
0.999003	1451689.1221122397
1.00157	1485437.6630291252
1.00414	1522279.0782401194
1.00672	1558576.2914914822
1.0093	1595713.3897302244
1.01189	1634752.3530748882
1.01448	1672559.1289712114
1.01708	1711440.938196246
1.01969	1751564.206743955
1.0223	1791808.5345639044
1.02492	1833530.2147047336
1.02754	1875525.6981180822
1.03017	1917838.6052300364
1.0328	1960104.6999768808
1.03544	2005026.4263058382
1.03808	2049492.7553249002
1.04073	2094638.2590733548
1.04339	2140639.3367828103
1.04604	2187032.5144728464
1.04871	2233707.908802325
1.05138	2282741.905659693
1.05405	2332652.6957816193
1.05673	2382480.5170261953
1.05941	2429732.8900475
1.0621	2487040.9849502463
1.06479	2544432.837685854
1.06749	2592346.8727943394
1.07019	2649952.8587322407
1.07289	2705445.2239658106
1.0756	2762139.712756734
1.07832	2814625.908526205
1.08104	2874251.0747854724
1.08376	2934177.678055327
1.08649	2986464.9945116164
1.08922	3044440.8410719335
1.09195	3090890.4293646226
1.09469	3143796.512968724
1.09743	3138767.5330333295
1.10018	3155143.1898273844
1.10293	3173252.459560426
1.10568	3245438.811622945
1.10844	3289257.992665547
1.1112	3231881.8344978373
1.11396	3060093.324594801
1.11673	3100971.140478897
1.1195	3309924.0503273644
1.12228	2982857.132010034
1.12505	2968972.362897555
1.12783	3508203.2823821795
1.13062	3821466.356569533
1.13341	3449588.060085767
1.1362	3646515.717380537
1.13899	4085769.635406795
1.14178	4186990.24263247
1.14458	3981513.97576528
1.14738	3755813.330385717
1.15019	3985062.5563744702
1.153	4427363.165091051
1.1558	4325835.853404286
1.15862	4657447.799931701
1.16143	4685974.182234251
1.16425	4486799.296539459
1.16707	4889280.119439339
1.16989	4817735.565819442
1.17271	4963580.2476210445
1.17554	5129794.508666519
1.17837	5260969.102443111
1.1812	5422379.272088332
1.18403	5510200.303870255
1.18686	5600773.635993356
1.1897	5677258.949582556
1.19253	5837568.052663625
1.19537	5943871.693691688
1.19822	5992668.362724965
1.20106	6150554.537282792
1.2039	6253337.436636157
1.20675	6372955.304085602
1.2096	6468691.842700248
1.21245	6541368.572819172
1.2153	6671541.886481169
1.21815	6794732.208775261
1.221	6893187.316909474
1.22385	6997965.850270837
1.22671	7112194.790548673
1.22957	7219786.1623330265
1.23242	7326413.025018618
1.23528	7449048.143904763
1.23814	7561780.1959971
1.241	7669333.073804486
1.24387	7784194.517810736
1.24673	7895046.30270317
1.24959	8003482.165031792
1.25245	8121683.806437717
1.25532	8236759.971783914
1.25818	8353739.172140101
1.26105	8470912.549043562
1.26392	8585519.638188362
1.26678	8701381.053794254
1.26965	8805132.985472333
1.27252	8905243.235038996
1.27538	9052035.647243446
1.27825	9172065.114495523
1.28112	9264849.31354471
1.28399	9320341.487918891
1.28686	9487432.018621413
1.28973	9609733.251575291
1.2926	9675878.964243347
1.29546	9559093.596282156
1.29833	9765951.04631416
1.3012	9992986.591197941
1.30407	10160868.302278511
1.30694	10340693.097069321
1.30981	10447693.532642273
1.31267	10491259.836441237
1.31554	10587024.739971776
1.31841	10514016.181262169
1.32128	10883464.575110178
1.32414	10935168.898360725
1.32701	11029325.104717284
1.32987	10876265.726808103
1.33274	10276769.923439408
1.3356	9777747.855188137
1.33847	7185595.741002957
1.34133	6076701.1573770875
1.34419	6183601.382459011
1.34705	6012501.763725944
1.34991	5961427.675891191
1.35277	7408088.912509928
1.35563	5322141.602061422
1.35849	4629391.267540873
1.36135	5221620.372181972
1.3642	6634127.337240358
1.36706	6990859.43387343
1.36991	7230293.953553209
1.37277	8015350.362920868
1.37562	7346800.1527927015
1.37847	9748082.192919495
1.38132	8034785.441509295
1.38417	7334385.29529256
1.38701	6325021.269674869
1.38986	8002064.081503234
1.39271	7072775.469818402
1.39555	6202861.078381284
1.39839	7752413.000816914
1.40123	7492354.47869204
1.40407	8989964.776775274
1.40691	8783481.791582402
1.40974	8907204.154461196
1.41258	9328138.579421686
1.41541	8484528.112248477
1.41824	6700137.391598147
1.42107	6969717.830762987
1.4239	6383600.692393709
1.42673	8966072.092580859
1.42955	10088199.494902076
1.43237	8537072.406464444
1.43519	9310651.306948218
1.43801	10174555.981845988
1.44083	9135005.548002742
1.44365	10857642.921564627
1.44646	11093471.06686028
1.44927	11540791.551315352
1.45208	11909536.870079657
1.45489	10632726.259970188
1.45769	14258118.92284479
1.4605	15145691.114364954
1.4633	12907282.518690547
1.4661	14129907.52717587
1.4689	13726944.264764536
1.47169	15261505.763687003
1.47449	14634982.817732917
1.47728	15438545.827294406
1.48007	15762039.737380642
1.48286	15258758.177407144
1.48564	16051168.1344471
1.48842	16581848.589643203
1.4912	17110621.858290542
1.49398	17371422.171459917
1.49676	17263777.483337186
1.49953	18048587.77019204
1.5023	17809138.322369024
1.50507	18810985.31038115
1.50784	18818096.76970822
1.51061	18960421.460890662
1.51337	19449213.059729125
1.51613	19565809.951057732
1.51888	19884536.645648602
1.52164	20290678.776744686
1.52439	20530136.74081007
1.52714	19785607.43643775
1.52989	20142906.798312947
1.53263	21154118.048059136
1.53538	21812262.916695215
1.53812	22067126.32425405
1.54086	22147620.461957928
1.54359	22082660.74945396
1.54632	22611881.683324005
1.54905	22894824.83384886
1.55178	23046750.183755677
1.5545	23292888.156775877
1.55723	23431701.144695807
1.55995	23698777.79247093
1.56266	23848909.453870032
1.56538	24060702.663646676
1.56809	24438355.136624888
1.5708	24526480.986865897
1.57351	24725215.17938214
1.57621	25019136.048711482
1.57891	25146631.839982886
1.58161	25338593.6649031
1.5843	25459924.679594055
1.587	25556781.05389287
1.58969	25777784.175287537
1.59238	25929820.84592072
1.59506	26145871.02281223
1.59774	26373265.560259037
1.60042	26580307.162760787
1.6031	26732088.58051379
1.60577	26837890.193277888
1.60844	26976411.41827079
1.61111	27199819.340758577
1.61378	27378094.409030553
1.61644	27542107.909042463
1.6191	27690381.93359513
1.62176	27641138.84290325
1.62441	27278024.86274708
1.62707	27185373.605475586
1.62971	26905962.419102177
1.63236	26942921.450922567
1.635	27956886.089305773
1.63764	28608290.77154518
1.64028	28667865.992135398
1.64292	28863782.154472582
1.64555	28875349.840522572
1.64818	29041780.428755023
1.65081	29261328.980414543
1.65343	29282219.32553
1.65605	28659835.791496567
1.65867	29313262.606151156
1.66128	29659063.608577862
1.6639	29511268.69511763
1.66651	26633605.06394826
1.66911	27029475.969829265
1.67172	29983878.964306302
1.67432	30715323.01823701
1.67692	30770924.44539414
1.67951	30873532.754332013
1.68211	30324280.109142672
1.6847	30162599.208300814
1.68728	31222420.269716583
1.68987	31410614.65948723
1.69245	30027381.057994433
1.69503	29432184.422205552
1.6976	30670749.668777872
1.70018	29239117.291466616
1.70275	29255846.05799842
1.70531	29811407.01133742
1.70788	30563835.465520408
1.71044	32061386.252161838
1.713	32662484.80728167
1.71556	32820770.659740962
1.71811	32733649.525435418
1.72066	32247340.5058273
1.72321	30983469.57649119
1.72575	30674730.579377603
1.7283	31014686.786656722
1.73084	31009727.9157151
1.73337	30376861.41972341
1.73591	29576179.92238535
1.73844	30920298.32546473
1.74097	30448926.064553436
1.74349	30612746.989323195
1.74602	31498326.816708755
1.74854	32779862.02759404
1.75105	32275362.728576794
1.75357	29244651.709645517
1.75608	28130106.540458664
1.75859	29355551.611587077
1.7611	29012472.03557156
1.7636	28223493.82995153
1.7661	25627098.566540472
1.7686	24836577.65733123
1.7711	27943182.157472014
1.77359	25913272.741954226
1.77608	22301905.888831794
1.77857	23687799.09366682
1.78105	24039187.704164837
1.78354	20768319.956456233
1.78602	19099273.988911595
1.78849	20430712.589238897
1.79097	19544301.507800274
1.79344	20808860.433237024
1.79591	22299416.49957307
1.79837	23390334.507863283
1.80084	18019491.24004136
1.8033	18465085.39161089
1.80576	18314347.52906739
1.80821	16119574.699918637
1.81067	15455099.818409713
1.81312	19168301.728019685
1.81557	24385292.18093914
1.81801	23094191.61647092
1.82046	21356523.931592546
1.8229	23873395.87210968
1.82533	25426441.756283388
1.82777	23105159.46281075
1.8302	22594110.449016783
1.83263	21720231.69536324
1.83506	21718986.383897886
1.83749	22071052.50584707
1.83991	20226309.21509374
1.84233	20715839.743573874
1.84475	21998166.501163792
1.84716	17855437.43051183
1.84957	18784212.324336946
1.85198	24207185.99049484
1.85439	24014660.364517607
1.8568	20272143.07361345
1.8592	16530770.619411446
1.8616	12977857.326832538
1.864	13003497.727682244
1.86639	14831723.555408575
1.86878	14430117.658464856
1.87118	15734496.59703701
1.87356	16588405.365104364
1.87595	18650821.840721432
1.87833	23226105.77293405
1.88071	24983181.757505562
1.88309	23675905.13991872
1.88547	21258974.25979486
1.88784	21534003.017183863
1.89021	21721331.630050242
1.89258	22975928.706622213
1.89494	25777795.28276644
1.89731	25336808.133248035
1.89967	22392430.865919307
1.90203	22842307.52288725
1.90439	24584711.590368077
1.90674	28958750.66123452
1.90909	32622703.466967605
1.91144	27093390.611984123
1.91379	22739968.424882337
1.91613	27645599.106523566
1.91848	31035114.733267464
1.92082	26669710.819021244
1.92315	22265349.439715724
1.92549	25343728.85314693
1.92782	27415767.215433683
1.93015	24129702.12471178
1.93248	24432288.086292315
1.93481	26025438.93028486
1.93713	20151963.804157313
1.93945	13753031.039859707
1.94177	17876837.944326416
1.94409	21207251.67075861
1.94641	19840349.225103542
1.94872	19210775.601732496
1.95103	23753153.956181444
1.95334	25869168.362803925
1.95564	20560404.548388556
1.95795	18012670.970009707
1.96025	17720463.215484966
1.96255	19274722.158645507
1.96484	24250713.84206408
1.96714	27329824.590195563
1.96943	25679074.52026744
1.97172	27123087.17934912
1.97401	28618808.066754878
1.97629	27576860.21990588
1.97858	27777468.458177216
1.98086	25905519.247967828
1.98314	28001326.522788554
1.98541	32884010.202812895
1.98769	31405274.06206895
1.98996	25676856.076071247
1.99223	25449388.005395588
1.9945	29213073.306624625
1.99677	29859135.82079953
1.99903	27974079.88720012
2.00129	28137767.858895224
2.00355	31998785.91804369
2.00581	35185796.06580746
2.00806	33246619.693377055
2.01031	33377220.763053436
2.01256	38058253.44553604
2.01481	39451830.4710425
2.01706	36500916.81459022
2.0193	35984789.625662565
2.02154	40360846.80189773
2.02378	42922352.62015786
2.02602	41580760.11721099
2.02825	40433087.19837409
2.03049	40727897.446838334
2.03272	43345067.52684876
2.03494	45568660.44462485
2.03717	45704049.56806909
2.03939	45279403.9430597
2.04162	45354468.27117383
2.04384	45588265.25553187
2.04605	45256017.91723637
2.04827	44098014.92195844
2.05048	43541976.86062961
2.05269	44152925.93789296
2.0549	45323409.989697956
2.05711	46351210.91794445
2.05931	45549732.897988126
2.06151	44445616.19750445
2.06371	45054028.71036246
2.06591	46382973.0704617
2.06811	47330744.03698906
2.0703	47848761.29419534
2.07249	48350882.59606925
2.07468	48396848.43699307
2.07686	48521917.63424749
2.07905	49373656.67301485
2.08123	50065623.380926125
2.08341	49978613.91964048
2.08559	49102466.141770974
2.08776	48775868.53057071
2.08994	49349024.22077566
2.09211	49684317.10993479
2.09428	49923479.475363135
2.09645	50147544.10996615
2.09861	49895712.01676645
2.10077	49626582.80615833
2.10293	49966080.61993748
2.10509	50555807.76306132
2.10725	50523826.42924951
2.1094	49746011.33463973
2.11155	48830820.22346209
2.1137	48583043.41268331
2.11585	49185862.13801622
2.11799	50158767.680631556
2.12013	51079194.184433214
2.12227	51579011.7670858
2.12441	51672753.42309921
2.12655	51663685.03898341
2.12868	51620988.21663883
2.13081	51635131.008396514
2.13294	51887716.19062323
2.13507	52232158.30661657
2.13719	52407017.21134934
2.13931	52402693.29669862
2.14143	52286198.66469362
2.14355	52249315.46554394
2.14567	52310713.22761885
2.14778	52175163.02245709
2.14989	51784377.13740566
2.152	51101590.64412651
2.1541	50323104.65345549
2.15621	50576641.54308468
2.15831	51669841.737667195
2.16041	52150398.5798163
2.16251	52291117.15300685
2.1646	52412780.90387528
2.1667	52601658.91325168
2.16879	52818855.26953971
2.17087	52599271.14259167
2.17296	52196770.47381741
2.17504	52405231.43729026
2.17713	53023639.93392669
2.1792	53367227.22051404
2.18128	53374302.99268427
2.18336	53196972.35554089
2.18543	53121617.71752589
2.1875	53169673.053123266
2.18957	53240217.63798027
2.19163	53337784.668028414
2.1937	53258168.63565998
2.19576	52461313.01086147
2.19782	50319835.497317664
2.19987	48331612.87652163
2.20193	48040200.87235313
2.20398	49351733.115068115
2.20603	51460032.403958745
2.20808	53053174.651944585
2.21012	53734812.65455905
2.21217	53739431.42531817
2.21421	52935211.83828463
2.21625	51567700.53462701
2.21828	50789203.012147464
2.22032	50795319.45872885
2.22235	50628018.47627875
2.22438	49881297.103285715
2.22641	49186020.919501446
2.22843	49180877.634306215
2.23046	49532252.539751224
2.23248	50040450.00161653
2.2345	50765412.85186302
2.23651	50749024.85867132
2.23853	48896521.4829929
2.24054	46291325.03994248
2.24255	46069398.28304736
2.24456	47780089.08680161
2.24657	47968966.04289589
2.24857	46951205.64125344
2.25057	45994527.5611612
2.25257	44918627.075383686
2.25457	43118108.82180573
2.25656	43515632.797563836
2.25856	46161526.58464626
2.26055	47407025.659489766
2.26254	46794507.670682825
2.26453	46621735.45645781
2.26651	47396880.09353533
2.2685	48299896.95764554
2.27048	48789279.604556695
2.27246	49324855.60026743
2.27443	48674321.25005698
2.27641	47475988.20605773
2.27838	47950353.49848406
2.28036	50013961.35556216
2.28233	49819292.8034463
2.28429	45213233.25343948
2.28626	40138446.70312602
2.28823	40282396.71704215
2.29019	42594835.18310632
2.29215	41885208.86253857
2.29411	39881092.96160164
2.29607	39314233.17379283
2.29802	40612704.3089415
2.29998	42868674.46950991
2.30193	46128342.941768914
2.30388	48532212.02653807
2.30583	49555751.924918875
2.30778	49001485.722196415
2.30972	48097247.221161366
2.31167	47374726.1336757
2.31361	44741435.4850408
2.31555	39725953.79914953
2.31749	37228260.206185974
2.31943	38585362.55064452
2.32137	39655256.64297519
2.32331	38462886.385205634
2.32524	37851094.88908978
2.32718	39024331.24070795
2.32911	39363130.3440245
2.33104	38383015.613858625
2.33297	37293895.17340795
2.3349	37885193.80931204
2.33683	39803288.601714596
2.33876	41354618.98413047
2.34068	41599173.40336489
2.34261	40881287.03422665
2.34453	38964430.19661869
2.34646	35854332.17987774
2.34838	35351334.611086994
2.3503	36992214.38047795
2.35223	39693684.68836475
2.35415	40563374.32347505
2.35607	39827965.71399462
2.35799	39470904.250866525
2.35991	40253628.050383076
2.36183	42256566.20062541
2.36375	44827697.254534274
2.36566	44087612.97366407
2.36758	37931980.15868095
2.3695	31848030.225157395
2.37142	30622330.474166997
2.37334	30908731.297819223
2.37526	31124101.460769333
2.37718	31675301.26218516
2.3791	33715492.249350965
2.38101	36267344.77473195
2.38293	38793099.55774211
2.38485	38936376.08099437
2.38677	39051656.32800413
2.3887	42216745.25004463
2.39062	46844961.69063937
2.39254	48020346.54944073
2.39446	46091966.072285905
2.39639	41609333.355749466
2.39831	36838972.68407989
2.40024	33736275.76769582
2.40216	32801845.529075462
2.40409	32926572.09298505
2.40602	33166020.847047366
2.40795	33852581.29143758
2.40989	35720056.50504055
2.41182	37535358.53032851
2.41376	36122912.18648702
2.4157	32884777.618584853
2.41764	30324400.19941962
2.41958	30507798.98373977
2.42152	31228089.255813576
2.42347	32018335.677245304
2.42542	31195261.447495494
2.42737	30385670.74588607
