#wavelength	surface flux
0.8	757.74477048687
0.8002000000000001	761.7464967569558
0.8004000500000003	764.8945013592138
0.8006001500125003	767.9770655979607
0.8008003000500035	771.415622658911
0.8010005001250161	774.8570077113233
0.8012007502500472	778.4109858902405
0.8014010504376099	781.9803439328716
0.8016014007002193	785.3240370889453
0.8018018010503944	788.2783607119694
0.8020022515006572	791.7527834667711
0.8022027520635323	795.6989235698421
0.8024033027515483	798.9371059533918
0.8026039035772362	801.5053896846631
0.8028045545531306	804.7816519361953
0.8030052556917691	807.3529237335052
0.803206007005692	812.7995792702075
0.8034068085074435	816.8601930619167
0.8036076602095705	820.3314552864949
0.8038085621246229	823.9133226508831
0.8040095142651542	827.4746488474788
0.8042105166437206	830.8869049911384
0.8044115692728815	834.2417502352994
0.8046126721651998	836.9699739322308
0.8048138253332411	841.7363500030505
0.8050150287895745	845.7500247508186
0.805216282546772	849.4044125601681
0.8054175866174087	852.899423782633
0.8056189410140631	856.606996293815
0.8058203457493168	860.3670125446649
0.8060218008357541	863.887890888284
0.8062233062859632	867.0916087418572
0.8064248621125346	871.4609194521944
0.806626468328063	875.3020090650615
0.8068281249451449	878.7734532005474
0.8070298319763813	882.7915247602659
0.8072315894343755	886.3732341923325
0.8074333973317341	889.4639697303877
0.8076352556810671	894.3404258095022
0.8078371644949874	898.5177861271083
0.8080391237861113	902.3544912556388
0.8082411335670578	906.1701329076814
0.8084431938504498	909.9218805934787
0.8086453046489125	913.9524835013287
0.8088474659750746	917.5041558919849
0.8090496778415686	921.0515125288754
0.809251940261029	924.5199655432364
0.8094542532460944	925.9367550285513
0.8096566168094059	929.5629019020294
0.8098590309636085	936.8712100683225
0.8100614957213493	941.1167602546653
0.8102640110952797	944.5548679051149
0.8104665770980536	949.5612902581086
0.8106691937423283	951.4464702684801
0.8108718610407639	942.3140070912882
0.8110745790060241	939.831809052034
0.8112773476507757	960.1083784887848
0.8114801669876885	963.3887323461095
0.8116830370294355	966.1626567868327
0.8118859577886929	976.9805714894709
0.8120889292781401	982.5674050961813
0.8122919515104597	987.0355603392916
0.8124950244983374	991.7117016774889
0.8126981482544621	995.701442609478
0.8129013227915257	999.5825581780217
0.8131045481222237	1004.0315806295652
0.8133078242592543	1007.1143858227081
0.8135111512153191	1005.2616510479959
0.813714529003123	1010.774606670348
0.8139179576353739	1020.0425680093535
0.8141214371247829	1023.957145977491
0.8143249674840641	1023.1110701288035
0.814528548725935	1012.592085083847
0.8147321808631167	1024.3967319140886
0.8149358639083326	1038.4848386095878
0.8151395978743097	1034.7627678818562
0.8153433827737784	1045.0473430796153
0.8155472186194719	1055.9910249540642
0.8157511054241268	1060.9973532754987
0.815955043200483	1065.2217969038913
0.8161590319612831	1070.2735451844383
0.8163630717192736	1074.559496634747
0.8165671624872033	1079.388680252781
0.8167713042778252	1084.6091478273818
0.8169754971038948	1089.5257540578075
0.8171797409781707	1094.021924339592
0.8173840359134155	1098.3759538278964
0.8175883819223938	1102.7642228776158
0.8177927790178745	1107.3728993355833
0.8179972272126291	1110.3579395969641
0.8182017265194322	1102.9742745164274
0.8184062769510622	1069.9960626989248
0.8186108785203001	1113.9174766522096
0.8188155312399301	1130.505776865591
0.8190202351227402	1133.7902048340432
0.819224990181521	1140.7831502896115
0.8194297964290664	1144.7591818727547
0.8196346538781738	1146.9076363098782
0.8198395625416434	1152.7569747573868
0.8200445224322789	1157.4643667471548
0.820249533562887	1164.9797652265
0.8204545959462778	1170.038590322182
0.8206597095952644	1175.140562765521
0.8208648745226633	1179.806808331367
0.8210700907412941	1184.2317098667559
0.8212753582639793	1190.0961132571329
0.8214806771035456	1194.999614743976
0.8216860472728215	1199.9348594800733
0.8218914687846397	1205.7668696391188
0.822096941651836	1210.9231609722958
0.822302465887249	1215.891003499566
0.8225080415037209	1221.1444339642712
0.8227136685140968	1220.2631855304599
0.8229193469312254	1199.2090878490528
0.8231250767679583	1207.1448750148404
0.8233308580371503	1230.6505045691777
0.8235366907516598	1233.254227314041
0.8237425749243477	1235.520360558551
0.8239485105680789	1250.9057049023197
0.824154497695721	1262.1990875187569
0.824360536320145	1268.2051233815766
0.8245666264542252	1273.7681028833442
0.8247727681108388	1278.9402672860858
0.8249789613028664	1282.471141657168
0.8251852060431922	1288.918806336047
0.825391502344703	1295.3327696189908
0.8255978502202894	1301.0127356464072
0.8258042496828445	1306.5314764464956
0.8260107007452654	1311.55881574728
0.8262172034204517	1314.6977972021562
0.8264237577213068	1307.7718927008368
0.8266303636607373	1294.446843394693
0.8268370212516525	1326.9715389331232
0.8270437305069654	1339.7828538829299
0.8272504914395923	1345.0121793586718
0.8274573040624523	1350.5202406164353
0.8276641683884679	1355.84281418334
0.8278710844305652	1361.0810685007834
0.8280780522016729	1367.7293866925445
0.8282850717147234	1373.6400421162823
0.8284921429826521	1379.3988083561499
0.8286992660183978	1384.2231742053634
0.8289064408349024	1387.9043919899254
0.8291136674451112	1393.2388182075233
0.8293209458619727	1401.0571901632088
0.8295282760984382	1407.761299622612
0.829735658167463	1412.3073670169722
0.8299430920820048	1418.6229179802215
0.8301505778550254	1425.6218310658212
0.8303581154994891	1432.078388855988
0.8305657050283641	1437.956655216677
0.8307733464546212	1443.1410756966895
0.8309810397912352	1446.2754439667383
0.8311887850511829	1450.4502255424457
0.8313965822474458	1440.0643842815055
0.8316044313930077	1447.3121301980618
0.8318123325008561	1470.5441609555367
0.8320202855839813	1480.9171180963185
0.8322282906553774	1487.1641769493592
0.8324363477280413	1493.1043424379252
0.8326444568149735	1498.6617969545664
0.8328526179291771	1505.256502864576
0.8330608310836596	1511.5326875662852
0.8332690962914304	1516.7670344287044
0.8334774135655034	1523.097070518339
0.833685782918895	1530.1376842462219
0.8338942043646247	1535.7930848167011
0.834102677915716	1542.2130417276894
0.834311203585195	1548.9712768231188
0.8345197813860912	1555.3393843347524
0.8347284113314379	1562.2302465813896
0.8349370934342709	1568.7352277892148
0.8351458277076294	1575.409725922005
0.8353546141645565	1582.0778147924834
0.8355634528180977	1587.8754428695886
0.8357723436813022	1593.9632416672084
0.8359812867672226	1599.329069312413
0.8361902820889144	1605.8159295881544
0.8363993296594368	1614.1004947958672
0.8366084294918518	1619.2506277716623
0.8368175815992247	1628.2238341721654
0.8370267859946247	1633.921222625039
0.8372360426911234	1638.2062530428263
0.8374453517017962	1647.226677014903
0.8376547130397217	1653.629644582931
0.8378641267179816	1661.8180343973424
0.8380735927496613	1669.3000521310312
0.8382831111478488	1673.7164623713763
0.8384926819256358	1673.7107099874665
0.8387023050961173	1681.3418597964621
0.8389119806723914	1693.8850907588449
0.8391217086675596	1702.7514142064433
0.8393314890947265	1711.2763410933624
0.8395413219670003	1718.4598565078963
0.8397512072974922	1724.598742974132
0.8399611450993165	1729.624204403562
0.8401711353855914	1728.3363805351696
0.8403811781694378	1739.380679626339
0.8405912734639802	1752.5984733745518
0.8408014212823464	1760.603727640444
0.8410116216376671	1767.7829264823827
0.8412218745430766	1774.7088491300258
0.8414321800117124	1782.8581456149225
0.8416425380567154	1790.3261700276394
0.8418529486912297	1797.4775512105557
0.8420634119284025	1804.848984936898
0.8422739277813847	1812.326604358641
0.8424844962633302	1819.771430558265
0.842695117387396	1826.194548573119
0.8429057911667428	1832.3299350043583
0.8431165176145345	1840.5998787777319
0.8433272967439382	1849.4609251547397
0.8435381285681244	1857.1166996456284
0.8437490131002665	1864.6107038746525
0.8439599503535415	1871.1595694464195
0.84417094034113	1874.2506929623694
0.8443819830762154	1883.890595945648
0.8445930785719846	1886.3211947652562
0.8448042268416277	1900.8860065183762
0.8450154278983382	1911.0446638313279
0.8452266817553128	1918.3556475288149
0.8454379884257517	1925.8289668343814
0.8456493479228583	1933.8901279289983
0.845860760259839	1942.5540722463886
0.846072225449904	1949.6796690505464
0.8462837435062666	1950.4819754255122
0.8464953144421433	1943.8580196879511
0.8467069382707537	1956.5461677771339
0.8469186150053215	1978.9164912312679
0.847130344659073	1989.517617766407
0.8473421272452377	1997.4439652261137
0.8475539627770492	2003.1745301338995
0.8477658512677435	2013.2108477634029
0.8479777927305605	2021.2391263927625
0.8481897871787432	2027.9235641955024
0.848401834625538	2038.155931767422
0.8486139350841944	2047.697751486469
0.8488260885679657	2054.1168524722934
0.8490382950901076	2058.36335868962
0.8492505546638802	2069.3815099914723
0.8494628673025462	2079.2616053485654
0.8496752330193721	2089.1628970078277
0.8498876518276269	2098.1182983252975
0.8501001237405839	2106.2554395090146
0.8503126487715191	2114.52370189063
0.850525226933712	2123.161895307264
0.8507378582404455	2132.0774265866
0.8509505427050057	2140.3685651393844
0.8511632803406821	2149.164227300867
0.8513760711607672	2158.1476041867504
0.8515889151785576	2166.7637612848853
0.8518018124073523	2175.357392000015
0.8520147628604541	2182.8628065422404
0.8522277665511693	2188.9251882556773
0.8524408234928071	2201.3519111072933
0.8526539336986805	2210.9306973635025
0.8528670971821053	2219.7260073719635
0.8530803139564007	2228.580623627691
0.8532935840348901	2237.445757342834
0.8535069074308987	2246.392127092688
0.8537202841577566	2255.832947079749
0.8539337142287962	2263.8650890707077
0.8541471976573534	2268.709706159088
0.8543607344567677	2280.7298228220957
0.8545743246403821	2292.6045470629283
0.8547879682215422	2301.9101732341187
0.8550016652135977	2310.543429567982
0.8552154156299011	2319.5284576238596
0.8554292194838088	2329.0085121995353
0.8556430767886797	2337.608046759132
0.855856987557877	2348.1978249388994
0.8560709518047664	2358.0501471398816
0.8562849695427177	2367.247805736047
0.8564990407851035	2376.57932167591
0.8567131655452999	2386.2142743539152
0.8569273438366862	2395.959587084286
0.8571415756726455	2405.107801113257
0.8573558610665638	2412.674699058607
0.8575702000318304	2423.503545877173
0.8577845925818384	2433.64861129751
0.857999038729984	2444.2301301956577
0.8582135384896665	2454.1900340911375
0.858428091874289	2463.7815307901424
0.8586426988972576	2473.3813194473673
0.8588573595719821	2483.5905515937834
0.8590720739118751	2493.500168491708
0.8592868419303532	2502.639724072883
0.8595016636408359	2512.7082491875585
0.8597165390567462	2523.515103689163
0.8599314681915105	2533.689247410324
0.8601464510585584	2543.6700671710155
0.860361487671323	2553.5030434833902
0.8605765780432408	2563.6717139076613
0.8607917221877518	2573.2848600658967
0.8610069201182988	2583.799795330699
0.8612221718483286	2594.426871088654
0.8614374773912907	2604.6008606493724
0.8616528367606385	2614.9512825554043
0.8618682499698288	2624.6007053053327
0.8620837170323213	2634.8255653016113
0.8622992379615795	2645.272133206697
0.8625148127710699	2655.181091928619
0.8627304414742627	2665.7692286662386
0.8629461240846313	2677.5435957100526
0.8631618606156526	2688.955226987226
0.8633776510808066	2699.7433376692748
0.8635934954935769	2710.3944505043237
0.8638093938674504	2720.7155775965366
0.8640253462159173	2729.89517288716
0.8642413525524714	2738.3596366197567
0.8644574128906095	2751.857525563709
0.8646735272438323	2761.6038454907557
0.8648896956256433	2770.9885486407375
0.8651059180495498	2784.5972155744626
0.8653221945290621	2797.147585630878
0.8655385250776946	2807.6653194248706
0.8657549097089641	2818.9588539720503
0.8659713484363913	2830.52665168622
0.8661878412735006	2841.8672351225837
0.866404388233819	2852.8687117786003
0.8666209893308775	2863.4175485687406
0.8668376445782103	2875.627281939182
0.8670543539893549	2886.981003276825
0.8672711175778525	2898.212800480783
0.8674879353572469	2909.4736905525438
0.8677048073410862	2920.9985444865824
0.8679217335429217	2932.4370960065426
0.8681387139763074	2944.039986837525
0.8683557486548015	2955.054344052099
0.8685728375919655	2967.147377894437
0.8687899808013633	2979.2216943913872
0.8690071782965637	2990.7152726657037
0.869224430091138	3002.566109158586
0.8694417361986609	3014.2352018409024
0.8696590966327107	3025.587624503298
0.869876511406869	3036.853300383855
0.8700939805347206	3048.8130439669776
0.8703115040298544	3061.9880605698963
0.870529081905862	3074.2566491280777
0.8707467141763385	3086.3884220803143
0.8709644008548827	3097.9462170692004
0.8711821419550964	3109.8968258582113
0.8713999374905854	3122.012919030516
0.871617787474958	3134.707615658559
0.8718356919218269	3146.0723056159813
0.8720536508448075	3157.428449338347
0.8722716642575187	3171.253991146089
0.8724897321735832	3184.168848090446
0.8727078546066265	3196.136060514664
0.8729260315702784	3208.747534865076
0.873144263078171	3221.673270962811
0.8733625491439405	3234.379920407437
0.8735808897812266	3246.686765321459
0.8737992850036719	3257.699991550629
0.874017734824923	3268.3463545192076
0.8742362392586293	3283.7865412708
0.874454798318444	3296.773937088801
0.8746734120180236	3310.6253490350705
0.8748920803710283	3323.531250783571
0.875110803391121	3336.4628198789037
0.8753295810919689	3349.487613417691
0.875548413487242	3362.738768178707
0.8757673005906139	3376.071331700436
0.8759862424157616	3388.4602938340754
0.8762052389763657	3401.0370268751344
0.8764242902861098	3414.8542607786653
0.8766433963586814	3427.616352434366
0.8768625572077712	3442.0619789291773
0.8770817728470732	3455.2921711530503
0.8773010432902849	3468.7162318862042
0.8775203685511077	3482.5799941876335
0.8777397486432454	3496.332257196971
0.8779591835804065	3509.8753615049736
0.8781786733763015	3523.231407323529
0.8783982180446457	3536.474655703526
0.878617817599157	3549.7554105691365
0.8788374720535569	3564.353464090233
0.8790571814215703	3578.383207890631
0.8792769457169257	3591.962773286035
0.879496764953355	3606.0097147264123
0.8797166391445934	3620.1943501828746
0.8799365683043796	3634.295642636557
0.8801565524464557	3648.174130930788
0.8803765915845676	3662.1912446575498
0.8805966857324639	3676.6930815502033
0.880816834903897	3689.767972122195
0.881037039112623	3701.842825707295
0.8812572983724012	3716.5486400118625
0.8814776126969944	3730.4739745563224
0.8816979821001687	3747.3511808391436
0.8819184065956938	3762.3726724202575
0.8821388861973429	3776.0837094898216
0.8823594209188923	3790.9074534947276
0.882580010774122	3805.815457709219
0.8828006557768155	3820.374770763444
0.8830213559407598	3835.178660959451
0.8832421112797452	3850.12060956199
0.8834629218075651	3862.4181251212913
0.8836837875380171	3873.3950146105562
0.8839047084849018	3890.6348545965393
0.884125684662023	3909.140168326632
0.8843467160831886	3924.6569546090004
0.8845678027622095	3939.6693553065575
0.8847889447129001	3954.7416602686685
0.8850101419490785	3969.8852271641404
0.8852313944845657	3985.3026427666996
0.885452702333187	4000.8268931601647
0.8856740655087704	4014.937534962336
0.8858954840251476	4025.888546290452
0.8861169578961539	4042.0647614621716
0.886338487135628	4061.6106351279545
0.886560071757412	4077.736593193448
0.8867817117753515	4093.9321184676282
0.8870034072032955	4109.678366356089
0.8872251580550963	4124.7135316526
0.8874469643446101	4139.142663789801
0.8876688260856963	4154.025012709498
0.8878907432922178	4171.527552614855
0.8881127159780409	4187.157451926365
0.8883347441570356	4199.6523360133815
0.8885568278430749	4215.957628647943
0.8887789670500358	4234.929326818091
0.8890011617917983	4251.693453568807
0.8892234120822464	4268.955588640374
0.8894457179352669	4285.063508500974
0.8896680793647509	4300.854371722796
0.8898904963845921	4314.011620727614
0.8901129690086883	4330.330511646015
0.8903354972509405	4350.288274840096
0.8905580811252535	4366.821262750097
0.8907807206455347	4359.151954589892
0.8910034158256963	4302.3597840507655
0.8912261666796527	4380.676065891358
0.8914489732213227	4428.842560006862
0.8916718354646282	4432.044391761448
0.8918947534234944	4438.330043682058
0.8921177271118502	4436.342589395956
0.8923407565436284	4387.151601889647
0.8925638417327644	4462.177646221982
0.8927869826931977	4528.645988038839
0.8930101794388711	4548.639358552488
0.8932334319837308	4516.854066917724
0.8934567403417267	4483.548291704049
0.8936801045268123	4583.137565751563
0.8939035245529441	4618.756008469337
0.8941270004340824	4626.165032454192
0.894350532184191	4603.179198744083
0.8945741198172371	4640.052851317431
0.8947977633471915	4689.241373686091
0.8950214627880284	4711.192048737603
0.8952452181537254	4727.906037018023
0.8954690294582639	4745.385977023901
0.8956928967156286	4763.4063999482905
0.8959168199398075	4772.8179607736565
0.8961407991447926	4783.751507534734
0.8963648343445789	4779.692526294928
0.896588925553165	4748.6736383354055
0.8968130727845534	4806.911853095767
0.8970372760527496	4798.843978045081
0.8972615353717629	4508.364529146038
0.8974858507556059	4461.161064488672
0.8977102222182949	4854.650579342054
0.8979346497738496	4947.561160583164
0.8981591334362931	4966.0542588138505
0.8983836732196523	4983.91218621852
0.8986082691379572	4993.947141132531
0.8988329212052417	4783.123208201365
0.8990576294355432	4473.175539179662
0.8992823938429022	4790.311366578114
0.8995072144413631	5025.65023070188
0.8997320912449734	5091.7915919553625
0.8999570242677847	5116.380339956434
0.9001820135238516	5133.899792260388
0.9004070590272328	5085.2555207579
0.9006321607919896	4960.730091953242
0.9008573188321878	5050.4264423508075
0.9010825331618959	5069.485804522536
0.9013078037951865	5202.356077556972
0.9015331307461353	5243.677614985873
0.9017585140288219	5265.8921060366165
0.9019839536573292	5290.777655726267
0.9022094496457435	5312.636190181573
0.9024350020081551	5330.999378593982
0.9026606107586572	5349.640395769914
0.902886275911347	5367.587699237996
0.9031119974803249	5374.956573195685
0.9033377754796951	5399.918463746809
0.903563609923565	5430.760433790877
0.903789500826046	5444.8163362387
0.9040154482012526	5444.8178715936065
0.904241452063303	5485.943996260641
0.9044675124263188	5501.49843550131
0.9046936293044254	5510.770947659165
0.9049198027117517	5539.612756630875
0.9051460326624297	5568.294379490057
0.9053723191705955	5595.234226998144
0.9055986622503881	5618.108595706913
0.9058250619159507	5638.9947560124365
0.9060515181814298	5657.164775216945
0.9062780310609752	5655.661799996429
0.9065046005687405	5671.820335384854
0.906731226718883	5710.074461362885
0.9069579095255627	5735.51793754151
0.907184649002944	5751.085971997214
0.907411445165195	5781.061141517094
0.9076382980264862	5796.05268073243
0.907865207600993	5808.4286940848715
0.9080921739028933	5837.921155398439
0.9083191969463691	5860.470632346552
0.9085462767456058	5862.967887373259
0.9087734133147922	5856.876902837703
0.9090006066681211	5919.070819909035
0.909227856819788	5952.756521539245
0.9094551637839932	5969.747052268354
0.9096825275749393	5996.911622538265
0.9099099482068329	5993.050413093507
0.9101374256938848	6013.02319463342
0.9103649600503083	6019.2939353863085
0.9105925512903209	6074.336760426248
0.9108201994281437	6102.868828490019
0.9110479044780008	6124.1701824775055
0.9112756664541204	6154.64714158129
0.911503485370734	6180.3774656813075
0.9117313612420768	6201.424899975515
0.9119592940823873	6226.521289077074
0.912187283905908	6252.684129687146
0.9124153307268845	6275.442102411783
0.9126434345595664	6298.416716939692
0.9128715954182063	6320.619951141465
0.9130998133170609	6341.250133037619
0.9133280882703902	6352.714987650631
0.913556420292458	6378.083144346088
0.9137848093975312	6405.5075982807175
0.9140132555998806	6437.63349604303
0.9142417589137806	6451.846057025023
0.9144703193535092	6375.841978124208
