#wavelength	surface flux
0.8	1732.0870180497363
0.8002000000000001	1739.6858670952731
0.8004000500000003	1746.7609936953713
0.8006001500125003	1754.2335214961606
0.8008003000500035	1761.5214639011738
0.8010005001250161	1768.7532117342496
0.8012007502500472	1776.956300353471
0.8014010504376099	1784.6956567150455
0.8016014007002193	1791.6850171947397
0.8018018010503944	1799.2300581694874
0.8020022515006572	1806.7056970101917
0.8022027520635323	1815.0138252294128
0.8024033027515483	1822.5536215540378
0.8026039035772362	1829.4256320548034
0.8028045545531306	1837.2186612575304
0.8030052556917691	1844.5117702813411
0.803206007005692	1853.439895966147
0.8034068085074435	1861.4247498573468
0.8036076602095705	1869.0531630981711
0.8038085621246229	1877.279259085441
0.8040095142651542	1884.8797755265782
0.8042105166437206	1892.4626182746952
0.8044115692728815	1900.2787471270624
0.8046126721651998	1907.558356655182
0.8048138253332411	1916.7908592518552
0.8050150287895745	1925.3994072780865
0.805216282546772	1933.4298413058798
0.8054175866174087	1941.3108622997136
0.8056189410140631	1949.5649594083532
0.8058203457493168	1957.5693514847662
0.8060218008357541	1965.7037211629704
0.8062233062859632	1973.345511699889
0.8064248621125346	1982.0673352321587
0.806626468328063	1990.5652019584488
0.8068281249451449	1998.408085535206
0.8070298319763813	2006.7405161551394
0.8072315894343755	2015.2252117850235
0.8074333973317341	2023.3989743779305
0.8076352556810671	2032.3360623094675
0.8078371644949874	2041.0587569591264
0.8080391237861113	2049.5372647299578
0.8082411335670578	2057.5274284640855
0.8084431938504498	2066.4705428801217
0.8086453046489125	2075.3463781141622
0.8088474659750746	2083.380682034105
0.8090496778415686	2092.0251180340683
0.809251940261029	2100.348812055847
0.8094542532460944	2107.22109827274
0.8096566168094059	2115.515852269395
0.8098590309636085	2126.9060111809104
0.8100614957213493	2135.7979693310263
0.8102640110952797	2144.165684245784
0.8104665770980536	2153.539695378533
0.8106691937423283	2161.0163278737064
0.8108718610407639	2160.5971140294796
0.8110745790060241	2164.3896934468726
0.8112773476507757	2182.767907109962
0.8114801669876885	2186.6716565219967
0.8116830370294355	2193.547748735828
0.8118859577886929	2214.6200377082287
0.8120889292781401	2226.247953164438
0.8122919515104597	2235.3880809918132
0.8124950244983374	2245.115665698617
0.8126981482544621	2254.6454350113454
0.8129013227915257	2263.523769379959
0.8131045481222237	2270.440793125433
0.8133078242592543	2274.951873344514
0.8135111512153191	2274.247306142851
0.813714529003123	2287.1529879601567
0.8139179576353739	2306.310307426151
0.8141214371247829	2310.444060168517
0.8143249674840641	2310.991117344399
0.814528548725935	2312.105399764688
0.8147321808631167	2334.3507598791957
0.8149358639083326	2354.133438803014
0.8151395978743097	2357.9364679338655
0.8153433827737784	2372.31255902607
0.8155472186194719	2385.1128349030473
0.8157511054241268	2395.923918113113
0.815955043200483	2401.897570312571
0.8161590319612831	2414.246935265493
0.8163630717192736	2420.338565724854
0.8165671624872033	2434.0933611036057
0.8167713042778252	2448.5993332416815
0.8169754971038948	2456.6899372829967
0.8171797409781707	2457.5733372821483
0.8173840359134155	2476.115020790177
0.8175883819223938	2490.0074175819464
0.8177927790178745	2499.3145447874263
0.8179972272126291	2503.891050503162
0.8182017265194322	2511.415064567292
0.8184062769510622	2501.59500142842
0.8186108785203001	2534.705941065149
0.8188155312399301	2552.260917965456
0.8190202351227402	2561.913849630766
0.819224990181521	2572.8988299788507
0.8194297964290664	2583.344242765473
0.8196346538781738	2592.0050744792807
0.8198395625416434	2599.0251214122936
0.8200445224322789	2603.5520970458115
0.820249533562887	2623.8150706597303
0.8204545959462778	2637.2646794694183
0.8206597095952644	2647.9471206558705
0.8208648745226633	2658.601683692486
0.8210700907412941	2669.370127645135
0.8212753582639793	2680.522797291672
0.8214806771035456	2691.8130514831455
0.8216860472728215	2703.0411481387173
0.8218914687846397	2713.9617717161686
0.822096941651836	2724.8914859011793
0.822302465887249	2735.058190648764
0.8225080415037209	2744.1981578126893
0.8227136685140968	2746.666204531764
0.8229193469312254	2721.911179646698
0.8231250767679583	2730.5821240681385
0.8233308580371503	2759.702413178278
0.8235366907516598	2776.208444188818
0.8237425749243477	2794.5362204000126
0.8239485105680789	2819.147313842006
0.824154497695721	2835.359352092346
0.824360536320145	2848.1540560210237
0.8245666264542252	2860.713563224919
0.8247727681108388	2873.65353572725
0.8249789613028664	2883.397939500226
0.8251852060431922	2897.0337122358183
0.825391502344703	2910.083891241422
0.8255978502202894	2921.907511236972
0.8258042496828445	2933.368053130666
0.8260107007452654	2944.0794657275082
0.8262172034204517	2951.497463539777
0.8264237577213068	2959.482867320293
0.8266303636607373	2961.6907315587305
0.8268370212516525	2989.980768054154
0.8270437305069654	3006.4325686055
0.8272504914395923	3017.51645433639
0.8274573040624523	3028.254549791829
0.8276641683884679	3041.214098263026
0.8278710844305652	3053.748509592434
0.8280780522016729	3064.895851414148
0.8282850717147234	3074.035931628304
0.8284921429826521	3087.9501569073564
0.8286992660183978	3100.9065724555685
0.8289064408349024	3101.9941946482736
0.8291136674451112	3114.7695542868487
0.8293209458619727	3138.16537122829
0.8295282760984382	3151.4587962185237
0.829735658167463	3159.23200145874
0.8299430920820048	3172.5871009798147
0.8301505778550254	3190.1833478139947
0.8303581154994891	3205.6906339328707
0.8305657050283641	3218.219051751586
0.8307733464546212	3231.273233086461
0.8309810397912352	3243.388913471583
0.8311887850511829	3253.646362339819
0.8313965822474458	3249.0315473220526
0.8316044313930077	3269.33143533657
0.8318123325008561	3292.3510389614353
0.8320202855839813	3308.271429600867
0.8322282906553774	3321.555767692835
0.8324363477280413	3330.050661949913
0.8326444568149735	3350.6434652467083
0.8328526179291771	3365.26200775386
0.8330608310836596	3372.3012792016666
0.8332690962914304	3380.050772752724
0.8334774135655034	3399.870615035744
0.833685782918895	3414.97068546012
0.8338942043646247	3430.664202583065
0.834102677915716	3445.9518780716494
0.834311203585195	3459.066436092165
0.8345197813860912	3473.2550157976943
0.8347284113314379	3488.8706658390633
0.8349370934342709	3503.2537543473036
0.8351458277076294	3516.724313043728
0.8353546141645565	3529.804562888253
0.8355634528180977	3538.1585535803824
0.8357723436813022	3556.0112957607757
0.8359812867672226	3571.3948567785583
0.8361902820889144	3584.9523218864238
0.8363993296594368	3594.278511168062
0.8366084294918518	3614.4392505143733
0.8368175815992247	3631.9213366047074
0.8370267859946247	3645.0752839522297
0.8372360426911234	3658.693058913988
0.8374453517017962	3671.001584963608
0.8376547130397217	3680.6088616081397
0.8378641267179816	3702.039085751861
0.8380735927496613	3719.776306753121
0.8382831111478488	3733.261460968535
0.8384926819256358	3742.5589156334686
0.8387023050961173	3755.6192867443815
0.8389119806723914	3775.341170505875
0.8391217086675596	3794.642255677951
0.8393314890947265	3810.716359246267
0.8395413219670003	3822.9597783414533
0.8397512072974922	3838.5189085728707
0.8399611450993165	3851.016847423519
0.8401711353855914	3858.976292834355
0.8403811781694378	3881.8048170208563
0.8405912734639802	3899.6122925349564
0.8408014212823464	3910.1458495884704
0.8410116216376671	3931.3061058065505
0.8412218745430766	3949.351347867106
0.8414321800117124	3965.6311150848737
0.8416425380567154	3979.6206459249925
0.8418529486912297	3994.7340665268703
0.8420634119284025	4010.0303437827647
0.8422739277813847	4028.0485074165504
0.8424844962633302	4045.0478580491495
0.842695117387396	4059.78684925284
0.8429057911667428	4074.0860439031385
0.8431165176145345	4091.8680944739654
0.8433272967439382	4109.968937735795
0.8435381285681244	4126.191411476134
0.8437490131002665	4142.6316961167895
0.8439599503535415	4158.923558119229
0.84417094034113	4173.202109234568
0.8443819830762154	4190.184176558138
0.8445930785719846	4203.6729178023
0.8448042268416277	4224.295361289775
0.8450154278983382	4241.09906970724
0.8452266817553128	4257.984297371555
0.8454379884257517	4273.007038100577
0.8456493479228583	4287.2904655112425
0.845860760259839	4309.214908651564
0.846072225449904	4327.387194010407
0.8462837435062666	4340.23599038567
0.8464953144421433	4347.310292423902
0.8467069382707537	4366.864575454166
0.8469186150053215	4393.354937599467
0.847130344659073	4411.867955795805
0.8473421272452377	4429.856639739434
0.8475539627770492	4446.1632814881405
0.8477658512677435	4464.31905451394
0.8479777927305605	4482.3229061233405
0.8481897871787432	4499.410040479939
0.848401834625538	4517.691013703219
0.8486139350841944	4535.8965901464735
0.8488260885679657	4550.387931807997
0.8490382950901076	4563.74866900199
0.8492505546638802	4587.025237552583
0.8494628673025462	4606.715261141041
0.8496752330193721	4625.7621071136755
0.8498876518276269	4644.036499388845
0.8501001237405839	4661.880995213703
0.8503126487715191	4680.202090604401
0.850525226933712	4698.91154995277
0.8507378582404455	4717.419314373235
0.8509505427050057	4736.071367684812
0.8511632803406821	4755.159539853259
0.8513760711607672	4773.451634431304
0.8515889151785576	4791.611733778611
0.8518018124073523	4809.302992032795
0.8520147628604541	4828.257574404893
0.8522277665511693	4845.583997684258
0.8524408234928071	4867.637459458402
0.8526539336986805	4886.980045200031
0.8528670971821053	4905.68000427443
0.8530803139564007	4924.40955761573
0.8532935840348901	4943.6806648557495
0.8535069074308987	4963.145406701633
0.8537202841577566	4982.689489684931
0.8539337142287962	5001.535217871471
0.8541471976573534	5018.32918370918
0.8543607344567677	5039.994747985429
0.8545743246403821	5061.5469586955205
0.8547879682215422	5081.469689907359
0.8550016652135977	5100.511865617585
0.8552154156299011	5119.877437777957
0.8554292194838088	5140.110054764068
0.8556430767886797	5159.8241764022705
0.855856987557877	5181.188557754472
0.8560709518047664	5201.506515904686
0.8562849695427177	5221.44792108423
0.8564990407851035	5241.863137882344
0.8567131655452999	5262.138504740373
0.8569273438366862	5282.931553489574
0.8571415756726455	5303.243511094313
0.8573558610665638	5322.636724555415
0.8575702000318304	5343.692482039957
0.8577845925818384	5365.0861206871505
0.857999038729984	5386.33434645081
0.8582135384896665	5407.378692887674
0.858428091874289	5427.680815074743
0.8586426988972576	5448.24142815484
0.8588573595719821	5469.602960274237
0.8590720739118751	5490.750011799471
0.8592868419303532	5511.470630807974
0.8595016636408359	5533.167905460972
0.8597165390567462	5555.421828987216
0.8599314681915105	5576.9006377262995
0.8601464510585584	5598.417923476166
0.860361487671323	5619.824866101718
0.8605765780432408	5641.396558378972
0.8607917221877518	5661.834973908709
0.8610069201182988	5682.323761748561
0.8612221718483286	5698.844914741687
0.8614374773912907	5712.633246244169
0.8616528367606385	5736.267797012641
0.8618682499698288	5751.960207889109
0.8620837170323213	5772.276762383276
0.8622992379615795	5798.682600451772
0.8625148127710699	5811.652556284298
0.8627304414742627	5833.695049938171
0.8629461240846313	5867.047232121405
0.8631618606156526	5883.818144731015
0.8633776510808066	5907.4513292645615
0.8635934954935769	5933.704392055615
0.8638093938674504	5958.302250826141
0.8640253462159173	5979.400367075559
0.8642413525524714	5995.30691317942
0.8644574128906095	6028.658836273494
0.8646735272438323	6051.007424715986
0.8648896956256433	6071.159261803051
0.8651059180495498	6103.595342176389
0.8653221945290621	6127.932947849313
0.8655385250776946	6153.17513408799
0.8657549097089641	6178.667024690217
0.8659713484363913	6203.696047918288
0.8661878412735006	6228.081456012667
0.866404388233819	6249.31573353863
0.8666209893308775	6272.412385912424
0.8668376445782103	6301.185441316667
0.8670543539893549	6325.591268809261
0.8672711175778525	6347.889645298942
0.8674879353572469	6371.499700881149
0.8677048073410862	6396.769678399537
0.8679217335429217	6422.95015398372
0.8681387139763074	6446.536437911613
0.8683557486548015	6465.879938872863
0.8685728375919655	6490.986900116064
0.8687899808013633	6521.105729680352
0.8690071782965637	6547.479370248123
0.869224430091138	6572.732925874436
0.8694417361986609	6593.414660940807
0.8696590966327107	6613.2031305499595
0.869876511406869	6641.551430957226
0.8700939805347206	6668.754771934562
0.8703115040298544	6698.249489676826
0.870529081905862	6722.464646753596
0.8707467141763385	6744.578454604974
0.8709644008548827	6767.672616067492
0.8711821419550964	6794.711132583977
0.8713999374905854	6821.100301746965
0.871617787474958	6853.243798618377
0.8718356919218269	6877.924246202849
0.8720536508448075	6898.567847204631
0.8722716642575187	6922.557803815887
0.8724897321735832	6951.2817729262815
0.8727078546066265	6980.867069539265
0.8729260315702784	7009.767222516345
0.873144263078171	7038.099001276448
0.8733625491439405	7064.41504162991
0.8735808897812266	7084.672918908608
0.8737992850036719	7112.279319952365
0.874017734824923	7136.898706067728
0.8742362392586293	7170.575915020207
0.874454798318444	7198.224625910078
0.8746734120180236	7225.081346011023
0.8748920803710283	7254.141095486683
0.875110803391121	7279.425570751689
0.8753295810919689	7306.702721974372
0.875548413487242	7336.216880610885
0.8757673005906139	7364.669774224428
0.8759862424157616	7392.6106692604635
0.8762052389763657	7419.990778545715
0.8764242902861098	7446.258143860044
0.8766433963586814	7474.71924044349
0.8768625572077712	7500.544603821307
0.8770817728470732	7526.424859290708
0.8773010432902849	7559.228843999194
0.8775203685511077	7590.621880838743
0.8777397486432454	7620.122984641071
0.8779591835804065	7648.023426643813
0.8781786733763015	7676.175871803968
0.8783982180446457	7704.959634138452
0.878617817599157	7732.659185574064
0.8788374720535569	7760.972787539043
0.8790571814215703	7789.774094342179
0.8792769457169257	7818.887824426486
0.879496764953355	7851.599749493967
0.8797166391445934	7883.414394872009
0.8799365683043796	7912.876101951688
0.8801565524464557	7940.3970867290445
0.8803765915845676	7969.75552475199
0.8805966857324639	8000.304365925632
0.880816834903897	8027.821656691982
0.881037039112623	8058.460595873656
0.8812572983724012	8087.078824562182
0.8814776126969944	8115.1398132098675
0.8816979821001687	8149.5600473814575
0.8819184065956938	8184.586760581646
0.8821388861973429	8214.40138645333
0.8823594209188923	8241.558979969604
0.882580010774122	8273.015529156817
0.8828006557768155	8306.193081797737
0.8830213559407598	8335.16151353173
0.8832421112797452	8368.719853757897
0.8834629218075651	8396.324863512604
0.8836837875380171	8424.633319483431
0.8839047084849018	8459.673230047427
0.884125684662023	8495.964019080495
0.8843467160831886	8528.825678512305
0.8845678027622095	8559.14829380824
0.8847889447129001	8586.81498950703
0.8850101419490785	8619.630655808283
0.8852313944845657	8651.32811804175
0.885452702333187	8687.16961151808
0.8856740655087704	8718.084173330857
0.8858954840251476	8744.569347724386
0.8861169578961539	8776.92651914646
0.886338487135628	8815.883802683591
0.886560071757412	8851.12109435657
0.8867817117753515	8884.803912591677
0.8870034072032955	8915.996434312558
0.8872251580550963	8945.363401555252
0.8874469643446101	8979.864772407727
0.8876688260856963	9014.062169283472
0.8878907432922178	9049.964760734263
0.8881127159780409	9082.561152033455
0.8883347441570356	9111.546683989382
0.8885568278430749	9140.4923195723
0.8887789670500358	9177.47906985416
0.8890011617917983	9213.285094732468
0.8892234120822464	9253.145885316113
0.8894457179352669	9287.724782973846
0.8896680793647509	9318.781169607815
0.8898904963845921	9349.436022900563
0.8901129690086883	9385.660194624916
0.8903354972509405	9423.378227658992
0.8905580811252535	9459.252977519647
0.8907807206455347	9476.520430563849
0.8910034158256963	9455.787155343396
0.8912261666796527	9530.069495551208
0.8914489732213227	9592.072074418438
0.8916718354646282	9620.75241830804
0.8918947534234944	9644.380371241223
0.8921177271118502	9664.194186485376
0.8923407565436284	9670.136812563636
0.8925638417327644	9731.31299459272
0.8927869826931977	9796.161337940213
0.8930101794388711	9831.377188228755
0.8932334319837308	9832.875957280448
0.8934567403417267	9857.149900732446
0.8936801045268123	9923.733965917543
0.8939035245529441	9964.958137942747
0.8941270004340824	10002.023024015918
0.894350532184191	10021.121862369135
0.8945741198172371	10078.644079642823
0.8947977633471915	10135.679706686615
0.8950214627880284	10171.157321248793
0.8952452181537254	10196.522166014336
0.8954690294582639	10221.24552867173
0.8956928967156286	10271.224589814945
0.8959168199398075	10305.003743808802
0.8961407991447926	10347.579821744404
0.8963648343445789	10348.896536853286
0.896588925553165	10255.898566497255
0.8968130727845534	10323.090870015085
0.8970372760527496	10446.98067897091
0.8972615353717629	10292.014903166571
0.8974858507556059	10268.157578494818
0.8977102222182949	10577.309039688775
0.8979346497738496	10673.992782464893
0.8981591334362931	10706.582900336289
0.8983836732196523	10736.456306344453
0.8986082691379572	10779.449838500268
0.8988329212052417	10672.967976779059
0.8990576294355432	10486.920692848844
0.8992823938429022	10636.940796027511
0.8995072144413631	10816.074572258449
0.8997320912449734	10970.731380470535
0.8999570242677847	11024.288911121606
0.9001820135238516	11048.762084799733
0.9004070590272328	11056.640437034479
0.9006321607919896	11012.509843240514
0.9008573188321878	11083.504657075788
0.9010825331618959	11117.112900600534
0.9013078037951865	11233.612218904927
0.9015331307461353	11291.180346375553
0.9017585140288219	11342.68703388434
0.9019839536573292	11386.302578464287
0.9022094496457435	11438.500920565899
0.9024350020081551	11477.61436840256
0.9026606107586572	11509.218763608707
0.902886275911347	11545.723566033106
0.9031119974803249	11585.598849511902
0.9033377754796951	11623.742801696739
0.903563609923565	11683.053554136906
0.903789500826046	11732.152791474698
0.9040154482012526	11766.23733534171
0.904241452063303	11813.909589020148
0.9044675124263188	11851.7362979282
0.9046936293044254	11886.54581732856
0.9049198027117517	11925.86765080912
0.9051460326624297	11979.556342700202
0.9053723191705955	12032.235225010172
0.9055986622503881	12074.8072908978
0.9058250619159507	12122.876840034483
0.9060515181814298	12164.570436010294
0.9062780310609752	12193.20043846578
0.9065046005687405	12231.293742248647
0.906731226718883	12285.703729384513
0.9069579095255627	12332.165134636405
0.907184649002944	12360.398081628111
0.907411445165195	12404.162283331827
0.9076382980264862	12463.526881886677
0.907865207600993	12507.41447786546
0.9080921739028933	12530.203131068673
0.9083191969463691	12565.275550259772
0.9085462767456058	12620.631770866345
0.9087734133147922	12644.433724978451
0.9090006066681211	12707.185906013441
0.909227856819788	12772.943501861597
0.9094551637839932	12823.49201149885
0.9096825275749393	12858.497982419838
0.9099099482068329	12892.388208600518
0.9101374256938848	12931.796760475638
0.9103649600503083	12986.25004674969
0.9105925512903209	13023.354560849735
0.9108201994281437	12942.4747859728
0.9110479044780008	13044.7357173838
0.9112756664541204	13192.338503136389
0.911503485370734	13254.152172560272
0.9117313612420768	13273.960002907774
0.9119592940823873	13326.09080833028
0.912187283905908	13391.20167045849
0.9124153307268845	13447.958883812033
0.9126434345595664	13496.491741224023
0.9128715954182063	13535.31263227074
0.9130998133170609	13564.63841396336
0.9133280882703902	13600.2175236972
0.913556420292458	13659.90947377394
0.9137848093975312	13701.755222950405
0.9140132555998806	13772.16500442274
0.9142417589137806	13829.30891796266
0.9144703193535092	13816.674137405344
0.9146989369333476	13851.245161667162
