#wavelength	surface flux
0.6450077295303345	203.35725112064807
0.6472567915916443	218.97561642483532
0.6494921445846558	235.59280516931048
0.6517150402069092	253.01572881945586
0.6539263725280762	271.5380158634559
0.6561272740364075	291.2392832233924
0.6583186388015747	312.11603626508736
0.6605015397071838	334.33909444051375
0.6626768708229065	357.77697043123106
0.6648455858230591	382.60846366149036
0.6670085787773132	408.94240366798084
0.6691668033599854	436.6614281839099
0.6713210344314575	464.092138796912
0.6734722256660461	497.3710678569988
0.6756211519241333	530.3802412483515
0.6777685880661011	564.852096808832
0.6799154281616211	601.962207286554
0.6820623278617859	640.9060830567299
0.6842101216316223	682.4539842221828
0.6863595843315125	726.1463685049408
0.688511312007904	772.2412201741771
0.6906660795211792	820.6212671887143
0.6928245425224304	869.2130027755729
0.6949873566627502	926.4526172844894
0.6971551775932312	985.0482838704344
0.6993286609649658	1043.4595545641891
0.7015084028244019	1110.7375315450263
0.7036949396133423	1179.1989708461988
0.7058889269828796	1252.1295352364093
0.7080909013748169	1327.7185599933034
0.710301399230957	1407.7367871125043
0.712520956993103	1494.2144291639463
0.7147500514984131	1583.7837716634745
0.7169892191886902	1659.1404519695832
0.7192389369010925	1777.0961741997282
0.7214996814727783	1885.388830281198
0.723771870136261	1997.542813428691
0.7260559797286987	2118.035351991488
0.7283523678779602	2246.2792236915766
0.7306615710258484	2369.517606549852
0.7329838871955872	2521.8628714811625
0.7353196740150452	2660.860421089554
0.7376693487167358	2827.762561428972
0.7400332689285278	2995.967169194226
0.7424117922782898	3170.1195418746975
0.7448052167892456	3354.95590193495
0.7472138404846191	3552.140888075326
0.7496379613876343	3758.852314490126
0.7520779371261597	3966.1449515608942
0.7545340061187744	4175.831744225309
0.7570064663887024	4371.78991175368
0.7594954967498779	4514.169106888866
0.7620013952255249	4472.521288042227
0.7645244002342224	3732.520908697977
0.7670646905899048	2741.583206057145
0.7696225643157959	3074.2413202744756
0.7721980810165405	4761.080139664176
0.7747915983200073	6143.306711441945
0.7774031162261963	6832.444364937467
0.7800329327583313	6581.342170427988
0.7826811671257019	7884.973490795325
0.7853479981422424	8417.369864052142
0.7880334854125977	8942.941938866968
0.7907378077507019	9492.384445747124
0.7934610247612	9888.840972495565
0.7962033748626709	10380.001794195836
0.7989648580551147	11308.542970543482
0.801745593547821	11985.43247979359
0.8045456409454346	12702.02262618422
0.8073651194572449	13449.393226452581
0.8102040886878967	14144.848111295529
0.8130625486373901	14919.290240063516
0.8159406185150146	15870.684248080495
0.8188382983207703	16734.118427371046
0.8217556476593018	17810.920585036067
0.8246926665306091	18830.699778902042
0.8276493549346924	19946.26067087492
0.8306257724761963	21107.230443201715
0.8336219191551208	22396.310304791823
0.8366377949714661	23646.698311404743
0.8396733403205872	25030.546407579273
0.8427285552024841	26555.605130864886
0.8458034992218018	28038.88123726391
0.8488980531692505	29671.35302341217
0.8520121574401855	31411.493672219112
0.8551458716392517	33213.10627067373
0.8582990765571594	35121.466414111725
0.8614717125892639	36810.255816692355
0.8646637797355652	38785.15917343396
0.8678751587867737	41278.90691903816
0.8711057901382446	43545.05798075862
0.8743556141853333	46067.21418611656
0.87762451171875	48695.74928766745
0.8809124231338501	51422.67554112908
0.8842192888259888	54325.85641061657
0.8875449895858765	57344.39467635462
0.8908893465995789	60047.49839547356
0.894252359867096	63275.20242446783
0.8976338505744934	64666.62597608388
0.9010337591171265	70038.63874718228
0.9044519662857056	74684.40073435473
0.9078882932662964	78460.48870709866
0.9113426208496094	82457.86420057532
0.914814829826355	86939.71464442751
0.9183048605918884	91084.68821322401
0.9218124747276306	96318.16715037037
0.925337553024292	99342.1772850863
0.9288799166679382	97386.62200876026
0.9324395060539246	91279.4643753838
0.9360161423683167	105152.96021783863
0.9396095871925354	120588.96500395122
0.943219780921936	127022.03807735207
0.9468464851379395	121929.01937053648
0.9504896402359009	128002.60861520894
0.9541489481925964	141542.34352553173
0.9578243494033813	150213.65748806816
0.9615156054496765	156677.3397984502
0.9652225375175476	166590.2424500176
0.9689450263977051	181978.47947996407
0.9726828336715698	183868.78458887388
0.9764357805252075	199560.8173982975
0.9802037477493286	207567.13887026653
0.983986496925354	221830.82074251724
0.9877838492393494	233692.8371455104
0.9915955662727356	245904.4843880712
0.9954215884208679	258658.81190916192
0.9992615580558777	270722.8449536572
1.0031154155731201	282993.53080999875
1.0069829225540161	295934.23015622015
1.0108637809753418	309531.64458034723
1.0147579908370972	323300.4594305491
1.018665075302124	337701.93612919335
1.022585153579712	352518.90201030264
1.0265177488327026	367856.4371373355
1.0304628610610962	383766.4597741004
1.0344202518463135	400182.3241249191
1.0383895635604858	417150.23401356733
1.0423706769943237	434660.4077514463
1.0463634729385376	452692.2132405803
1.0503677129745483	471316.49076531647
1.0543830394744873	490799.2536233763
1.058409333229065	510468.8611358943
1.0624464750289917	532517.08919072
1.0664942264556885	553887.0893182799
1.0705522298812866	576344.088232744
1.0746204853057861	599760.4658335325
1.0786986351013184	621582.2774222294
1.0827864408493042	646821.0129770773
1.086883783340454	668875.9881417598
1.0909905433654785	691308.8225284951
1.0951062440872192	711529.1802965897
1.0992310047149658	715159.4995754237
1.10336434841156	715062.9176871481
1.1075061559677124	729077.881854235
1.1116561889648438	704947.5211975969
1.115814208984375	593841.8050553373
1.1199802160263062	720420.1055669151
1.124153733253479	606659.2767187228
1.1283347606658936	808257.6188379803
1.1325229406356812	824223.5792137077
1.1367181539535522	868650.3560796792
1.1409201622009277	1012824.0039865487
1.145128846168518	921295.064893486
1.1493438482284546	865083.8917366943
1.1535650491714478	1023669.3781206509
1.1577922105789185	1126356.3608629622
1.1620250940322876	1139686.4475013
1.1662636995315552	1192065.4749096911
1.170507550239563	1201244.9679752076
1.174756646156311	1274597.3172998882
1.1790107488632202	1365342.8144800772
1.1832695007324219	1429696.2712661894
1.1875330209732056	1481190.3859805884
1.191800832748413	1540157.8079662006
1.1960728168487549	1589849.421720858
1.2003488540649414	1638136.2612859963
1.2046287059783936	1701003.5639961145
1.2089121341705322	1750883.5287982638
1.2131990194320679	1791319.6231513848
1.2174891233444214	1863689.903847045
1.2217823266983032	1917067.2397523762
1.2260783910751343	1976370.6310140248
1.230377197265625	2032129.9658930236
1.2346785068511963	2093653.0003360237
1.238982081413269	2154686.736731316
1.2432878017425537	2215374.2902875887
1.2475954294204712	2273695.956915218
1.2519049644470215	2337051.9169144235
1.256216049194336	2401357.046650979
1.2605286836624146	2464716.72139874
1.2648425102233887	2526145.1346102525
1.2691574096679688	2589637.8577233506
1.2734732627868652	2650180.9766155104
1.2777899503707886	2722953.2234937674
1.2821072340011597	2768584.3939623046
1.2864248752593994	2832350.2493656487
1.2907428741455078	2897760.2558204206
1.2950609922409058	2865168.05037437
1.2993791103363037	2978555.1043962315
1.303696870803833	3067146.1771376375
1.3080145120620728	3170065.583552238
1.3123314380645752	3211323.120358215
1.3166478872299194	3262878.1285889177
1.3209635019302368	3325780.2995558935
1.3252781629562378	3395383.7051319345
1.3295916318893433	3342903.0267178123
1.3339040279388428	3108068.441267383
1.3382149934768677	2025808.6864144627
1.3425244092941284	1661314.5727989993
1.3468321561813354	1481053.1391348974
1.3511382341384888	1550710.610232382
1.3554422855377197	1123191.8394121798
1.3597444295883179	903555.3255685181
1.3640443086624146	1483125.6806353126
1.3683418035507202	1385386.2650889396
1.3726370334625244	1872163.3749973811
1.3769296407699585	2238266.2891443777
1.381219506263733	1920003.1598563641
1.3855066299438477	1389349.0736408806
1.3897908926010132	2003351.630297257
1.3940720558166504	1559099.879301337
1.3983501195907593	1819133.9301847154
1.4026249647140503	2138778.1855999986
1.4068963527679443	2086377.012171312
1.4111642837524414	2129438.3720870423
1.4154287576675415	2075101.0100014128
1.419689416885376	1635963.7358681432
1.4239463806152344	1484220.7142248368
1.4281994104385376	2632938.386615556
1.4324485063552856	2153405.6084857606
1.436693549156189	2777965.482506318
1.440934419631958	2366696.3233205364
1.4451709985733032	2872136.4104537214
1.449403166770935	3321708.4019274134
1.453631043434143	3601929.877562165
1.4578542709350586	4788822.1747248545
1.4620729684829712	4303177.568529375
1.4662868976593018	4674706.694778226
1.4704961776733398	4681354.391179868
1.4747005701065063	4760856.490255359
1.4788999557495117	5241855.936376954
1.4830944538116455	5074971.688609717
1.4872838258743286	5511534.353211235
1.491468071937561	5771824.298828854
1.4956470727920532	5898394.93531323
1.4998208284378052	6296243.000281138
1.5039892196655273	6501629.873109793
1.5081522464752197	6672683.819420014
1.5123097896575928	6949062.570159368
1.5164618492126465	7093257.322770397
1.5206083059310913	7280667.796538901
1.5247491598129272	7565196.5766379675
1.5288842916488647	7273922.9957935335
1.5330137014389038	7982190.208298289
1.5371372699737549	8268174.623580447
1.541254997253418	8324423.339744583
1.545366883277893	8442022.561895844
1.5494728088378906	8694182.452423392
1.5535727739334106	8825111.679462463
1.5576666593551636	8928208.135241263
1.561754584312439	9119451.754401818
1.5658363103866577	9253058.918026501
1.5699119567871094	9446244.250985727
1.5739814043045044	9591876.73436628
1.5780447721481323	9723040.857926143
1.582101821899414	9859613.475557704
1.5861525535583496	9892870.600777628
1.5901970863342285	10056980.633499699
1.5942351818084717	10206616.428899612
1.5982669591903687	10356981.561027892
1.6022924184799194	10506467.800376197
1.606311559677124	10593512.257428175
1.6103241443634033	10732168.959686112
1.6143304109573364	10858298.824371083
1.6183301210403442	10954691.018691747
1.6223233938217163	10795237.909105884
1.6263102293014526	10503576.51648828
1.6302905082702637	10069508.888023913
1.634264349937439	10617066.219847258
1.638231635093689	11319493.881360563
1.6421923637390137	11456297.50370589
1.646146535873413	11444560.10615759
1.6500942707061768	11514451.38860319
1.6540353298187256	11454838.018540759
1.6579699516296387	11410067.54674936
1.661897897720337	11780174.502014922
1.6658192873001099	10417995.095268067
1.6697341203689575	10613079.757389043
1.6736423969268799	12341122.680427266
1.677544116973877	12425240.335951932
1.6814392805099487	12193066.278783914
1.6853278875350952	12014048.05624276
1.6892099380493164	12729117.095672257
1.6930854320526123	11306427.205037236
1.696954369544983	11952492.959346823
1.7008168697357178	10610734.925737541
1.7046726942062378	10901235.288281474
1.708522081375122	11836105.826140167
1.712364912033081	13196442.04658592
1.7162011861801147	13499123.212231401
1.7200311422348022	13177243.325877747
1.723854422569275	11797775.563220393
1.7276713848114014	11756544.879551003
1.731481909751892	11898637.843278503
1.7352858781814575	11535001.579993326
1.7390835285186768	12708786.178796133
1.7428747415542603	12557364.16849052
1.7466596364974976	12959972.529052041
1.7504380941390991	13316747.529345226
1.7542102336883545	11211576.196004884
1.7579760551452637	11128297.532163415
1.7617355585098267	10864326.618318442
1.7654887437820435	9918661.500117091
1.7692357301712036	9699266.235862467
1.7729763984680176	10125859.077803837
1.776710867881775	7770315.38015618
1.7804391384124756	8820532.567682076
1.7841613292694092	6869987.368776893
1.7878772020339966	7066873.372293681
1.7915871143341064	6621056.940898306
1.7952908277511597	7507746.079777439
1.7989884614944458	8259191.900009871
1.8026801347732544	5674550.363258638
1.806365728378296	5603179.769485217
1.8100452423095703	5159214.21666953
1.8137187957763672	7114463.251019442
1.817386507987976	7501089.496511498
1.8210482597351074	6588955.862567533
1.8247040510177612	8866091.489081984
1.828354001045227	6816864.708371221
1.8319982290267944	6907667.016901637
1.8356364965438843	6673581.136226264
1.8392690420150757	6491517.703809466
1.8428958654403687	6799698.474575041
1.8465168476104736	6161124.629757023
1.8501322269439697	6825037.308113207
1.8537418842315674	8219681.35149282
1.8573459386825562	6125377.311682736
1.860944390296936	3862804.5471883053
1.864537239074707	3968509.785585815
1.8681244850158691	4377541.381047178
1.871706247329712	4755624.250788888
1.8752825260162354	5407737.0227792235
1.8788533210754395	8548482.122715842
1.8824186325073242	8616610.722700821
1.8859784603118896	6901114.245559784
1.8895330429077148	7159150.044869014
1.8930821418762207	8423110.26970439
1.8966259956359863	9856767.01267991
1.9001644849777222	7190175.79091858
1.9036977291107178	7949059.678312081
1.9072256088256836	10453539.504310526
1.9107483625411987	10531722.274903512
1.9142658710479736	7882324.632583172
1.9177782535552979	11594129.023651304
1.9212853908538818	8557299.371927058
1.9247875213623047	8027310.287808619
1.9282845258712769	8601028.112767732
1.9317764043807983	7121742.963047413
1.9352631568908691	8381660.570597446
1.9387450218200684	4465121.718256643
1.942221760749817	6733161.259948558
1.9456936120986938	6816826.042706741
1.9491604566574097	6404782.644021191
1.952622413635254	9147482.992237708
1.956079363822937	6939290.104990949
1.959531545639038	5961912.621158952
1.962978720664978	6807911.335592902
1.966421127319336	9939075.219772357
1.9698586463928223	9384570.425784126
1.9732913970947266	10981180.235945346
1.9767193794250488	10249563.215258427
1.9801424741744995	9756631.596629132
1.9835609197616577	11625494.931336844
1.9869745969772339	13120257.721424894
1.990383505821228	9534287.278081214
1.9937876462936401	11111750.313633857
1.9971871376037598	12213943.953127053
2.000581979751587	11511506.767046537
2.003972291946411	13922958.54034281
2.007357597351074	14354884.35409316
2.0107386112213135	15498073.193773055
2.0141148567199707	17843618.040263366
2.017486572265625	16160953.556944164
2.0208535194396973	18424594.148307607
2.0242159366607666	19714284.7592024
2.027573823928833	18116151.277091984
2.0309269428253174	17484781.031376757
2.034275770187378	20157850.171974994
2.0376198291778564	20564123.99650398
2.040959596633911	20191458.963728312
2.044294595718384	20528914.320608497
2.0476250648498535	19911010.353909753
2.0509510040283203	19386186.492751274
2.054272413253784	20193558.247555383
2.057589530944824	20615425.316866193
2.0609018802642822	19364003.496673785
2.0642096996307373	19853237.60279813
2.0675129890441895	20740204.486565974
2.0708119869232178	21389310.574249268
2.074106216430664	21773131.368695714
2.0773961544036865	21868953.033803385
2.080681324005127	22459334.86526387
2.0839622020721436	22336024.172429215
2.087238311767578	22035915.182065945
2.090510129928589	22345956.40309149
2.0937774181365967	22520362.695267316
2.0970399379730225	22637330.888397004
2.1002981662750244	22540247.395600453
2.1035518646240234	22855671.07873298
2.1068007946014404	22803653.664158903
2.1100454330444336	21815214.80853794
2.1132853031158447	20900454.0081262
2.116520881652832	21667206.083297815
2.1197516918182373	22773650.667079996
2.1229779720306396	23229866.831615474
2.12619948387146	23274738.75560692
2.1294167041778564	23262190.66503112
2.132629156112671	23364813.617476806
2.1358368396759033	23551618.59142744
2.139039993286133	23602379.31504286
2.1422386169433594	23503153.77375009
2.145432472229004	23482834.220200397
2.1486217975616455	23126749.60765112
2.151806354522705	22189129.287096933
2.1549863815307617	21426455.34240519
2.1581614017486572	22618002.77932993
2.16133189201355	23139399.56997563
2.1644976139068604	23451225.23752464
2.167658567428589	23689957.109723818
2.1708147525787354	23570092.144343656
2.173966407775879	23182257.153004777
2.1771130561828613	23632868.684864897
2.1802549362182617	23908223.228540972
2.183391809463501	23705586.697255824
2.1865241527557373	23776790.074291606
2.1896514892578125	23884779.01402613
2.1927738189697266	23914640.26592239
2.1958916187286377	22974940.843943156
2.1990041732788086	19829621.839934073
2.2021119594573975	18762837.83126326
2.2052149772644043	21061497.233322702
2.208312749862671	23527996.992636453
2.2114057540893555	24040299.9201269
2.214493751525879	22762783.56700879
2.217576742172241	21312868.00462016
2.2206547260284424	21852806.089144386
2.2237277030944824	21286392.67569091
2.2267956733703613	20280567.847157914
2.2298583984375	20051096.33618801
2.2329163551330566	20338394.759493753
2.235969066619873	21165787.2550753
2.2390167713165283	19076612.14065912
2.2420592308044434	16865665.25622683
2.2450966835021973	18519853.553942364
2.248128890991211	18055767.404084492
2.2511560916900635	17517318.980305452
2.254178285598755	16777793.558899518
2.257194995880127	17320832.753198866
2.260206699371338	18420074.097945023
2.2632133960723877	17472270.76097086
2.266214609146118	18161352.103446204
2.2692108154296875	19330775.628021333
2.2722020149230957	20202755.13417422
2.2751877307891846	19223300.67382663
2.278168201446533	18839755.824018586
2.2811436653137207	21367150.368431017
2.284113883972168	18661114.55713573
2.287078857421875	15381382.836849581
2.290038824081421	17105726.220002856
2.2929933071136475	15993305.035223782
2.295942783355713	14421180.64662497
2.298887014389038	14085270.288539268
2.301826238632202	16480447.815076068
2.304760217666626	19651157.527533133
2.3076889514923096	20639918.712959755
2.310612440109253	20815653.28882584
2.3135311603546143	19207672.15998631
2.3164443969726562	13953699.033261089
2.319352865219116	13866078.227462506
2.322256088256836	14983220.320751743
2.3251543045043945	13702227.206671253
2.328047275543213	13992751.51736269
2.330935478210449	14484698.01712816
2.3338186740875244	14722335.310937803
2.3366971015930176	14612049.851922303
2.3395702838897705	14648286.504737113
2.3424389362335205	14036493.055366995
2.3453025817871094	12769982.4211405
2.348161458969116	11973668.356169468
2.351015567779541	12968289.429343253
2.353865146636963	14865442.46560428
2.3567099571228027	15688197.947068064
2.3595502376556396	16778856.63574188
2.3623859882354736	18549832.503605835
2.3652172088623047	19833259.376595188
2.368043899536133	15477658.268519618
2.370866537094116	10885273.591182334
2.3736846446990967	10096582.085533056
2.3764986991882324	10375828.932068666
2.3793084621429443	13315497.174018104
2.3821144104003906	15678764.14071217
2.384916305541992	15223126.553767832
2.387714147567749	15942900.515401863
2.3905084133148193	19862741.5764958
2.393299102783203	20862637.812203765
2.3960859775543213	17609744.659326192
2.398869514465332	12992397.051982393
2.4016497135162354	10510189.599693114
2.4044265747070312	10766004.093471838
2.407200336456299	12134415.810024045
2.409970998764038	13689233.005816208
2.4127390384674072	14192193.87012679
2.415503978729248	12426508.77899732
2.418266534805298	10965471.595167842
2.4210267066955566	11177796.006181903
2.4237842559814453	11501015.346751073
2.426539897918701	10490561.572685434
2.429293394088745	10281489.001770208
2.4320452213287354	11753929.094074558
2.4347951412200928	11106293.41426418
2.4375438690185547	10720813.448834248
2.440291166305542	12162915.788876463
2.443037271499634	12292455.699962696
2.445782423019409	12166452.242444156
2.4485268592834473	11619736.06646836
2.451270818710327	9390595.830618538
2.454014539718628	9233382.422617204
2.4567582607269287	11215029.186572434
2.4595019817352295	12556875.08314256
2.4622461795806885	13914527.029177839
2.4649908542633057	13040674.717787432
2.4677364826202393	8942404.74611146
2.4704833030700684	7152567.179002395
2.473231554031372	8094818.735609917
2.4759814739227295	9517404.527572408
2.4787333011627197	9485736.486340348
