#wavelength	surface flux
0.8	33199.08678037598
0.8002000000000001	33286.63847600022
0.8004000500000003	33372.439978647664
0.8006001500125003	33529.638354120434
0.8008003000500035	33622.50498720364
0.8010005001250161	33736.878562455335
0.8012007502500472	33859.032136715534
0.8014010504376099	33973.395740421496
0.8016014007002193	34086.4142463066
0.8018018010503944	34175.663255022904
0.8020022515006572	34320.81801143004
0.8022027520635323	34460.588529282715
0.8024033027515483	34585.36919129766
0.8026039035772362	34676.57050268667
0.8028045545531306	34787.0982314807
0.8030052556917691	34889.0373481015
0.803206007005692	35052.97592855828
0.8034068085074435	35187.14660874545
0.8036076602095705	35298.624069008845
0.8038085621246229	35430.86972248576
0.8040095142651542	35545.374686948795
0.8042105166437206	35660.435707454155
0.8044115692728815	35768.18158540947
0.8046126721651998	35846.41324939903
0.8048138253332411	35984.486670446546
0.8050150287895745	36113.418105212964
0.805216282546772	36245.56402843387
0.8054175866174087	36364.817643971866
0.8056189410140631	36491.35210057338
0.8058203457493168	36613.26478511916
0.8060218008357541	36740.811087461836
0.8062233062859632	36841.18288252398
0.8064248621125346	36993.19362741618
0.806626468328063	37126.89255844794
0.8068281249451449	37238.68517149473
0.8070298319763813	37368.544791845154
0.8072315894343755	37480.38492351092
0.8074333973317341	37569.90682436173
0.8076352556810671	37748.98017932826
0.8078371644949874	37892.357786228116
0.8080391237861113	38018.783141077576
0.8082411335670578	38144.047926181025
0.8084431938504498	38266.0362838931
0.8086453046489125	38397.625004814894
0.8088474659750746	38508.81699440645
0.8090496778415686	38627.227335916315
0.809251940261029	38736.28634476428
0.8094542532460944	38755.89105100949
0.8096566168094059	38882.077253184965
0.8098590309636085	39146.026182680514
0.8100614957213493	39286.400634029495
0.8102640110952797	39389.40332058607
0.8104665770980536	39551.21677882858
0.8106691937423283	39624.18132167855
0.8108718610407639	39364.44953651623
0.8110745790060241	39296.242990776824
0.8112773476507757	39896.76595643403
0.8114801669876885	39971.45582728973
0.8116830370294355	40051.16885427664
0.8118859577886929	40426.23466787629
0.8120889292781401	40617.56547797192
0.8122919515104597	40765.390581569074
0.8124950244983374	40916.89745889286
0.8126981482544621	41043.085735502566
0.8129013227915257	41167.07703582449
0.8131045481222237	41306.526763591806
0.8133078242592543	41396.74402302672
0.8135111512153191	41335.82768943928
0.813714529003123	41517.22769301438
0.8139179576353739	41813.065496433206
0.8141214371247829	41915.13823038482
0.8143249674840641	41876.11089747415
0.814528548725935	41575.00828602568
0.8147321808631167	41966.27854380759
0.8149358639083326	42427.637705504436
0.8151395978743097	42377.5643329668
0.8153433827737784	42666.25244507116
0.8155472186194719	42963.68498185959
0.8157511054241268	43120.27057976762
0.815955043200483	43243.79924271525
0.8161590319612831	43403.999751883566
0.8163630717192736	43529.388271706535
0.8165671624872033	43689.78672531685
0.8167713042778252	43858.21778403495
0.8169754971038948	44008.118256104746
0.8171797409781707	44129.73919758527
0.8173840359134155	44287.57061134144
0.8175883819223938	44432.50575072631
0.8177927790178745	44578.30648267434
0.8179972272126291	44663.4036809908
0.8182017265194322	44543.16599495276
0.8184062769510622	43817.394577161605
0.8186108785203001	44845.48069061174
0.8188155312399301	45295.4319548522
0.8190202351227402	45416.280900647755
0.819224990181521	45614.29667728113
0.8194297964290664	45738.60670563217
0.8196346538781738	45803.146851719895
0.8198395625416434	45962.25271823228
0.8200445224322789	46103.05719870377
0.820249533562887	46349.15696408905
0.8204545959462778	46503.52258422368
0.8206597095952644	46660.809635634665
0.8208648745226633	46808.76722523437
0.8210700907412941	46949.68833146756
0.8212753582639793	47127.22138718549
0.8214806771035456	47280.20621435345
0.8216860472728215	47431.615131943196
0.8218914687846397	47605.47343456682
0.822096941651836	47761.64484178193
0.822302465887249	47915.170947362705
0.8225080415037209	48072.661439525495
0.8227136685140968	48027.39634012255
0.8229193469312254	47323.83164632739
0.8231250767679583	47566.15011853011
0.8233308580371503	48310.68004752607
0.8235366907516598	48433.691654118375
0.8237425749243477	48469.29748613098
0.8239485105680789	48945.70043997316
0.824154497695721	49310.89653793765
0.824360536320145	49495.72835325011
0.8245666264542252	49665.680985382656
0.8247727681108388	49820.05876016979
0.8249789613028664	49910.188143071886
0.8251852060431922	50115.188034556035
0.825391502344703	50324.44570251119
0.8255978502202894	50497.38640806124
0.8258042496828445	50655.53783740292
0.8260107007452654	50802.97451793454
0.8262172034204517	50899.17523955258
0.8264237577213068	50692.054449465424
0.8266303636607373	50263.48895112056
0.8268370212516525	51262.75739275468
0.8270437305069654	51657.63500171757
0.8272504914395923	51811.303991814086
0.8274573040624523	51972.82028616872
0.8276641683884679	52121.15556884583
0.8278710844305652	52267.89612897658
0.8280780522016729	52478.411631235525
0.8282850717147234	52652.382925774924
0.8284921429826521	52826.507380592804
0.8286992660183978	52960.224305439515
0.8289064408349024	53025.277177719705
0.8291136674451112	53182.25712546467
0.8293209458619727	53452.09800685371
0.8295282760984382	53653.925421872955
0.829735658167463	53763.73243738341
0.8299430920820048	53945.52172640086
0.8301505778550254	54177.66304163604
0.8303581154994891	54385.73973800992
0.8305657050283641	54549.921059980836
0.8307733464546212	54703.53567028207
0.8309810397912352	54771.70025364944
0.8311887850511829	54910.84679823599
0.8313965822474458	54681.766761369305
0.8316044313930077	54911.81097425227
0.8318123325008561	55517.99179567371
0.8320202855839813	55809.47738003222
0.8322282906553774	55990.44126838638
0.8324363477280413	56145.939883247105
0.8326444568149735	56318.04910658762
0.8328526179291771	56523.43585167362
0.8330608310836596	56687.53750180969
0.8332690962914304	56825.86576647524
0.8334774135655034	57033.028420183065
0.833685782918895	57237.89950949082
0.8338942043646247	57397.32502755121
0.834102677915716	57587.76515658039
0.834311203585195	57785.66909630717
0.8345197813860912	57967.528841267056
0.8347284113314379	58168.43472930907
0.8349370934342709	58354.54731652641
0.8351458277076294	58546.51913793126
0.8353546141645565	58734.49381201977
0.8355634528180977	58880.7901851362
0.8357723436813022	59064.849200562436
0.8359812867672226	59234.56558168501
0.8361902820889144	59402.507989583544
0.8363993296594368	59623.12879686517
0.8366084294918518	59767.60824035309
0.8368175815992247	60049.623502174974
0.8370267859946247	60231.552471506875
0.8372360426911234	60366.93736877547
0.8374453517017962	60596.39418530144
0.8376547130397217	60757.85248725674
0.8378641267179816	61001.58212735637
0.8380735927496613	61228.46969362025
0.8382831111478488	61336.53022903558
0.8384926819256358	61330.344208227274
0.8387023050961173	61561.655980953496
0.8389119806723914	61921.47745592132
0.8391217086675596	62173.894300559674
0.8393314890947265	62411.11799503935
0.8395413219670003	62607.67931246056
0.8397512072974922	62788.203920752756
0.8399611450993165	62914.22495195146
0.8401711353855914	62806.14426391348
0.8403811781694378	63152.86386520536
0.8405912734639802	63560.293978448826
0.8408014212823464	63773.63746629362
0.8410116216376671	63994.267419716
0.8412218745430766	64182.91484885708
0.8414321800117124	64418.853835667636
0.8416425380567154	64622.96142573546
0.8418529486912297	64821.635720023594
0.8420634119284025	65027.92105867369
0.8422739277813847	65247.94769747701
0.8424844962633302	65455.63501433802
0.842695117387396	65621.85931644835
0.8429057911667428	65773.11047826895
0.8431165176145345	66006.67652663038
0.8433272967439382	66264.91680986572
0.8435381285681244	66478.98996925425
0.8437490131002665	66697.58943167646
0.8439599503535415	66873.48176847295
0.84417094034113	66936.90313389912
0.8443819830762154	67204.48539738469
0.8445930785719846	67240.18611307417
0.8448042268416277	67672.52585024486
0.8450154278983382	67968.05816486594
0.8452266817553128	68160.39361600816
0.8454379884257517	68361.2709490147
0.8456493479228583	68566.51918875569
0.845860760259839	68834.28471463372
0.846072225449904	69027.84978090279
0.8462837435062666	69002.8825900587
0.8464953144421433	68746.29452514235
0.8467069382707537	69129.14400513003
0.8469186150053215	69820.22048936793
0.847130344659073	70116.52314199666
0.8473421272452377	70326.32824095883
0.8475539627770492	70474.93805111377
0.8477658512677435	70763.07266626213
0.8479777927305605	70990.50145025871
0.8481897871787432	71149.82655433605
0.848401834625538	71427.67870889063
0.8486139350841944	71696.75107618343
0.8488260885679657	71835.8525753755
0.8490382950901076	71902.52884131215
0.8492505546638802	72249.647088721
0.8494628673025462	72547.6405994144
0.8496752330193721	72805.39519349819
0.8498876518276269	73051.77376488545
0.8501001237405839	73267.32788382944
0.8503126487715191	73486.86831836177
0.850525226933712	73725.77399777931
0.8507378582404455	73966.95019071881
0.8509505427050057	74193.55429163853
0.8511632803406821	74436.00929601814
0.8513760711607672	74660.47537289464
0.8515889151785576	74888.43624874334
0.8518018124073523	75118.09719310324
0.8520147628604541	75332.36635099998
0.8522277665511693	75505.31824304067
0.8524408234928071	75823.43818922267
0.8526539336986805	76077.16355103516
0.8528670971821053	76298.06790082977
0.8530803139564007	76466.98043938875
0.8532935840348901	76622.77216731112
0.8535069074308987	76857.17211386668
0.8537202841577566	77131.06744255737
0.8539337142287962	77350.93290543994
0.8541471976573534	77431.10330122693
0.8543607344567677	77785.67981324981
0.8545743246403821	78149.12759894466
0.8547879682215422	78398.91685058431
0.8550016652135977	78622.18862814172
0.8552154156299011	78875.33598922551
0.8554292194838088	79138.80832114689
0.8556430767886797	79380.55376407216
0.855856987557877	79659.25443490889
0.8560709518047664	79919.08727880027
0.8562849695427177	80161.08742056086
0.8564990407851035	80402.64428128555
0.8567131655452999	80666.12567616833
0.8569273438366862	80930.41069777294
0.8571415756726455	81166.05213926359
0.8573558610665638	81360.1252842574
0.8575702000318304	81643.96027145191
0.8577845925818384	81903.95640399867
0.857999038729984	82191.29500200688
0.8582135384896665	82407.71866746954
0.858428091874289	82536.51969169642
0.8586426988972576	82777.7668784861
0.8588573595719821	83060.27567502394
0.8590720739118751	83331.02272678007
0.8592868419303532	83582.0434513508
0.8595016636408359	83856.62588961683
0.8597165390567462	84111.02961912258
0.8599314681915105	84349.94840796349
0.8601464510585584	84616.1199646757
0.860361487671323	84891.50209441173
0.8605765780432408	85171.66623419432
0.8607917221877518	85424.85826801986
0.8610069201182988	85692.71365013039
0.8612221718483286	85956.75108613884
0.8614374773912907	86213.90798559292
0.8616528367606385	86460.62885306356
0.8618682499698288	86538.53735173808
0.8620837170323213	86764.21436593251
0.8622992379615795	87145.64298663975
0.8625148127710699	87217.91038382168
0.8627304414742627	87449.90629717798
0.8629461240846313	87968.91323686029
0.8631618606156526	88202.89253725129
0.8633776510808066	88455.15106904946
0.8635934954935769	88731.85497210108
0.8638093938674504	89060.79100743851
0.8640253462159173	89112.68453086734
0.8642413525524714	88990.38129588738
0.8644574128906095	89755.77876087243
0.8646735272438323	89863.05940391569
0.8648896956256433	89897.11208785926
0.8651059180495498	90529.54969672616
0.8653221945290621	90959.71333631988
0.8655385250776946	91221.13569977158
0.8657549097089641	91564.32615417612
0.8659713484363913	91855.11951920153
0.8661878412735006	92187.81329518733
0.866404388233819	92457.77536133995
0.8666209893308775	92738.85689228853
0.8668376445782103	93080.52994746239
0.8670543539893549	93357.88435659396
0.8672711175778525	93514.37234221342
0.8674879353572469	93669.59923053667
0.8677048073410862	94024.37990525606
0.8679217335429217	94368.95755141815
0.8681387139763074	94662.723827848
0.8683557486548015	94847.2702695882
0.8685728375919655	95186.85253301829
0.8687899808013633	95566.10699036926
0.8690071782965637	95898.51567968808
0.869224430091138	96202.65375705618
0.8694417361986609	96490.39727512609
0.8696590966327107	96718.92629969423
0.869876511406869	96837.38698500146
0.8700939805347206	97083.46654436
0.8703115040298544	97584.94489038296
0.870529081905862	97948.40541876164
0.8707467141763385	98273.01097116341
0.8709644008548827	98531.41868336707
0.8711821419550964	98733.58413350694
0.8713999374905854	99005.04666901547
0.871617787474958	99459.24677696374
0.8718356919218269	99733.46848445186
0.8720536508448075	99976.26006022887
0.8722716642575187	100309.37563535689
0.8724897321735832	100678.94937395304
0.8727078546066265	101008.68349939161
0.8729260315702784	101333.42538705096
0.873144263078171	101640.07056758116
0.8733625491439405	101971.90903648845
0.8735808897812266	102279.24300766834
0.8737992850036719	102436.7323184456
0.874017734824923	102402.32861799607
0.8742362392586293	103077.77123371276
0.874454798318444	103422.68769189676
0.8746734120180236	103744.56503662535
0.8748920803710283	104094.23518320241
0.875110803391121	104415.69899924882
0.8753295810919689	104736.98260540473
0.875548413487242	105080.88773442019
0.8757673005906139	105410.78193007091
0.8759862424157616	105708.05944094437
0.8762052389763657	105998.77752193544
0.8764242902861098	106329.12626072281
0.8766433963586814	106638.27917070781
0.8768625572077712	106929.59972555682
0.8770817728470732	107179.67063734526
0.8773010432902849	107599.19603095896
0.8775203685511077	107991.3467025614
0.8777397486432454	108327.64969290269
0.8779591835804065	108653.12136785328
0.8781786733763015	108967.46757133296
0.8783982180446457	109283.84310753975
0.878617817599157	109593.63145653122
0.8788374720535569	109943.13777605345
0.8790571814215703	110221.06435185239
0.8792769457169257	110521.87944287824
0.879496764953355	110953.80214192987
0.8797166391445934	111310.93015692997
0.8799365683043796	111638.48245644267
0.8801565524464557	111958.7627661639
0.8803765915845676	112280.0575684966
0.8805966857324639	112627.74019298262
0.880816834903897	112936.29815237943
0.881037039112623	113240.26881680336
0.8812572983724012	113578.04339233079
0.8814776126969944	113839.24522352933
0.8816979821001687	114231.49218181866
0.8819184065956938	114643.21046118949
0.8821388861973429	114966.82108820036
0.8823594209188923	115268.65408326329
0.882580010774122	115662.1186801209
0.8828006557768155	116029.80351671866
0.8830213559407598	116360.6287788321
0.8832421112797452	116704.03975117164
0.8834629218075651	116770.69787241243
0.8836837875380171	116724.2892640638
0.8839047084849018	117346.59934848956
0.884125684662023	118069.31295499447
0.8843467160831886	118475.28572271779
0.8845678027622095	118837.80776793246
0.8847889447129001	119171.95599630778
0.8850101419490785	119509.87673798657
0.8852313944845657	119842.43837794704
0.885452702333187	120239.00427904357
0.8856740655087704	120558.44565962006
0.8858954840251476	120686.6599511597
0.8861169578961539	121061.7134483591
0.886338487135628	121630.49858747079
0.886560071757412	122029.4137366271
0.8867817117753515	122402.67049577685
0.8870034072032955	122767.72570295265
0.8872251580550963	123111.58332621402
0.8874469643446101	123466.91509139996
0.8876688260856963	123813.38879054418
0.8878907432922178	124202.53748124192
0.8881127159780409	124556.69155065548
0.8883347441570356	124818.12603247786
0.8885568278430749	125109.49695403334
0.8887789670500358	125607.70891308165
0.8890011617917983	126011.88746121347
0.8892234120822464	126436.08724450521
0.8894457179352669	126816.70144743436
0.8896680793647509	127153.3329055651
0.8898904963845921	127391.7382204672
0.8901129690086883	127778.33646611679
0.8903354972509405	128274.81238584801
0.8905580811252535	128644.63048394254
0.8907807206455347	128395.08796561469
0.8910034158256963	126903.0266594139
0.8912261666796527	128464.08631365634
0.8914489732213227	129924.5320958089
0.8916718354646282	129948.15114757528
0.8918947534234944	130052.21964651598
0.8921177271118502	130176.75583916009
0.8923407565436284	128950.52978287938
0.8925638417327644	130611.59708687132
0.8927869826931977	132248.7006566815
0.8930101794388711	132713.45673026194
0.8932334319837308	131963.84743849805
0.8934567403417267	131221.8543400438
0.8936801045268123	133446.61519248338
0.8939035245529441	134102.42618302203
0.8941270004340824	134323.32005922252
0.894350532184191	133960.7430749032
0.8945741198172371	134787.36943906068
0.8947977633471915	135914.15048404378
0.8950214627880284	136409.20004270202
0.8952452181537254	136633.7696248956
0.8954690294582639	136912.16225965472
0.8956928967156286	137514.8181499852
0.8959168199398075	137725.37694912852
0.8961407991447926	137918.8929855477
0.8963648343445789	137875.99516695214
0.896588925553165	137009.6127689596
0.8968130727845534	138231.65969783172
0.8970372760527496	138367.92448208996
0.8972615353717629	132715.93845376288
0.8974858507556059	132009.24206210178
0.8977102222182949	139785.9320465407
0.8979346497738496	141668.6998618273
0.8981591334362931	142065.66172268311
0.8983836732196523	142441.05939584138
0.8986082691379572	142704.83012256294
0.8988329212052417	139060.42273324408
0.8990576294355432	133418.92527658422
0.8992823938429022	138698.2411946623
0.8995072144413631	143234.9284372268
0.8997320912449734	144792.0757603258
0.8999570242677847	145293.35667873963
0.9001820135238516	145532.30158306682
0.9004070590272328	144997.75497661988
0.9006321607919896	143066.62347791932
0.9008573188321878	144560.04783062503
0.9010825331618959	144928.7386917278
0.9013078037951865	147318.27071810924
0.9015331307461353	148103.02937613335
0.9017585140288219	148608.36138962983
0.9019839536573292	149165.1879967036
0.9022094496457435	149656.51137879718
0.9024350020081551	150054.6407444295
0.9026606107586572	150441.96039762485
0.902886275911347	150828.14303172583
0.9031119974803249	150971.08703899174
0.9033377754796951	151491.85075508791
0.903563609923565	152177.09740072174
0.903789500826046	152503.025251434
0.9040154482012526	152475.67144839565
0.904241452063303	153386.82917876553
0.9044675124263188	153684.7745094043
0.9046936293044254	153853.7194644675
0.9049198027117517	154478.35095505227
0.9051460326624297	155117.62702190984
0.9053723191705955	155753.88074477686
0.9055986622503881	156252.6109383851
0.9058250619159507	156710.3269208723
0.9060515181814298	157077.77788108768
0.9062780310609752	157072.619331177
0.9065046005687405	157419.99661247767
0.906731226718883	158174.36344311334
0.9069579095255627	158741.78847654755
0.907184649002944	159112.19438518313
0.907411445165195	159703.42250007435
0.9076382980264862	159951.17591951237
0.907865207600993	160242.0561107036
0.9080921739028933	160902.4284797698
0.9083191969463691	161363.04696460656
0.9085462767456058	161454.8375181091
0.9087734133147922	161362.87382769652
0.9090006066681211	162635.3883850953
0.909227856819788	163348.2297379701
0.9094551637839932	163726.52122011824
0.9096825275749393	164288.35963959363
0.9099099482068329	164272.11627696306
0.9101374256938848	164720.80880303532
0.9103649600503083	164976.81130906584
0.9105925512903209	165940.72780493717
0.9108201994281437	166240.51622709577
0.9110479044780008	166777.61018905826
0.9112756664541204	167531.89694376694
0.911503485370734	168081.18712196196
0.9117313612420768	168507.3203286887
0.9119592940823873	169065.80523506395
0.912187283905908	169661.31550138953
0.9124153307268845	170136.808238358
0.9126434345595664	170600.31425393966
0.9128715954182063	171058.78379518056
0.9130998133170609	171468.09128081825
0.9133280882703902	171641.07036331942
0.913556420292458	172185.61538868703
0.9137848093975312	172797.6311950707
0.9140132555998806	173517.2014944394
0.9142417589137806	173852.0167249333
0.9144703193535092	172411.27448167434
0.9146989369333476	172423.93116729162
