#wavelength	surface flux
0.6450077295303345	862.2378356961156
0.6472567915916443	916.590559570222
0.6494921445846558	973.4949167024427
0.6517150402069092	1033.0573598627138
0.6539263725280762	1095.0832535884297
0.6561272740364075	1160.8844576930244
0.6583186388015747	1229.174715289079
0.6605015397071838	1301.4822568190348
0.6626768708229065	1376.5731475760995
0.6648455858230591	1455.2165107669557
0.6670085787773132	1537.5382909496705
0.6691668033599854	1623.2506914540202
0.6713210344314575	1689.0429585934576
0.6734722256660461	1807.852731336653
0.6756211519241333	1906.5011428318867
0.6777685880661011	2009.1373848360927
0.6799154281616211	2117.4388655412213
0.6820623278617859	2229.642725280477
0.6842101216316223	2346.507958428052
0.6863595843315125	2468.712262509134
0.688511312007904	2593.0779684343356
0.6906660795211792	2717.9773491524948
0.6928245425224304	2862.8029138446395
0.6949873566627502	3017.5578285899333
0.6971551775932312	3173.257211310986
0.6993286609649658	3326.954229221105
0.7015084028244019	3508.705752921454
0.7036949396133423	3689.1006773444356
0.7058889269828796	3875.5209786242785
0.7080909013748169	4069.4607688379847
0.710301399230957	4272.543851971897
0.712520956993103	4486.348701910944
0.7147500514984131	4708.699679067843
0.7169892191886902	4932.886127959795
0.7192389369010925	5187.058491141249
0.7214996814727783	5441.653802198399
0.723771870136261	5710.633970445667
0.7260559797286987	5993.027545901533
0.7283523678779602	6287.100440839301
0.7306615710258484	6590.8328905586695
0.7329838871955872	6914.69348484502
0.7353196740150452	7221.520854613707
0.7376693487167358	7584.375201249166
0.7400332689285278	7948.332152929663
0.7424117922782898	8321.996351628006
0.7448052167892456	8721.75205198021
0.7472138404846191	9164.056590678385
0.7496379613876343	9626.956259493345
0.7520779371261597	10091.73020733662
0.7545340061187744	10592.203693941454
0.7570064663887024	11107.716820937374
0.7594954967498779	11636.434352159044
0.7620013952255249	12166.806491300116
0.7645244002342224	12426.753370384327
0.7670646905899048	10756.337457004562
0.7696225643157959	11899.769780241493
0.7721980810165405	14454.041094759788
0.7747915983200073	15424.236698590468
0.7774031162261963	16199.9321160373
0.7800329327583313	16635.46629792572
0.7826811671257019	17813.049836189013
0.7853479981422424	18672.242254481935
0.7880334854125977	19564.601662538855
0.7907378077507019	20502.69007003299
0.7934610247612	21388.791891526365
0.7962033748626709	22375.373744886714
0.7989648580551147	23575.261323287454
0.801745593547821	24693.996246314706
0.8045456409454346	25888.06278272386
0.8073651194572449	27128.18848130907
0.8102040886878967	28380.359477428487
0.8130625486373901	29757.651527558784
0.8159406185150146	31184.279068884793
0.8188382983207703	32608.682419561672
0.8217556476593018	34211.79912014269
0.8246926665306091	35819.3872894431
0.8276493549346924	37494.96222870822
0.8306257724761963	39281.224773954746
0.8336219191551208	41154.486341068165
0.8366377949714661	43079.517954154806
0.8396733403205872	45077.36988099833
0.8427285552024841	47213.9190336197
0.8458034992218018	49387.11905564022
0.8488980531692505	51701.03328359953
0.8520121574401855	54108.00135521013
0.8551458716392517	56587.53180124481
0.8582990765571594	59200.15136872308
0.8614717125892639	61912.423389587995
0.8646637797355652	64673.84622804276
0.8678751587867737	67692.86832882244
0.8711057901382446	70827.6795262402
0.8743556141853333	74075.2738268282
0.87762451171875	77482.74675721065
0.8809124231338501	81004.06992268465
0.8842192888259888	84629.69024072563
0.8875449895858765	88488.41812961247
0.8908893465995789	92243.81828080997
0.894252359867096	96394.2698972181
0.8976338505744934	99986.57279326659
0.9010337591171265	105114.94648800122
0.9044519662857056	109954.42826904754
0.9078882932662964	114796.48747437676
0.9113426208496094	119907.19531635637
0.914814829826355	125022.47257085535
0.9183048605918884	130357.56174766166
0.9218124747276306	136020.38573310405
0.925337553024292	141283.29134666538
0.9288799166679382	146346.5850399212
0.9324395060539246	150080.49740963712
0.9360161423683167	155733.4510240684
0.9396095871925354	166796.28063073583
0.943219780921936	174715.18153647456
0.9468464851379395	177300.06796581415
0.9504896402359009	184680.83180097537
0.9541489481925964	194798.62873249108
0.9578243494033813	204278.4254996929
0.9615156054496765	211202.94238259224
0.9652225375175476	221245.65253729172
0.9689450263977051	232137.09721427946
0.9726828336715698	239712.75827473137
0.9764357805252075	250980.30013769123
0.9802037477493286	260781.52638106834
0.983986496925354	271814.142087127
0.9877838492393494	282593.49548946455
0.9915955662727356	294218.20859292196
0.9954215884208679	305950.8575783481
0.9992615580558777	317837.99981231004
1.0031154155731201	329825.71194113157
1.0069829225540161	342559.79410513205
1.0108637809753418	355689.316627159
1.0147579908370972	369178.65521059535
1.018665075302124	383031.50033853843
1.022585153579712	397400.4629950256
1.0265177488327026	412154.1021158405
1.0304628610610962	427384.9533281684
1.0344202518463135	443042.25496787287
1.0383895635604858	459144.14343846496
1.0423706769943237	475736.2315759514
1.0463634729385376	492759.99633269524
1.0503677129745483	510207.78024054965
1.0543830394744873	528388.7721060492
1.058409333229065	546867.6694797043
1.0624464750289917	566812.8428682588
1.0664942264556885	586837.3738518432
1.0705522298812866	607149.3432156189
1.0746204853057861	628092.9629251485
1.0786986351013184	649005.442005636
1.0827864408493042	671173.8875797336
1.086883783340454	693214.440273073
1.0909905433654785	715607.5145685314
1.0951062440872192	737720.9218753316
1.0992310047149658	752974.2703973731
1.10336434841156	779210.2780313998
1.1075061559677124	810231.8188066044
1.1116561889648438	834763.1839036198
1.115814208984375	773305.2639240469
1.1199802160263062	847350.0138671916
1.124153733253479	821184.7563287081
1.1283347606658936	908079.9857612322
1.1325229406356812	966145.3729321845
1.1367181539535522	973182.8151729149
1.1409201622009277	1033296.2913708143
1.145128846168518	1031620.26461476
1.1493438482284546	1012254.7429096365
1.1535650491714478	1123163.141022359
1.1577922105789185	1163397.2517967494
1.1620250940322876	1184755.7563409312
1.1662636995315552	1221309.1500565053
1.170507550239563	1242447.5786604374
1.174756646156311	1295267.7410458764
1.1790107488632202	1338599.254110347
1.1832695007324219	1380478.9328629486
1.1875330209732056	1413622.1852559643
1.191800832748413	1459447.0985687159
1.1960728168487549	1497105.8964773875
1.2003488540649414	1537543.4287656362
1.2046287059783936	1580578.8519883875
1.2089121341705322	1623396.9467034172
1.2131990194320679	1662494.1204215097
1.2174891233444214	1711010.938249149
1.2217823266983032	1755333.5745962404
1.2260783910751343	1801231.0334588424
1.230377197265625	1846259.6679073342
1.2346785068511963	1894266.1093168196
1.238982081413269	1941867.1833406524
1.2432878017425537	1989763.5760119832
1.2475954294204712	2038090.5755886582
1.2519049644470215	2087643.9555163828
1.256216049194336	2138584.754742831
1.2605286836624146	2189483.4946985217
1.2648425102233887	2242175.993990269
1.2691574096679688	2293135.17457305
1.2734732627868652	2345101.5119573874
1.2777899503707886	2402417.17371877
1.2821072340011597	2451062.6053643366
1.2864248752593994	2507897.5247227773
1.2907428741455078	2561665.803044767
1.2950609922409058	2589223.7372412984
1.2993791103363037	2657156.3698264984
1.303696870803833	2733675.258954078
1.3080145120620728	2792223.469419393
1.3123314380645752	2849967.158760413
1.3166478872299194	2907040.621105855
1.3209635019302368	2963305.247798281
1.3252781629562378	3030839.738124104
1.3295916318893433	3088062.5164828645
1.3339040279388428	3080502.05454606
1.3382149934768677	2974080.8208082267
1.3425244092941284	2637147.189116931
1.3468321561813354	2601351.0105096954
1.3511382341384888	2722662.56667232
1.3554422855377197	2776020.121600446
1.3597444295883179	3050242.5615888494
1.3640443086624146	3004169.159855582
1.3683418035507202	3100681.497220749
1.3726370334625244	3440737.898373635
1.3769296407699585	3541746.3883925476
1.381219506263733	3676103.393293447
1.3855066299438477	3222818.6031603753
1.3897908926010132	3385008.401053326
1.3940720558166504	3391408.6239292263
1.3983501195907593	3499578.3795692185
1.4026249647140503	3810063.282958211
1.4068963527679443	3888875.5338104693
1.4111642837524414	4044742.9029870927
1.4154287576675415	3679148.9291624175
1.419689416885376	3715477.5168934134
1.4239463806152344	3525966.504987351
1.4281994104385376	4240609.520082292
1.4324485063552856	4086736.9388935664
1.436693549156189	4508173.525744311
1.440934419631958	4441268.554560974
1.4451709985733032	4578582.416902538
1.449403166770935	4578920.729750734
1.453631043434143	4411124.82833801
1.4578542709350586	4911865.824082245
1.4620729684829712	4993809.01278642
1.4662868976593018	5122084.00704154
1.4704961776733398	5321440.830983302
1.4747005701065063	5264999.694659741
1.4788999557495117	5516224.153090007
1.4830944538116455	5490242.557738309
1.4872838258743286	5664831.164807722
1.491468071937561	5864630.034307344
1.4956470727920532	5922738.357779085
1.4998208284378052	5957583.444675831
1.5039892196655273	6100050.068537949
1.5081522464752197	6204415.226542427
1.5123097896575928	6281976.472502443
1.5164618492126465	6408720.274077801
1.5206083059310913	6462618.453942683
1.5247491598129272	6533458.3828656925
1.5288842916488647	6444784.866649396
1.5330137014389038	6745753.545824332
1.5371372699737549	6921551.250845081
1.541254997253418	7007290.474566788
1.545366883277893	7110252.243238055
1.5494728088378906	7210676.1212490015
1.5535727739334106	7315775.644785274
1.5576666593551636	7385737.819095902
1.561754584312439	7480362.761588076
1.5658363103866577	7602895.156793148
1.5699119567871094	7709511.429983719
1.5739814043045044	7813418.893497607
1.5780447721481323	7898446.144324507
1.582101821899414	7999832.297025077
1.5861525535583496	8087670.281338253
1.5901970863342285	8190143.5633854
1.5942351818084717	8295873.065448537
1.5982669591903687	8393232.897561671
1.6022924184799194	8495595.08901861
1.606311559677124	8592988.173980523
1.6103241443634033	8694150.009726472
1.6143304109573364	8789099.370334575
1.6183301210403442	8885823.252203094
1.6223233938217163	8968590.95763794
1.6263102293014526	9046606.239716198
1.6302905082702637	9150184.723596033
1.634264349937439	9235135.466591164
1.638231635093689	9376070.620919857
1.6421923637390137	9468967.222869374
1.646146535873413	9551570.29551091
1.6500942707061768	9665088.866869552
1.6540353298187256	9758407.90897134
1.6579699516296387	9825399.21212796
1.661897897720337	9943820.631012553
1.6658192873001099	9964279.899631577
1.6697341203689575	10068045.310170563
1.6736423969268799	10258796.714535866
1.677544116973877	10332334.189595824
1.6814392805099487	10417641.674643232
1.6853278875350952	10500088.772613458
1.6892099380493164	10668869.10817538
1.6930854320526123	10661179.357331717
1.696954369544983	10826398.788970027
1.7008168697357178	10864195.543325983
1.7046726942062378	10969905.514132513
1.708522081375122	11103208.117700625
1.712364912033081	11261750.485720208
1.7162011861801147	11360199.28899247
1.7200311422348022	11408464.639822653
1.723854422569275	11331952.96177939
1.7276713848114014	11403451.157245634
1.731481909751892	11487092.485102393
1.7352858781814575	11257088.844379416
1.7390835285186768	11497797.72883386
1.7428747415542603	11487362.651431123
1.7466596364974976	12008270.21537706
1.7504380941390991	12166036.585189994
1.7542102336883545	12051393.858125407
1.7579760551452637	12048735.536710713
1.7617355585098267	12139559.597991401
1.7654887437820435	11718903.784421103
1.7692357301712036	11405193.18803351
1.7729763984680176	11997577.121138684
1.776710867881775	11003856.765149565
1.7804391384124756	12215844.54475132
1.7841613292694092	11864254.64013286
1.7878772020339966	11635406.669438293
1.7915871143341064	10202078.33114697
1.7952908277511597	11542652.25361259
1.7989884614944458	11713635.502367014
1.8026801347732544	11522283.059017044
1.806365728378296	11314732.136823269
1.8100452423095703	9979047.145937312
1.8137187957763672	12244571.233284988
1.817386507987976	12891697.03400507
1.8210482597351074	12926595.415368406
1.8247040510177612	13952925.038237853
1.828354001045227	14027551.950914402
1.8319982290267944	12894170.18169137
1.8356364965438843	13790123.684909321
1.8392690420150757	13375476.58725906
1.8428958654403687	13826284.820333686
1.8465168476104736	12829280.98185776
1.8501322269439697	13112713.533544404
1.8537418842315674	14281223.122992575
1.8573459386825562	12959916.191211095
1.860944390296936	10491333.346738337
1.864537239074707	11755604.446329115
1.8681244850158691	11116416.076810151
1.871706247329712	11553897.54155068
1.8752825260162354	12305441.605675006
1.8788533210754395	14711361.15309759
1.8824186325073242	13993942.728950316
1.8859784603118896	12935149.753074536
1.8895330429077148	13855460.060830383
1.8930821418762207	14021482.850572582
1.8966259956359863	14565305.194966031
1.9001644849777222	13895845.875774387
1.9036977291107178	13556067.658215571
1.9072256088256836	15729238.659389308
1.9107483625411987	15815891.69043585
1.9142658710479736	15133758.094637174
1.9177782535552979	16056649.521528818
1.9212853908538818	14780979.984841576
1.9247875213623047	13978144.058120625
1.9282845258712769	15899134.983051192
1.9317764043807983	15688746.151716376
1.9352631568908691	15591248.881721022
1.9387450218200684	12156885.564173307
1.942221760749817	13187588.782820264
1.9456936120986938	13050366.47198151
1.9491604566574097	13429215.527026854
1.952622413635254	15031566.591012685
1.956079363822937	12455962.159162637
1.959531545639038	13383620.69971481
1.962978720664978	15680474.172014145
1.966421127319336	17021330.224186886
1.9698586463928223	16837661.787255198
1.9732913970947266	17433141.1492375
1.9767193794250488	16787628.085034553
1.9801424741744995	17188572.01355785
1.9835609197616577	17195924.114584547
1.9869745969772339	16745796.711581271
1.990383505821228	15234407.614299508
1.9937876462936401	16790583.92211615
1.9971871376037598	17626007.15431675
2.000581979751587	16689336.203765364
2.003972291946411	17097673.50479987
2.007357597351074	18355986.086124532
2.0107386112213135	18850726.1862968
2.0141148567199707	19009856.50858743
2.017486572265625	18322446.12770321
2.0208535194396973	18943287.553333547
2.0242159366607666	19331321.835905574
2.027573823928833	18809447.891349018
2.0309269428253174	18519040.385420896
2.034275770187378	19543455.795908853
2.0376198291778564	19858001.248122282
2.040959596633911	19969168.665495377
2.044294595718384	19974968.1515704
2.0476250648498535	19481785.69753722
2.0509510040283203	19394494.157179207
2.054272413253784	20003889.760589562
2.057589530944824	20129589.50048283
2.0609018802642822	19776128.465100463
2.0642096996307373	20225999.01752216
2.0675129890441895	20579902.697614044
2.0708119869232178	20828223.333099682
2.074106216430664	21023713.43123472
2.0773961544036865	21151733.14888173
2.080681324005127	21286722.26398549
2.0839622020721436	21310054.798693053
2.087238311767578	21282380.604572743
2.090510129928589	21462039.621282797
2.0937774181365967	21589712.51320418
2.0970399379730225	21678834.047184106
2.1002981662750244	21725437.570404958
2.1035518646240234	21896290.302541535
2.1068007946014404	21955377.206751775
2.1100454330444336	21768923.620356105
2.1132853031158447	21632575.904170953
2.116520881652832	21917495.683823384
2.1197516918182373	22266297.39333648
2.1229779720306396	22425158.478792675
2.12619948387146	22501490.688822947
2.1294167041778564	22570079.959025968
2.132629156112671	22670891.140822023
2.1358368396759033	22800324.03786067
2.139039993286133	22891028.002042897
2.1422386169433594	22940739.43489115
2.145432472229004	23018259.49689396
2.1486217975616455	23089324.40689164
2.151806354522705	23127467.7802862
2.1549863815307617	23159862.097686835
2.1581614017486572	23287737.06420213
2.16133189201355	23406234.77733892
2.1644976139068604	23454087.510677192
2.167658567428589	23542515.486871295
2.1708147525787354	23587809.530624855
2.173966407775879	23624341.764696352
2.1771130561828613	23812611.708614185
2.1802549362182617	23918070.44729943
2.183391809463501	23994085.01641423
2.1865241527557373	24038512.05466292
2.1896514892578125	24083501.831614517
2.1927738189697266	24171370.566598404
2.1958916187286377	24199659.772036713
2.1990041732788086	24134738.375346486
2.2021119594573975	24211767.460550953
2.2052149772644043	24359039.77439897
2.208312749862671	24529942.461619686
2.2114057540893555	24632801.57911007
2.214493751525879	24524537.702699076
2.217576742172241	24490672.522252988
2.2206547260284424	24598540.36460109
2.2237277030944824	24615781.4715158
2.2267956733703613	24708118.887596276
2.2298583984375	24868123.737920128
2.2329163551330566	25032128.927644417
2.235969066619873	25088467.56203473
2.2390167713165283	25006280.75580667
2.2420592308044434	25045240.420342278
2.2450966835021973	25255846.96279931
2.248128890991211	25275636.464156028
2.2511560916900635	25202629.2889389
2.254178285598755	24863544.97917668
2.257194995880127	24940471.969495848
2.260206699371338	25388596.55820062
2.2632133960723877	25539193.60186898
2.266214609146118	25655017.602496438
2.2692108154296875	25616135.227410927
2.2722020149230957	25556394.340964917
2.2751877307891846	25754060.798012614
2.278168201446533	25925244.77453175
2.2811436653137207	26127630.01997657
2.284113883972168	25560835.91346664
2.287078857421875	24591415.28182578
2.290038824081421	24953306.49889598
2.2929933071136475	24400160.92862453
2.295942783355713	24334253.599646684
2.298887014389038	25558402.03917586
2.301826238632202	26303001.22145774
2.304760217666626	26518648.602631006
2.3076889514923096	26621642.027071763
2.310612440109253	26743151.207434393
2.3135311603546143	26565033.70354403
2.3164443969726562	26001228.202814214
2.319352865219116	25630852.921310592
2.322256088256836	24142658.81861542
2.3251543045043945	23624167.128503174
2.328047275543213	24997306.015378304
2.330935478210449	24535717.925549664
2.3338186740875244	23455062.480150044
2.3366971015930176	24722276.791652944
2.3395702838897705	26213539.226537813
2.3424389362335205	26113751.245152865
2.3453025817871094	24761441.20282781
2.348161458969116	24695977.76808054
2.351015567779541	25810242.876323678
2.353865146636963	25849429.381939083
2.3567099571228027	24117157.53626342
2.3595502376556396	23584770.743528295
2.3623859882354736	24713288.308794733
2.3652172088623047	23546078.544872824
2.368043899536133	21173384.19271735
2.370866537094116	22368286.440578043
2.3736846446990967	24532863.45720798
2.3764986991882324	24664236.846161626
2.3793084621429443	22399437.239951108
2.3821144104003906	22750853.382710703
2.384916305541992	25737561.18231811
2.387714147567749	26762770.525385447
2.3905084133148193	27102750.77321978
2.393299102783203	27262763.769769125
2.3960859775543213	27479715.338217814
2.398869514465332	26228324.995823577
2.4016497135162354	24804376.192803
2.4044265747070312	25116689.30003402
2.407200336456299	25623660.781739745
2.409970998764038	26058674.528392363
2.4127390384674072	25267451.21820578
2.415503978729248	23655707.998840842
2.418266534805298	24823100.82390007
2.4210267066955566	26126995.798795063
2.4237842559814453	25599149.8864406
2.426539897918701	24438210.530142553
2.429293394088745	22565659.610783417
2.4320452213287354	21897715.033970986
2.4347951412200928	22572594.030953776
2.4375438690185547	23604856.02635708
2.440291166305542	23261604.985955745
2.443037271499634	23587210.505742434
2.445782423019409	25748248.70105022
2.4485268592834473	26247610.029172838
2.451270818710327	25165290.752079517
2.454014539718628	24608213.18776149
2.4567582607269287	23579923.205656093
2.4595019817352295	23104604.4434689
2.4622461795806885	25178353.247680224
2.4649908542633057	27616851.811535027
2.4677364826202393	27409979.308549907
2.4704833030700684	25976276.088191673
2.473231554031372	25011687.477447245
2.4759814739227295	25044063.177172028
