#wavelength	surface flux
0.7	81.0130516703238
0.7001166666666666	81.33372354680913
0.7002333527777778	81.64329382360128
0.700350058336574	81.9250396959884
0.7004667833462966	82.217702011413
0.7005835278101878	82.51854283509725
0.7007002917314895	82.8135527905307
0.7008170751134447	83.10841811963029
0.7009338779592968	83.40784298567094
0.7010507002722901	83.70523298714183
0.7011675420556689	83.99995319668596
0.701284403312678	84.29375320792188
0.7014012840465635	84.58710492540631
0.7015181842605713	84.86930096743113
0.701635103957948	85.14828613978048
0.701752043141941	85.41972344908318
0.701869001815798	85.7266724849598
0.7019859799827672	86.05832630212225
0.7021029776460976	86.34890264595116
0.7022199948090387	86.63720675701228
0.7023370314748403	86.94147901583325
0.7024540876467528	87.25854965666807
0.702571163328027	87.59051637963542
0.7026882585219152	87.90817111671281
0.7028053732316688	88.22059017762189
0.7029225074605406	88.52071457440412
0.7030396612117841	88.81008920955352
0.7031568344886527	89.07840727122581
0.7032740272944008	89.3980523101683
0.7033912396322832	89.74765842725648
0.7035084715055552	90.07869293401596
0.7036257229174727	90.40297830177764
0.7037429938712924	90.70845773024936
0.7038602843702709	91.0279144361823
0.7039775944176659	91.36059563347433
0.7040949240167356	91.6814502295349
0.7042122731707383	92.00059066142539
0.7043296418829335	92.32866766223465
0.7044470301565806	92.65082121862517
0.70456443799494	92.96408357585419
0.7046818654012724	93.29305907467375
0.7047993123788394	93.62889358287556
0.7049167789309024	93.9308301647076
0.7050342650607243	94.24764324830564
0.7051517707715678	94.60100986924341
0.7052692960666963	94.94522117594657
0.705386840949374	95.28307580403013
0.7055044054228656	95.61138242573817
0.7056219894904361	95.94064247194903
0.7057395931553511	96.27912916046992
0.705857216420877	96.62245808412752
0.7059748592902804	96.97089775245888
0.7060925217668288	97.30883712930499
0.70621020385379	97.64448739205993
0.7063279055544321	97.98571427335695
0.7064456268720246	98.32548064351165
0.7065633678098366	98.66290564515889
0.7066811283711383	99.00593436488482
0.7067989085592001	99.35152554773973
0.7069167083772933	99.68748663018863
0.7070345278286895	100.01373172376454
0.707152366916661	100.31667289238679
0.7072702256444803	100.60118014524603
0.7073881040154211	100.87319500946404
0.7075060020327569	101.30546399752606
0.7076239196997625	101.74324056141779
0.7077418570197124	102.13177650651822
0.7078598139958823	102.50193389654746
0.7079777906315483	102.85422192871471
0.7080957869299869	103.20833147312788
0.7082138028944751	103.56530187997625
0.7083318385282908	103.9404025311075
0.7084498938347124	104.3122271780993
0.708567968817018	104.67955218165675
0.7086860634784875	105.0129198537938
0.7088041778224007	105.33098735152014
0.7089223118520377	105.57566452815064
0.7090404655706796	105.9081037934445
0.709158638981608	106.40903898760006
0.709276832088105	106.81349113338217
0.7093950448934531	107.16601735906723
0.7095132774009353	107.31113039704152
0.7096315296138355	107.57084149911276
0.7097498015354378	108.17075581588972
0.7098680931690269	108.63952343347694
0.7099864045178884	109.01159764935791
0.7101047355853081	109.4128054154662
0.7102230863745722	109.81653876919749
0.7103414568889679	110.2149096960888
0.7104598471317828	110.6106885823664
0.7105782571063047	111.0039324877763
0.7106966868158224	111.36036422043
0.710815136263625	111.71768372059744
0.7109336054530023	112.13734112901057
0.7110520943872445	112.55114127325685
0.7111706030696424	112.95745487124717
0.7112891315034873	113.36078704585718
0.7114076796920712	113.76292632425218
0.7115262476386865	114.16146083536202
0.7116448353466263	114.55123506558441
0.711763442819184	114.92655226250402
0.711882070059654	115.32753346811688
0.7120007170713306	115.73993070125685
0.7121193838575091	116.14308951718363
0.7122380704214853	116.54641943461627
0.7123567767665555	116.95003664187249
0.7124755028960166	117.32862320955635
0.7125942488131658	117.69290265023268
0.7127130145213015	118.07214448510231
0.7128318000237216	118.46679010732
0.7129506053237256	118.90139595213296
0.7130694304246129	119.3232912181764
0.7131882753296837	119.73616110420106
0.7133071400422386	120.13926018734516
0.7134260245655789	120.49776511396782
0.7135449289030065	120.70078758832639
0.7136638530578235	121.13120665934346
0.7137827970333332	121.75782281881648
0.7139017608328388	122.20700693447945
0.7140207444596443	122.6301837469418
0.7141397479170543	123.07207335046779
0.7142587712083737	123.47817666479996
0.7143778143369084	123.84757802543405
0.7144968773059646	124.33495600110355
0.7146159601188489	124.83822954403972
0.7147350627788687	125.2692497797777
0.7148541852893318	125.70311514100341
0.7149733276535467	126.14037695670638
0.7150924898748222	126.52924224798197
0.715211671956468	126.91554605957423
0.7153308739017941	127.40651041224163
0.715450095714111	127.8895457505038
0.71556933739673	128.36160574806988
0.7156885989529628	128.79827151607597
0.7158078803861218	129.22324195901658
0.7159271816995193	129.6555013680718
0.7160465028964692	130.03095870169102
0.7161658439802853	130.31740530161866
0.7162852049542819	130.52792409700507
0.7164045858217744	130.71811479124332
0.716523986586078	131.16116164305816
0.7166434072505089	131.17957857269235
0.716762847818384	130.45414672430906
0.7168823082930204	131.2215102103082
0.7170017886777359	132.65469907563627
0.7171212889758488	133.54290492995693
0.7172408091906781	134.16723138792022
0.7173603493255433	134.2823321936446
0.7174799093837642	134.50611539171098
0.7175994893686615	134.7838630656443
0.7177190892835562	135.47475149475446
0.7178387091317702	136.2283731481365
0.7179583489166254	137.1093243824774
0.7180780086414448	137.64453784448335
0.7181976883095517	137.9951318787484
0.7183173879242699	138.6509028903521
0.718437107488924	139.24012278249492
0.7185568470068389	139.6676292489336
0.7186766064813399	139.91174642932233
0.7187963859157535	140.05254240479834
0.7189161853134061	140.87227464127236
0.719036004677625	141.6308824047924
0.7191558440117378	142.19780659613
0.7192757033190732	142.7180711878855
0.7193955826029597	143.21114737197516
0.7195154818667269	143.65668915344972
0.7196354011137046	144.11927782511398
0.7197553403472235	144.6268215322954
0.7198752995706147	145.14523875879442
0.7199952787872098	145.6701422933782
0.720115278000341	146.1335397611492
0.7202352972133411	146.59447917655928
0.7203553364295432	147.0554658878501
0.7204753956522815	147.51807622014334
0.7205954748848902	147.9816801085035
0.7207155741307044	148.5128144212326
0.7208356933930594	149.0616826735217
0.7209558326752915	149.64613730464782
0.7210759919807375	150.14460833644657
0.7211961713127342	150.59312293632914
0.7213163706746197	150.9199724176093
0.7214365900697322	151.33141670567076
0.7215568295014103	151.9453425367269
0.721677088972994	152.5639279042981
0.7217973684878227	153.18516887530726
0.7219176680492374	153.52202101992012
0.7220379876605789	153.96378015786885
0.722158327325189	154.64669154971676
0.7222786870464099	155.30528153362008
0.7223990668275843	155.95103822507667
0.7225194666720555	156.4815286942997
0.7226398865831676	157.00481010492754
0.7227603265642646	157.5152624375414
0.722880786618692	157.92300453510111
0.7230012667497951	158.28302093550113
0.7231217669609201	158.89689933640744
0.7232422872554135	159.47620668953053
0.7233628276366229	159.99145285963513
0.7234833881078956	160.56513062983447
0.7236039686725803	161.14948269632245
0.7237245693340255	161.28033615833053
0.7238451900955812	161.66155325644516
0.7239658309605971	162.46077055906565
0.7240864919324239	163.223049454502
0.7242071730144127	163.95965432464183
0.724327874209915	164.51985886601437
0.7244485955222832	165.10587108167837
0.7245693369548704	165.73015266835299
0.7246900985110294	166.31269659825642
0.7248108801941148	166.88557571785785
0.7249316820074803	167.5038143975298
0.7250525039544815	168.09325341646908
0.7251733460384739	168.64517629757114
0.7252942082628137	169.16794807194424
0.7254150906308574	169.68035479732407
0.7255359931459625	170.17758150127077
0.7256569158114868	170.70956675973127
0.7257778586307888	171.28064304855238
0.7258988216072273	171.86292561936602
0.7260198047441617	172.4596973387757
0.7261408080449525	173.117384565307
0.72626183151296	173.67150274288937
0.7263828751515454	174.12644406079082
0.7265039389640706	174.8239537777912
0.726625022953898	175.51359585685475
0.7267461271243904	176.01927182901167
0.7268672514789111	176.5325653823466
0.7269883960208241	177.0519801626342
0.7271095607534942	177.80595622308147
0.7272307456802866	178.54988433031488
0.7273519508045666	179.19093102857005
0.7274731761297006	179.7716753864492
0.7275944216590555	180.31284381188482
0.7277156873959987	180.81973807724
0.7278369733438982	181.2109452967742
0.727958279506122	181.34195259777604
0.7280796058860397	182.13862941884597
0.7282009524870207	183.28140823359126
0.7283223193124353	184.051824395045
0.7284437063656539	184.7763936758279
0.7285651136500483	185.4193567934623
0.7286865411689898	186.01132198541998
0.7288079889258514	186.5696220542735
0.7289294569240056	186.94110054955948
0.7290509451668262	187.45063274327796
0.7291724536576875	188.15135704350268
0.7292939823999636	188.88847100901765
0.7294155313970303	189.63349862219883
0.7295371006522632	190.3592435601101
0.7296586901690385	191.02808819554846
0.7297802999507332	191.63592337318545
0.7299019300007252	192.10145723710062
0.7300235803223919	192.5326729796748
0.7301452509191123	192.9353881727418
0.7302669417942654	193.40249935857187
0.7303886529512311	193.92230923997042
0.7305103843933897	193.71936600088605
0.7306321361241218	193.99504232688278
0.7307539081468093	195.81304949082923
0.7308757004648336	197.03055640252478
0.7309975130815778	197.88239330416735
0.7311193460004248	198.6245716045821
0.7312411992247582	199.3728448878114
0.7313630727579622	200.13741520772092
0.7314849666034219	200.80401111267864
0.7316068807645224	201.41704758488325
0.7317288152446498	201.84579665169088
0.7318507700471907	202.38062193463165
0.7319727451755319	203.0641905485346
0.732094740633061	203.9771506743707
0.7322167564231665	204.89513638736065
0.7323387925492371	205.42942396664782
0.7324608490146619	206.1234153523926
0.732582925822831	206.97810414485915
0.7327050229771347	207.74665263826375
0.7328271404809642	208.48459550847764
0.7329492783377112	209.16419698463739
0.7330714365507675	209.8834419710467
0.7331936151235259	210.63087892922994
0.7333158140593796	211.2729824257572
0.7334380333617229	211.92649663582083
0.7335602730339499	212.6180177155362
0.7336825330794556	213.37321045932163
0.7338048135016354	214.15351413409624
0.7339271143038857	214.79695584228372
0.734049435489603	215.27820847243555
0.7341717770621846	215.52021827145546
0.7342941390250283	216.4082280642334
0.7344165213815324	217.44933939811455
0.734538924135096	218.22955247703857
0.7346613472891185	219.01712010297277
0.734783790847	219.81201273639167
0.7349062548121412	220.27484034042425
0.7350287391879431	220.44358656830246
0.7351512439778078	219.81803564794777
0.7352737691851374	220.84304672738793
0.735396314813335	222.95937983055362
0.7355188808658037	223.94563241194157
0.7356414673459482	224.88048230128538
0.7357640742571725	225.78316798051767
0.7358867016028818	226.5295298445056
0.7360093493864824	227.20961235723553
0.7361320176113801	227.87094731286413
0.736254706280982	228.4771855274186
0.7363774153986956	229.01490877084152
0.7365001449679286	229.1851591772963
0.7366228949920899	229.39053405134595
0.7367456654745885	230.1106881643408
0.7368684564188344	231.4211831541053
0.7369912678282374	233.20043866681982
0.7371140997062088	234.24745831564897
0.7372369520561599	235.1582173314403
0.7373598248815024	235.88227877272018
0.7374827181856494	236.6409838946296
0.7376056319720137	237.41663645928924
0.7377285662440091	238.19347708489158
0.7378515210050496	238.86402824355778
0.7379744962585505	239.3871169510447
0.738097492007927	240.27719755316227
0.7382205082565949	241.21541045322618
0.738343545007971	241.9137492282909
0.7384666022654723	242.74946029692478
0.7385896800325165	243.70167414621014
0.7387127783125219	244.57085779899424
0.7388358971089073	245.41794548527974
0.7389590364250921	246.22962765466013
0.7390821962644963	247.05766726748374
0.7392053766305403	247.89435302669446
0.7393285775266454	248.74043178181464
0.7394517989562333	249.5886224350847
0.7395750409227259	250.43967244151082
0.7396983034295463	251.2866180466596
0.739821586480118	252.12614485004835
0.7399448900778645	252.93527055886494
0.7400682142262109	253.75291541241958
0.740191558928582	254.5774712941394
0.7403149241884034	255.27518878523853
0.7404383100091014	255.98617312576624
0.7405617163941028	256.74720245290996
0.7406851433468352	257.6147917819532
0.7408085908707264	258.4847653709914
0.7409320589692048	258.7447987034729
0.7410555476456997	259.5373890531603
0.7411790569036406	260.98154429704744
0.7413025867464579	261.9178207865193
0.7414261371775823	262.790922306248
0.7415497082004452	263.81483574522537
0.7416732998184786	264.73560406320917
0.741796912035115	265.5856279569418
0.7419205448537874	266.20202738841516
0.7420441982779297	266.95718411322343
0.742167872310976	267.972536020839
0.7422915669563612	269.05856999304024
0.7424152822175206	270.1418294258413
0.7425390180978901	271.0286934215706
0.7426627746009065	271.7853679375001
0.7427865517300065	272.4155323072924
0.7429103494886282	273.52854344374924
0.7430341678802096	274.65206445771895
0.7431580069081896	275.648451249906
0.7432818665760077	276.5823054557802
0.7434057468871037	277.4825700593173
0.7435296478449182	278.350523444761
0.7436535694528923	279.23124444565434
0.7437775117144678	280.1286925820254
0.7439014746330868	280.8500511608473
0.7440254582121922	281.6152300050957
0.7441494624552276	282.70089228423114
0.7442734873656368	283.55800523273496
0.7443975329468645	284.25793612512194
0.7445215992023557	285.1498411910034
0.7446456861355559	286.1459138945318
0.7447697937499119	287.31400464401565
0.7448939220488703	288.36509080722027
0.7450180710358784	289.3828825320168
0.7451422407143843	290.4256730364913
0.7452664310878367	291.4332326137586
0.7453906421596846	292.4101719346871
0.7455148739333779	293.38149922753223
0.7456391264123667	294.35967831868635
0.7457633996001021	295.35360172704355
0.7458876935000356	296.31342432556363
0.7460120081156189	297.25959857711223
0.7461363434503048	298.2105679910126
0.7462606995075466	299.18111254469034
0.7463850762907978	300.1721847972758
0.7465094738035127	301.1116061314185
0.7466338920491467	302.08474972910915
0.746758331031155	303.1665984557407
0.7468827907529935	304.16340676557246
0.7470072712181189	305.1250572445335
0.7471317724299886	306.20899715299316
0.7472562943920602	307.2468091052488
0.7473808371077922	308.22865964763406
0.7475054005806435	309.0626406008958
0.7476299848140736	309.9566639977133
0.7477545898115426	311.12479732835766
0.7478792155765113	312.2126749464857
0.7480038621124406	313.24767531390944
0.7481285294227926	314.06599350186843
0.7482532175110298	315.068033470518
0.7483779263806148	316.3168348594137
0.7485026560350116	317.3648327551253
0.7486274064776842	318.374703180867
0.748752177712097	319.40224699083115
0.7488769697417158	320.5270008393512
0.749001782570006	321.7108222846914
0.7491266162004343	322.79672525481067
0.7492514706364677	323.8663421880596
0.7493763458815739	324.9126557703744
0.7495012419392209	325.9945064881577
0.7496261588128773	327.0725344341223
0.7497510965060128	328.1044239375748
0.7498760550220971	329.1791837659041
0.7500010343646007	330.28124913891503
0.7501260345369949	331.34355829446065
0.750251055542751	332.40531086085696
0.7503760973853414	333.46617736497524
0.7505011600682389	334.54257689768605
0.750626243594917	335.6112542067851
0.7507513479688495	336.6366749957564
0.7508764731935109	337.7485852893196
0.7510016192723765	338.9151684587582
0.7511267862089218	340.0485849489005
0.7512519740066232	341.16729873177013
0.7513771826689577	342.26521823045715
0.7515024121994025	343.3904838006454
0.7516276626014359	344.52021635085805
0.751752933878536	345.6438796857451
0.7518782260341824	346.7269854626252
0.7520035390718548	347.78971035022624
0.7521288729950334	348.98880829959785
0.7522542278071992	350.1637824228677
0.7523796035118337	351.3070433115067
0.7525050001124189	352.4409282173325
0.7526304176124378	353.5562801567858
0.7527558560153731	354.6191419107532
0.752881315324709	355.82968640550774
0.7530067955439299	357.11465049615754
0.7531322966765205	358.2972483991424
0.7532578187259665	359.4792377094
0.7533833616957542	360.66048042837053
0.75350892558937	361.8285190007177
0.7536345104103016	363.0022091962233
0.7537601161620366	364.1959024343204
0.7538857428480638	365.3740890630868
0.7540113904718717	366.54357521083534
0.7541370590369503	367.69730355243956
0.7542627485467898	368.8393004963501
0.7543884590048808	369.96952553038574
0.7545141904147151	371.27126258540824
0.7546399427797842	372.55905096222523
0.7547657161035808	373.7794055257847
0.754891510389598	374.9813801896498
0.7550173256413296	376.177426199848
0.7551431618622698	377.3788967142589
0.7552690190559135	378.5883144109647
0.7553948972257561	379.8043144494549
0.7555207963752938	381.0641744043395
0.755646716508023	382.32847744394917
0.755772657627441	383.5970415268545
0.7558986197370455	384.84022087496356
0.756024602840335	386.07612229207723
0.7561506069408084	387.31063309547795
0.7562766320419653	388.55425963874796
0.7564026781473054	389.80464990680383
0.75652874526033	391.0926859491416
0.7566548333845401	392.3698126801445
0.7567809425234375	393.63269449143
0.7569070726805247	394.8943090717794
0.7570332238593047	396.1575543858465
0.7571593960632813	397.4257198429335
0.7572855892959586	398.6925576140217
0.7574118035608413	399.95802845539197
0.7575380388614347	401.21549103510637
0.7576642952012449	402.5224588938108
0.7577905725837782	403.8771586534866
0.7579168710125422	405.1627190395378
0.7580431904910444	406.46165172038593
0.7581695310227928	407.7969034486249
0.7582958926112967	409.1194598128873
0.7584222752600652	410.4377321577589
0.7585486789726085	411.7543580874321
0.7586751037524372	413.07518952223154
0.7588015496030628	414.39904810440237
0.7589280165279966	415.7297968010857
0.7590545045307512	417.06367256945265
0.7591810136148396	418.4016082582736
0.7593075437837755	419.74552785813313
0.7594340950410726	421.0925242508469
0.7595606673902461	422.4447235282521
0.7596872608348112	423.80190490727375
0.7598138753782836	425.16221576763746
0.75994051102418	426.52892004539683
0.7600671677760173	427.8944846817585
0.7601938456373134	429.2590656126768
0.7603205446115863	430.5975828871648
0.7604472647023548	431.95043878654275
0.7605740059131385	433.32951058556847
0.7607007682474575	434.7218909861718
0.7608275517088319	436.11731000677696
0.7609543563007835	437.5109162728326
0.7610811820268336	438.8867517469619
0.7612080288905045	440.25475141431366
0.7613348968953197	441.65344891739386
0.7614617860448022	443.0428705730937
0.7615886963424764	444.42250266511365
0.7617156277918667	445.8330909396131
0.7618425803964988	447.24040448154136
0.7619695541598982	448.63504286859796
0.7620965490855914	450.0550493557444
0.7622235651771058	451.47777843593974
0.7623506024379685	452.87685169379984
0.7624776608717082	454.28038108460777
0.7626047404818536	455.68846328908376
0.7627318412719337	457.1389140379583
0.762858963245479	458.5710676914554
0.7629861064060198	459.982026445025
0.7631132707570876	461.35700549774634
0.7632404563022137	462.73865581616144
0.7633676630449308	464.14387507285016
0.7634948909887717	465.5258301343956
0.7636221401372697	466.89936347139087
0.7637494104939593	468.27007294634495
0.7638767020623748	469.63861915582527
0.7640040148460518	471.00415356056266
0.7641313488485262	472.3188614237309
0.7642587040733344	473.61388224921836
0.7643860805240132	474.88583588882835
0.7645134782041005	476.1687032876724
0.7646408971171346	477.4043798132458
0.764768337266654	478.5371783156604
0.7648957986561985	479.574862389682
0.7650232812893079	480.572129296578
0.7651507851695227	481.5288894793501
