#wavelength	surface flux
0.8	5901.386178678991
0.8002000000000001	5928.2334296597155
0.8004000500000003	5950.441322390116
0.8006001500125003	5974.513116061603
0.8008003000500035	5999.124996122852
0.8010005001250161	6023.5396189976045
0.8012007502500472	6050.517547124809
0.8014010504376099	6076.644604716343
0.8016014007002193	6099.524563137889
0.8018018010503944	6121.578880444976
0.8020022515006572	6147.357958780523
0.8022027520635323	6176.8053038279195
0.8024033027515483	6201.722359380851
0.8026039035772362	6221.437632011519
0.8028045545531306	6246.83908636423
0.8030052556917691	6268.47892146325
0.803206007005692	6303.568103332223
0.8034068085074435	6331.793291262269
0.8036076602095705	6356.503695680044
0.8038085621246229	6383.270653324535
0.8040095142651542	6408.610622895823
0.8042105166437206	6433.074761987514
0.8044115692728815	6457.10493539306
0.8046126721651998	6477.863992089981
0.8048138253332411	6511.45981931789
0.8050150287895745	6539.88807489513
0.805216282546772	6567.382476856558
0.8054175866174087	6593.0670554516
0.8056189410140631	6619.901814734283
0.8058203457493168	6646.771030057256
0.8060218008357541	6673.1486866626
0.8062233062859632	6696.24047806295
0.8064248621125346	6727.774072671961
0.806626468328063	6756.2211415985985
0.8068281249451449	6780.36117970735
0.8070298319763813	6808.981469219059
0.8072315894343755	6835.729298192788
0.8074333973317341	6857.79529526786
0.8076352556810671	6892.882410673257
0.8078371644949874	6923.5715285970755
0.8080391237861113	6951.664104525654
0.8082411335670578	6978.203424367011
0.8084431938504498	7005.9400990183285
0.8086453046489125	7035.198718447065
0.8088474659750746	7060.773307305097
0.8090496778415686	7087.223430843018
0.809251940261029	7111.863352835543
0.8094542532460944	7122.8296465606
0.8096566168094059	7148.805320948939
0.8098590309636085	7201.00260538855
0.8100614957213493	7232.142066502556
0.8102640110952797	7256.506535734759
0.8104665770980536	7290.556017899783
0.8106691937423283	7307.688774112363
0.8108718610407639	7262.39073722756
0.8110745790060241	7253.170951127295
0.8112773476507757	7368.050011411732
0.8114801669876885	7376.523165266202
0.8116830370294355	7392.598579246547
0.8118859577886929	7484.826463594167
0.8120889292781401	7528.5346236316545
0.8122919515104597	7560.424768728406
0.8124950244983374	7594.4123189346665
0.8126981482544621	7624.0825607399565
0.8129013227915257	7652.260198998167
0.8131045481222237	7678.163038294174
0.8133078242592543	7690.796361760153
0.8135111512153191	7667.920900494729
0.813714529003123	7713.878484603601
0.8139179576353739	7790.949820417491
0.8141214371247829	7804.234793066192
0.8143249674840641	7787.936064768873
0.814528548725935	7735.934629412396
0.8147321808631167	7833.941917274418
0.8149358639083326	7936.62437745181
0.8151395978743097	7928.752163547449
0.8153433827737784	7990.809368775519
0.8155472186194719	8051.316249683907
0.8157511054241268	8087.534386794981
0.815955043200483	8111.123965239886
0.8161590319612831	8151.100352551863
0.8163630717192736	8174.25060566394
0.8165671624872033	8215.949095107499
0.8167713042778252	8260.054417700832
0.8169754971038948	8289.576814638564
0.8171797409781707	8303.962359084986
0.8173840359134155	8352.957622073622
0.8175883819223938	8392.069396172601
0.8177927790178745	8423.106590588432
0.8179972272126291	8435.922969918345
0.8182017265194322	8423.888803729327
0.8184062769510622	8283.514403446225
0.8186108785203001	8501.953426869963
0.8188155312399301	8594.111667179637
0.8190202351227402	8620.979173453185
0.819224990181521	8664.451172838819
0.8194297964290664	8694.740205764478
0.8196346538781738	8713.603513506154
0.8198395625416434	8740.486213568973
0.8200445224322789	8758.916685316693
0.820249533562887	8830.710219055638
0.8204545959462778	8871.284826437253
0.8206597095952644	8905.826401344166
0.8208648745226633	8941.197901920972
0.8210700907412941	8975.767498950736
0.8212753582639793	9015.003052713064
0.8214806771035456	9051.018166769676
0.8216860472728215	9088.087241774392
0.8218914687846397	9127.414335378251
0.822096941651836	9162.412661240323
0.822302465887249	9195.460130581205
0.8225080415037209	9229.571638224605
0.8227136685140968	9218.684496660782
0.8229193469312254	9050.8356869503
0.8231250767679583	9090.92812577789
0.8233308580371503	9256.09116576915
0.8235366907516598	9295.376133331727
0.8237425749243477	9333.00312619744
0.8239485105680789	9446.395910841222
0.824154497695721	9521.848471745237
0.824360536320145	9564.501575957089
0.8245666264542252	9605.68549478099
0.8247727681108388	9644.335801374282
0.8249789613028664	9666.498566888513
0.8251852060431922	9716.023957023457
0.825391502344703	9764.48601809649
0.8255978502202894	9803.91049421936
0.8258042496828445	9842.730850647695
0.8260107007452654	9875.83933164873
0.8262172034204517	9894.503017353894
0.8264237577213068	9874.097693683942
0.8266303636607373	9812.024135327447
0.8268370212516525	9999.963025885168
0.8270437305069654	10078.748012595914
0.8272504914395923	10114.373598871787
0.8274573040624523	10151.635491942281
0.8276641683884679	10190.708038878942
0.8278710844305652	10228.56720227162
0.8280780522016729	10272.373427416454
0.8282850717147234	10308.104673019157
0.8284921429826521	10351.22041290611
0.8286992660183978	10385.150811241234
0.8289064408349024	10385.873059759842
0.8291136674451112	10426.93948051208
0.8293209458619727	10504.653526262984
0.8295282760984382	10551.45048116026
0.829735658167463	10571.868097623666
0.8299430920820048	10614.45750696086
0.8301505778550254	10676.517583933033
0.8303581154994891	10728.63787768441
0.8305657050283641	10769.38253988082
0.8307733464546212	10806.406786686654
0.8309810397912352	10832.464641233308
0.8311887850511829	10861.774920704542
0.8313965822474458	10800.682476793061
0.8316044313930077	10868.047724271617
0.8318123325008561	10999.933534994041
0.8320202855839813	11067.69352663251
0.8322282906553774	11110.67335442736
0.8324363477280413	11143.621780071628
0.8326444568149735	11195.47905800037
0.8328526179291771	11243.27729204224
0.8330608310836596	11272.300618027524
0.8332690962914304	11297.969916364851
0.8334774135655034	11359.829493405141
0.833685782918895	11410.74408827074
0.8338942043646247	11455.18228389791
0.834102677915716	11503.625716523855
0.834311203585195	11548.15522271084
0.8345197813860912	11592.910978160853
0.8347284113314379	11643.403552300293
0.8349370934342709	11690.468885355853
0.8351458277076294	11736.814704699855
0.8353546141645565	11779.263128771323
0.8355634528180977	11805.927442853714
0.8357723436813022	11859.418473791473
0.8359812867672226	11906.934610416887
0.8361902820889144	11950.742692885904
0.8363993296594368	11992.589750237104
0.8366084294918518	12041.976665049036
0.8368175815992247	12107.208845983543
0.8370267859946247	12150.12540437372
0.8372360426911234	12185.583020849297
0.8374453517017962	12233.775142070153
0.8376547130397217	12265.943983634234
0.8378641267179816	12336.286976077921
0.8380735927496613	12394.300920163141
0.8382831111478488	12426.982672199993
0.8384926819256358	12433.141698122065
0.8387023050961173	12483.032964683029
0.8389119806723914	12566.37449416746
0.8391217086675596	12631.624416124636
0.8393314890947265	12688.380618675572
0.8395413219670003	12731.169098217606
0.8397512072974922	12777.450218345399
0.8399611450993165	12809.920992516383
0.8401711353855914	12802.828268282763
0.8403811781694378	12888.889272885639
0.8405912734639802	12970.974915819797
0.8408014212823464	13011.950114347283
0.8410116216376671	13076.990611876734
0.8412218745430766	13130.990653067807
0.8414321800117124	13187.146056982765
0.8416425380567154	13236.855441293717
0.8418529486912297	13286.027372319788
0.8420634119284025	13335.190576664269
0.8422739277813847	13391.283706248038
0.8424844962633302	13443.58637348637
0.842695117387396	13486.573957168872
0.8429057911667428	13527.77711439568
0.8431165176145345	13587.813308023491
0.8433272967439382	13651.337755781076
0.8435381285681244	13705.062809390649
0.8437490131002665	13758.396820073094
0.8439599503535415	13805.45556523214
0.84417094034113	13834.375095288733
0.8443819830762154	13896.308358269562
0.8445930785719846	13916.155342688595
0.8448042268416277	14009.812411561623
0.8450154278983382	14076.731669934346
0.8452266817553128	14128.713437113
0.8454379884257517	14174.169629095573
0.8456493479228583	14220.066729876839
0.845860760259839	14296.056439132255
0.846072225449904	14350.372020402112
0.8462837435062666	14362.476263708424
0.8464953144421433	14327.92456619874
0.8467069382707537	14410.78267397978
0.8469186150053215	14555.037419189479
0.847130344659073	14625.697069141428
0.8473421272452377	14680.582737674633
0.8475539627770492	14723.449998026425
0.8477658512677435	14791.400102886566
0.8479777927305605	14849.124128152725
0.8481897871787432	14896.582541731923
0.848401834625538	14961.839983224301
0.8486139350841944	15025.573533311448
0.8488260885679657	15062.36833754892
0.8490382950901076	15084.269543694201
0.8492505546638802	15175.565088438656
0.8494628673025462	15248.346806134407
0.8496752330193721	15314.71249578009
0.8498876518276269	15375.648649995237
0.8501001237405839	15431.598832295183
0.8503126487715191	15488.795183041619
0.850525226933712	15549.039010594217
0.8507378582404455	15609.653219008262
0.8509505427050057	15669.357135977983
0.8511632803406821	15731.424917708884
0.8513760711607672	15791.290401112097
0.8515889151785576	15849.005323131496
0.8518018124073523	15906.107623959531
0.8520147628604541	15961.924517878546
0.8522277665511693	16009.693980166112
0.8524408234928071	16091.942219767066
0.8526539336986805	16156.528090794294
0.8528670971821053	16216.394209154058
0.8530803139564007	16274.234148706228
0.8532935840348901	16331.665071906085
0.8535069074308987	16393.632789057174
0.8537202841577566	16458.622791247304
0.8539337142287962	16515.217127209824
0.8541471976573534	16552.381307811993
0.8543607344567677	16633.039898843963
0.8545743246403821	16713.301264018268
0.8547879682215422	16778.69759164546
0.8550016652135977	16836.31876937232
0.8552154156299011	16899.648643768254
0.8554292194838088	16966.136258598333
0.8556430767886797	17026.806862030488
0.855856987557877	17099.158150176696
0.8560709518047664	17165.95024845609
0.8562849695427177	17230.249828818283
0.8564990407851035	17294.61881993309
0.8567131655452999	17361.908079013414
0.8569273438366862	17428.543321547786
0.8571415756726455	17492.674234789025
0.8573558610665638	17548.071379487123
0.8575702000318304	17620.57909046014
0.8577845925818384	17690.11549123973
0.857999038729984	17760.67157052568
0.8582135384896665	17826.2278379441
0.858428091874289	17887.144051860578
0.8586426988972576	17952.662026630296
0.8588573595719821	18021.829536314603
0.8590720739118751	18091.506124308115
0.8592868419303532	18156.766048822807
0.8595016636408359	18227.005060794374
0.8597165390567462	18297.80278667318
0.8599314681915105	18365.574836031836
0.8601464510585584	18435.41305739439
0.860361487671323	18503.427780247686
0.8605765780432408	18572.65382190472
0.8607917221877518	18637.00910076443
0.8610069201182988	18705.31930364834
0.8612221718483286	18767.53604769656
0.8614374773912907	18819.670869829308
0.8616528367606385	18888.800072525682
0.8618682499698288	18912.43751479283
0.8620837170323213	18975.003413284885
0.8622992379615795	19073.4890280726
0.8625148127710699	19083.87426199559
0.8627304414742627	19146.604276939303
0.8629461240846313	19293.137877409543
0.8631618606156526	19352.331811244247
0.8633776510808066	19434.734610721953
0.8635934954935769	19511.351522779623
0.8638093938674504	19597.667310657645
0.8640253462159173	19641.213818441356
0.8642413525524714	19636.229336402976
0.8644574128906095	19801.333510692042
0.8646735272438323	19854.947284176505
0.8648896956256433	19895.844846192187
0.8651059180495498	20040.728886477038
0.8653221945290621	20119.920076108654
0.8655385250776946	20197.020214593816
0.8657549097089641	20290.958738242574
0.8659713484363913	20368.595061799137
0.8661878412735006	20445.862394502576
0.866404388233819	20511.772580573106
0.8666209893308775	20593.421098056588
0.8668376445782103	20692.294310271365
0.8670543539893549	20771.591179962204
0.8672711175778525	20833.6212685708
0.8674879353572469	20899.8997462082
0.8677048073410862	20985.92339591009
0.8679217335429217	21071.61650521696
0.8681387139763074	21147.077816253324
0.8683557486548015	21192.670210165707
0.8685728375919655	21280.951433530936
0.8687899808013633	21389.24244944774
0.8690071782965637	21476.98922172894
0.869224430091138	21558.292253727275
0.8694417361986609	21619.313538235157
0.8696590966327107	21675.416039211334
0.869876511406869	21746.027766775296
0.8700939805347206	21825.676855209902
0.8703115040298544	21948.294582790793
0.870529081905862	22034.58204912431
0.8707467141763385	22109.493938643605
0.8709644008548827	22175.136695299927
0.8711821419550964	22243.601551491087
0.8713999374905854	22317.37558276333
0.871617787474958	22442.847311159312
0.8718356919218269	22520.288173235924
0.8720536508448075	22566.67449701238
0.8722716642575187	22648.171291457413
0.8724897321735832	22762.515450386676
0.8727078546066265	22861.519098121502
0.8729260315702784	22953.72538048213
0.873144263078171	23042.72330755043
0.8733625491439405	23129.552619555845
0.8735808897812266	23198.664180166703
0.8737992850036719	23265.078522511547
0.874017734824923	23294.36698261046
0.8742362392586293	23449.135874354797
0.874454798318444	23543.03877267884
0.8746734120180236	23628.69047059797
0.8748920803710283	23732.875580411866
0.875110803391121	23817.550922778024
0.8753295810919689	23906.79905075008
0.875548413487242	24002.677420139877
0.8757673005906139	24090.879401919858
0.8759862424157616	24172.74205324419
0.8762052389763657	24255.019010195763
0.8764242902861098	24337.730732397205
0.8766433963586814	24432.724962862023
0.8768625572077712	24501.542596721356
0.8770817728470732	24566.79969471885
0.8773010432902849	24691.429041808242
0.8775203685511077	24808.264475700227
0.8777397486432454	24905.401764983697
0.8779591835804065	24994.18647372607
0.8781786733763015	25083.28625224798
0.8783982180446457	25177.840759943403
0.878617817599157	25261.558562985472
0.8788374720535569	25350.695595724705
0.8790571814215703	25431.47128220894
0.8792769457169257	25516.918347513816
0.879496764953355	25638.20343827517
0.8797166391445934	25742.96564423552
0.8799365683043796	25836.15761332718
0.8801565524464557	25921.497770923863
0.8803765915845676	26012.808127275843
0.8805966857324639	26112.847922186826
0.880816834903897	26194.5522438957
0.881037039112623	26293.09387288948
0.8812572983724012	26386.704405212415
0.8814776126969944	26458.49221273026
0.8816979821001687	26568.486600134707
0.8819184065956938	26693.05373541123
0.8821388861973429	26786.812506133534
0.8823594209188923	26862.394609275572
0.882580010774122	26977.356273653517
0.8828006557768155	27087.602854370863
0.8830213559407598	27183.93986962407
0.8832421112797452	27282.423991138803
0.8834629218075651	27345.12083796973
0.8836837875380171	27398.187106955666
0.8839047084849018	27534.86933961146
0.884125684662023	27683.85313164245
0.8843467160831886	27792.239581013073
0.8845678027622095	27889.02095045481
0.8847889447129001	27978.99274974599
0.8850101419490785	28080.88665838643
0.8852313944845657	28172.222840413557
0.885452702333187	28296.75222173744
0.8856740655087704	28391.662879520325
0.8858954840251476	28443.54908413631
0.8861169578961539	28550.374865497994
0.886338487135628	28702.341018872405
0.886560071757412	28815.882307913165
0.8867817117753515	28923.40969173906
0.8870034072032955	29024.843193787143
0.8872251580550963	29119.984443195684
0.8874469643446101	29226.404623904968
0.8876688260856963	29328.43752389343
0.8878907432922178	29444.094012227906
0.8881127159780409	29547.47304444263
0.8883347441570356	29624.844137511092
0.8885568278430749	29705.31086408384
0.8887789670500358	29845.74498574148
0.8890011617917983	29970.666839460322
0.8892234120822464	30095.70449092567
0.8894457179352669	30207.121546452632
0.8896680793647509	30305.32662217701
0.8898904963845921	30387.580304859777
0.8901129690086883	30499.84739649671
0.8903354972509405	30635.778098869858
0.8905580811252535	30748.60507797988
0.8907807206455347	30709.487110461134
0.8910034158256963	30373.596501631324
0.8912261666796527	30792.74351438838
0.8914489732213227	31139.727754646025
0.8916718354646282	31187.81050301518
0.8918947534234944	31233.593798978924
0.8921177271118502	31248.760688972423
0.8923407565436284	31036.771753722434
0.8925638417327644	31418.49150783311
0.8927869826931977	31803.4084490523
0.8930101794388711	31931.386343985465
0.8932334319837308	31777.60638713399
0.8934567403417267	31685.258692938973
0.8936801045268123	32175.847728064877
0.8939035245529441	32344.932916216818
0.8941270004340824	32428.513014391156
0.894350532184191	32364.579904719812
0.8945741198172371	32603.359348054375
0.8947977633471915	32891.25121518293
0.8950214627880284	33022.153166064905
0.8952452181537254	33097.117028892026
0.8954690294582639	33183.58523664552
0.8956928967156286	33348.94249473959
0.8959168199398075	33410.47222039295
0.8961407991447926	33507.94884159723
0.8963648343445789	33456.32436439537
0.896588925553165	33002.616889543984
0.8968130727845534	33355.2143243891
0.8970372760527496	33660.69262836197
0.8972615353717629	32254.746879657097
0.8974858507556059	32017.311759750795
0.8977102222182949	34089.5394438226
0.8979346497738496	34606.06192426844
0.8981591334362931	34717.45437229308
0.8983836732196523	34820.25179645258
0.8986082691379572	34918.86032830931
0.8988329212052417	33957.19232126604
0.8990576294355432	32448.62310903967
0.8992823938429022	33741.83506902529
0.8995072144413631	34931.06960075283
0.8997320912449734	35524.29189030152
0.8999570242677847	35704.460461955576
0.9001820135238516	35789.90926575953
0.9004070590272328	35639.20328024758
0.9006321607919896	35118.34508059221
0.9008573188321878	35523.58346073567
0.9010825331618959	35624.254943776636
0.9013078037951865	36297.98000003904
0.9015331307461353	36531.72413970269
0.9017585140288219	36700.93247601413
0.9019839536573292	36866.83358423235
0.9022094496457435	37026.92655210663
0.9024350020081551	37146.300069019955
0.9026606107586572	37255.86391900702
0.902886275911347	37370.521031109645
0.9031119974803249	37435.65060654386
0.9033377754796951	37576.8035428711
0.903563609923565	37788.6495015726
0.903789500826046	37916.18920263433
0.9040154482012526	37950.68603778101
0.904241452063303	38177.34887757128
0.9044675124263188	38271.63393495175
0.9046936293044254	38338.403648499996
0.9049198027117517	38498.7098799023
0.9051460326624297	38698.53376035878
0.9053723191705955	38891.75436641269
0.9055986622503881	39041.47349930819
0.9058250619159507	39186.420225391535
0.9060515181814298	39308.19951116901
0.9062780310609752	39330.73114152102
0.9065046005687405	39438.952654728455
0.906731226718883	39651.67695019592
0.9069579095255627	39813.967097653265
0.907184649002944	39920.3970394856
0.907411445165195	40095.27973220771
0.9076382980264862	40225.17591913349
0.907865207600993	40322.31992707711
0.9080921739028933	40453.38706207133
0.9083191969463691	40584.897108661455
0.9085462767456058	40674.22678742287
0.9087734133147922	40667.10696349124
0.9090006066681211	41017.06341993587
0.909227856819788	41235.29623671834
0.9094551637839932	41370.204948077306
0.9096825275749393	41518.62715740831
0.9099099482068329	41546.45360996465
0.9101374256938848	41675.53835649777
0.9103649600503083	41782.46953169684
0.9105925512903209	42006.29752856164
0.9108201994281437	41873.02147277399
0.9110479044780008	42129.56634122187
0.9112756664541204	42539.358397892705
0.911503485370734	42731.171974776815
0.9117313612420768	42798.3797371436
0.9119592940823873	42988.98706974909
0.912187283905908	43206.50649773589
0.9124153307268845	43363.08313528352
0.9126434345595664	43511.62841609534
0.9128715954182063	43647.23269658876
0.9130998133170609	43757.295671773514
0.9133280882703902	43819.98878538576
0.913556420292458	43998.599123353575
0.9137848093975312	44162.6614585853
0.9140132555998806	44404.0204215545
0.9142417589137806	44539.39036894613
0.9144703193535092	44189.52179810232
