#wavelength	surface flux
0.7	112.95195942606321
0.7001166666666666	113.42845552953212
0.7002333527777778	113.88092030216532
0.700350058336574	114.27320871917993
0.7004667833462966	114.68519406397327
0.7005835278101878	115.11193130678276
0.7007002917314895	115.51661100405114
0.7008170751134447	115.91949709906645
0.7009338779592968	116.33281132499968
0.7010507002722901	116.7401617058543
0.7011675420556689	117.13971092892251
0.701284403312678	117.54470643832931
0.7014012840465635	117.95161470007866
0.7015181842605713	118.33843122182193
0.701635103957948	118.71358132831146
0.701752043141941	119.06144858278196
0.701869001815798	119.48290286374113
0.7019859799827672	119.95553922827438
0.7021029776460976	120.33258480007507
0.7022199948090387	120.70486883203334
0.7023370314748403	121.11702481713507
0.7024540876467528	121.56797911273777
0.702571163328027	122.06410487901358
0.7026882585219152	122.51829942904796
0.7028053732316688	122.9567271957331
0.7029225074605406	123.35127868529862
0.7030396612117841	123.72073028591224
0.7031568344886527	124.04106506123978
0.7032740272944008	124.49166549350366
0.7033912396322832	125.01828079844614
0.7035084715055552	125.49558453179752
0.7036257229174727	125.95140305619546
0.7037429938712924	126.34475268461364
0.7038602843702709	126.77675290192383
0.7039775944176659	127.24531799145346
0.7040949240167356	127.69324834276374
0.7042122731707383	128.1362211663411
0.7043296418829335	128.57804870096714
0.7044470301565806	129.01161789984735
0.70456443799494	129.43279247252207
0.7046818654012724	129.88114480357837
0.7047993123788394	130.34134924009624
0.7049167789309024	130.7407048083902
0.7050342650607243	131.17299109762018
0.7051517707715678	131.68605296851214
0.7052692960666963	132.17382279803266
0.705386840949374	132.64400850823066
0.7055044054228656	133.08015010079166
0.7056219894904361	133.52043711621715
0.7057395931553511	133.99720852011765
0.705857216420877	134.47267532117132
0.7059748592902804	134.94675988207882
0.7060925217668288	135.41275672903396
0.70621020385379	135.8775569760838
0.7063279055544321	136.35239253765567
0.7064456268720246	136.8232097294787
0.7065633678098366	137.28762988940716
0.7066811283711383	137.74456028392302
0.7067989085592001	138.19814943263847
0.7069167083772933	138.65496404770258
0.7070345278286895	139.08718148351414
0.707152366916661	139.45987041339723
0.7072702256444803	139.78152642262384
0.7073881040154211	140.06857320915597
0.7075060020327569	140.75334948721965
0.7076239196997625	141.44913136259044
0.7077418570197124	142.01239661403847
0.7078598139958823	142.5356761055407
0.7079777906315483	143.0200763789476
0.7080957869299869	143.49084840394414
0.7082138028944751	143.96549677365795
0.7083318385282908	144.49291005013657
0.7084498938347124	145.00604536127
0.708567968817018	145.4996372792657
0.7086860634784875	145.9151947137702
0.7088041778224007	146.29591264891292
0.7089223118520377	146.51766366052445
0.7090404655706796	146.94528616464015
0.709158638981608	147.76821886983396
0.709276832088105	148.34905662411384
0.7093950448934531	148.79956864012925
0.7095132774009353	148.76734320986176
0.7096315296138355	149.01022290983235
0.7097498015354378	150.0680735295717
0.7098680931690269	150.80935633409953
0.7099864045178884	151.31721916142772
0.7101047355853081	151.89984121366746
0.7102230863745722	152.4868473352908
0.7103414568889679	153.0516318834455
0.7104598471317828	153.60893360257248
0.7105782571063047	154.1589151060666
0.7106966868158224	154.60926629903364
0.710815136263625	155.05782502961517
0.7109336054530023	155.6468263287136
0.7110520943872445	156.23291637155472
0.7111706030696424	156.8152679325553
0.7112891315034873	157.38201745150297
0.7114076796920712	157.94294542020663
0.7115262476386865	158.49332039799208
0.7116448353466263	159.02663887124027
0.711763442819184	159.53183336738985
0.711882070059654	160.07932896024275
0.7120007170713306	160.64558649102312
0.7121193838575091	161.189323677377
0.7122380704214853	161.73533746515244
0.7123567767665555	162.2860719525803
0.7124755028960166	162.78554244462114
0.7125942488131658	163.25569157425898
0.7127130145213015	163.75867882771524
0.7128318000237216	164.2871069639591
0.7129506053237256	164.88043445226694
0.7130694304246129	165.4481608222389
0.7131882753296837	165.99769508854015
0.7133071400422386	166.5431936212528
0.7134260245655789	166.98288494584082
0.7135449289030065	167.04633669362866
0.7136638530578235	167.6497153625246
0.7137827970333332	168.71893174312834
0.7139017608328388	169.37302936338318
0.7140207444596443	169.96096895643933
0.7141397479170543	170.56772424560415
0.7142587712083737	171.10416816632366
0.7143778143369084	171.56850276561192
0.7144968773059646	172.29028146243382
0.7146159601188489	173.04649649572144
0.7147350627788687	173.6436519178383
0.7148541852893318	174.23729219439423
0.7149733276535467	174.82669876196587
0.7150924898748222	175.31513488975457
0.715211671956468	175.80000846017816
0.7153308739017941	176.51994829172452
0.715450095714111	177.2150380773617
0.71556933739673	177.87578230350292
0.7156885989529628	178.4694985175028
0.7158078803861218	179.04031235418807
0.7159271816995193	179.61458522939427
0.7160465028964692	180.05235874361608
0.7161658439802853	180.27627706496597
0.7162852049542819	180.30981804903013
0.7164045858217744	180.2923590875969
0.716523986586078	180.90929168521393
0.7166434072505089	180.48712652820737
0.716762847818384	178.24477229305631
0.7168823082930204	179.63329168119847
0.7170017886777359	182.6403972451124
0.7171212889758488	184.2670083868849
0.7172408091906781	185.2742360903124
0.7173603493255433	185.08626925745943
0.7174799093837642	185.16473303562785
0.7175994893686615	185.37544913500923
0.7177190892835562	186.53075051651655
0.7178387091317702	187.84181599672704
0.7179583489166254	189.46986509035904
0.7180780086414448	190.257734888017
0.7181976883095517	190.59692015837186
0.7183173879242699	191.65978231083903
0.718437107488924	192.57803792539931
0.7185568470068389	193.14232684243328
0.7186766064813399	193.2487643318252
0.7187963859157535	193.0972125193696
0.7189161853134061	194.55675371797273
0.719036004677625	195.86787807681335
0.7191558440117378	196.7163973598176
0.7192757033190732	197.44015825560746
0.7193955826029597	198.091176478919
0.7195154818667269	198.66435407665105
0.7196354011137046	199.27344982073046
0.7197553403472235	199.97530679306232
0.7198752995706147	200.71250676274565
0.7199952787872098	201.4707253898527
0.720115278000341	202.07026095788498
0.7202352972133411	202.65390680501827
0.7203553364295432	203.21488095902717
0.7204753956522815	203.79545153992794
0.7205954748848902	204.38767413403917
0.7207155741307044	205.14694191039362
0.7208356933930594	205.94705902817776
0.7209558326752915	206.8281814854905
0.7210759919807375	207.48703140944107
0.7211961713127342	208.01669714944242
0.7213163706746197	208.25532388387165
0.7214365900697322	208.70463110450078
0.7215568295014103	209.6574277232647
0.721677088972994	210.61201983747418
0.7217973684878227	211.56768776719628
0.7219176680492374	211.83022890358473
0.7220379876605789	212.34921119896424
0.722158327325189	213.45768618355254
0.7222786870464099	214.47688383076198
0.7223990668275843	215.44886431136538
0.7225194666720555	216.17388384592863
0.7226398865831676	216.88095245153917
0.7227603265642646	217.55554359380702
0.722880786618692	217.96969254736456
0.7230012667497951	218.26246536249982
0.7231217669609201	219.17008751822203
0.7232422872554135	219.99147439138014
0.7233628276366229	220.65315310064
0.7234833881078956	221.46607133597132
0.7236039686725803	222.30891779598585
0.7237245693340255	222.04726341010885
0.7238451900955812	222.38649101862325
0.7239658309605971	223.72899882702123
0.7240864919324239	224.99787501960182
0.7242071730144127	226.20967215187795
0.724327874209915	226.97679495665244
0.7244485955222832	227.79474094847868
0.7245693369548704	228.68807814820076
0.7246900985110294	229.49319322461028
0.7248108801941148	230.27702150157873
0.7249316820074803	231.1484616488293
0.7250525039544815	231.9701602590483
0.7251733460384739	232.7270724713961
0.7252942082628137	233.40028897227174
0.7254150906308574	234.04392467588204
0.7255359931459625	234.6457827222706
0.7256569158114868	235.31721728341932
0.7257778586307888	236.0669088977084
0.7258988216072273	236.87035992680134
0.7260198047441617	237.70710771610354
0.7261408080449525	238.65203250646647
0.72626183151296	239.37532357781726
0.7263828751515454	239.88637676526258
0.7265039389640706	240.94906590295835
0.726625022953898	241.98700807395468
0.7267461271243904	242.5804564570413
0.7268672514789111	243.18977922936276
0.7269883960208241	243.81184286384342
0.7271095607534942	244.95867015505905
0.7272307456802866	246.08258150916538
0.7273519508045666	246.97518759131273
0.7274731761297006	247.72502832254358
0.7275944216590555	248.38113756163796
0.7277156873959987	248.98165088583983
0.7278369733438982	249.29958876110348
0.727958279506122	248.9789969034507
0.7280796058860397	250.26210949314805
0.7282009524870207	252.37896294233363
0.7283223193124353	253.595620270109
0.7284437063656539	254.68607440730915
0.7285651136500483	255.5520075732845
0.7286865411689898	256.3138490580961
0.7288079889258514	257.00127073734404
0.7289294569240056	257.2268761353888
0.7290509451668262	257.7853515297703
0.7291724536576875	258.8048652823545
0.7292939823999636	259.920148939384
0.7294155313970303	261.05583011456235
0.7295371006522632	262.13835664901535
0.7296586901690385	263.0667019630394
0.7297802999507332	263.829742181795
0.7299019300007252	264.25468992035576
0.7300235803223919	264.6058774508526
0.7301452509191123	264.92196474177194
0.7302669417942654	265.3888798497248
0.7303886529512311	265.9792064280946
0.7305103843933897	264.8218336035551
0.7306321361241218	264.8007049494256
0.7307539081468093	268.45038681140784
0.7308757004648336	270.64031597402465
0.7309975130815778	271.941289795225
0.7311193460004248	273.07127499005844
0.7312411992247582	274.198477155477
0.7313630727579622	275.3270357016478
0.7314849666034219	276.21694403424397
0.7316068807645224	276.9757310838369
0.7317288152446498	277.2756384104292
0.7318507700471907	277.83461804040286
0.7319727451755319	278.7569269244092
0.732094740633061	280.2263144842374
0.7322167564231665	281.71030513668694
0.7323387925492371	282.2960650078997
0.7324608490146619	283.2524843740981
0.732582925822831	284.5818699609953
0.7327050229771347	285.7092852834467
0.7328271404809642	286.7580914800869
0.7329492783377112	287.64635020274517
0.7330714365507675	288.61633734178065
0.7331936151235259	289.6444198185919
0.7333158140593796	290.449491020184
0.7334380333617229	291.2877831303149
0.7335602730339499	292.2267078715318
0.7336825330794556	293.2809326418537
0.7338048135016354	294.37793346721975
0.7339271143038857	295.16189880525405
0.734049435489603	295.5853425938316
0.7341717770621846	295.47703723167916
0.7342941390250283	296.8702730972738
0.7344165213815324	298.6160604832965
0.734538924135096	299.73458418897417
0.7346613472891185	300.86416272954176
0.734783790847	302.00475166477923
0.7349062548121412	302.34407312006516
0.7350287391879431	301.97161527462384
0.7351512439778078	299.67569400662137
0.7352737691851374	301.34636714488744
0.735396314813335	305.6396366636493
0.7355188808658037	307.19104999240506
0.7356414673459482	308.63076964049094
0.7357640742571725	310.0180568903304
0.7358867016028818	311.0330567801751
0.7360093493864824	311.8849114687835
0.7361320176113801	312.6286550463022
0.736254706280982	313.25296019411314
0.7363774153986956	313.7287668703874
0.7365001449679286	313.31897468623157
0.7366228949920899	313.00267049552656
0.7367456654745885	313.96585320955734
0.7368684564188344	316.31815583106976
0.7369912678282374	319.7734648075127
0.7371140997062088	321.4463143713488
0.7372369520561599	322.80589725836677
0.7373598248815024	323.7540250797698
0.7374827181856494	324.758521042375
0.7376056319720137	325.7898043377949
0.7377285662440091	326.8069896218084
0.7378515210050496	327.5816870188812
0.7379744962585505	328.02001350184673
0.738097492007927	329.3780769185803
0.7382205082565949	330.8539042088695
0.738343545007971	331.7146494601399
0.7384666022654723	332.86636541611745
0.7385896800325165	334.2648323005716
0.7387127783125219	335.4836524500632
0.7388358971089073	336.6522702694714
0.7389590364250921	337.73859662230507
0.7390821962644963	338.8836718677994
0.7392053766305403	340.0575179591464
0.7393285775266454	341.21812846442856
0.7394517989562333	342.3669559051838
0.7395750409227259	343.4994583880471
0.7396983034295463	344.6375889244808
0.739821586480118	345.7607926135625
0.7399448900778645	346.8064473976301
0.7400682142262109	347.8953344148632
0.740191558928582	349.01919501304087
0.7403149241884034	349.8226198832814
0.7404383100091014	350.6445815559679
0.7405617163941028	351.55986890544426
0.7406851433468352	352.7202606405691
0.7408085908707264	353.8852919750864
0.7409320589692048	353.63695850083167
0.7410555476456997	354.6545034356673
0.7411790569036406	357.22083860124707
0.7413025867464579	358.54864946039436
0.7414261371775823	359.7336887691633
0.7415497082004452	361.32889494217414
0.7416732998184786	362.65478545162915
0.741796912035115	363.7959033065849
0.7419205448537874	364.31187387690085
0.7420441982779297	365.1687451954647
0.742167872310976	366.66735046723176
0.7422915669563612	368.33700310407954
0.7424152822175206	369.9957419981716
0.7425390180978901	371.14998642785736
0.7426627746009065	372.0289970829916
0.7427865517300065	372.6405490376952
0.7429103494886282	374.35598808081045
0.7430341678802096	376.0865712990614
0.7431580069081896	377.50336548546613
0.7432818665760077	378.76411654911897
0.7434057468871037	379.9416738503696
0.7435296478449182	381.0530657442016
0.7436535694528923	382.1934925276112
0.7437775117144678	383.37200362501176
0.7439014746330868	384.12496259018303
0.7440254582121922	384.98853605445066
0.7441494624552276	386.6451986944573
0.7442734873656368	387.73109943056187
0.7443975329468645	388.42441065445695
0.7445215992023557	389.56910489354084
0.7446456861355559	391.0083700999124
0.7447697937499119	392.9374208697724
0.7448939220488703	394.48704705387786
0.7450180710358784	395.91934067086584
0.7451422407143843	397.3786424270981
0.7452664310878367	398.7722806902185
0.7453906421596846	400.10883831658066
0.7455148739333779	401.39224811231543
0.7456391264123667	402.67857012995023
0.7457633996001021	403.9804403895229
0.7458876935000356	405.24133427339916
0.7460120081156189	406.4890076454329
0.7461363434503048	407.7721068439934
0.7462606995075466	409.0573880469289
0.7463850762907978	410.3449478426848
0.7465094738035127	411.5266120172826
0.7466338920491467	412.7987435787102
0.746758331031155	414.3508907168993
0.7468827907529935	415.68760577230387
0.7470072712181189	416.93674970025984
0.7471317724299886	418.52116106210826
0.7472562943920602	419.9799250459585
0.7473808371077922	421.2863048084334
0.7475054005806435	422.203702429879
0.7476299848140736	423.2694968009026
0.7477545898115426	425.02656032592415
0.7478792155765113	426.5811953969901
0.7480038621124406	428.0011761355733
0.7481285294227926	428.83695529492286
0.7482532175110298	430.11620762004236
0.7483779263806148	431.9911652730153
0.7485026560350116	433.41737324330103
0.7486274064776842	434.7534406730932
0.748752177712097	436.1117469924881
0.7488769697417158	437.68041938401154
0.749001782570006	439.37696784489657
0.7491266162004343	440.86880625972384
0.7492514706364677	442.3162420225288
0.7493763458815739	443.70024723458977
0.7495012419392209	445.15365370288043
0.7496261588128773	446.6011991493633
0.7497510965060128	447.9649068989108
0.7498760550220971	449.40289277169853
0.7500010343646007	450.88814097594803
0.7501260345369949	452.3017200941749
0.750251055542751	453.7408684821217
0.7503760973853414	455.21696438159967
0.7505011600682389	456.64562122684845
0.750626243594917	458.0418668035566
0.7507513479688495	459.35780838383005
0.7508764731935109	460.8818184217444
0.7510016192723765	462.536433562744
0.7511267862089218	464.0460549378246
0.7512519740066232	465.531341298657
0.7513771826689577	466.9822352086878
0.7515024121994025	468.53178079218134
0.7516276626014359	470.07999110538174
0.751752933878536	471.54546218061296
0.7518782260341824	472.91280914446605
0.7520035390718548	474.2320193231879
0.7521288729950334	475.9241654638517
0.7522542278071992	477.5511297287448
0.7523796035118337	479.09248620345886
0.7525050001124189	480.6331823420471
0.7526304176124378	482.11415490923036
0.7527558560153731	483.408569884498
0.752881315324709	485.06761290369775
0.7530067955439299	486.91044979884003
0.7531322966765205	488.5030049269804
0.7532578187259665	490.09915470297165
0.7533833616957542	491.69946953415337
0.75350892558937	493.2812428419632
0.7536345104103016	494.85675782293083
0.7537601161620366	496.4229051580676
0.7538857428480638	497.97487836685815
0.7540113904718717	499.5235852055759
0.7541370590369503	501.1045611220318
0.7542627485467898	502.59803217418244
0.7543884590048808	504.0036999663083
0.7545141904147151	505.7834830441884
0.7546399427797842	507.5553593301131
0.7547657161035808	509.22869825653333
0.754891510389598	510.8691801526735
0.7550173256413296	512.4971225430344
0.7551431618622698	514.1228521116982
0.7552690190559135	515.7304458079699
0.7553948972257561	517.3231466357747
0.7555207963752938	518.9747540546296
0.755646716508023	520.6521179421303
0.755772657627441	522.3687684583377
0.7558986197370455	524.0503309628106
0.756024602840335	525.7158536639197
0.7561506069408084	527.3548200404072
0.7562766320419653	529.0436575440177
0.7564026781473054	530.7633486849738
0.75652874526033	532.4187582309825
0.7566548333845401	534.0922292535645
0.7567809425234375	535.7890949913132
0.7569070726805247	537.5029795619736
0.7570332238593047	539.2192895569304
0.7571593960632813	540.9335371170557
0.7572855892959586	542.6084095659472
0.7574118035608413	544.2634990017269
0.7575380388614347	545.9068066733707
0.7576642952012449	547.6459778437007
0.7577905725837782	549.4775737218589
0.7579168710125422	551.2145660442327
0.7580431904910444	552.9544857454874
0.7581695310227928	554.7145135610317
0.7582958926112967	556.4814554888417
0.7584222752600652	558.2443938254797
0.7585486789726085	559.9776995474159
0.7586751037524372	561.7436327191439
0.7588015496030628	563.532067787146
0.7589280165279966	565.3293309479191
0.7590545045307512	567.1111698636942
0.7591810136148396	568.8725360745493
0.7593075437837755	570.669806574753
0.7594340950410726	572.4636675850346
0.7595606673902461	574.230713982203
0.7596872608348112	576.003927682334
0.7598138753782836	577.7875953009103
0.75994051102418	579.6325964942596
0.7600671677760173	581.4825532257311
0.7601938456373134	583.3369356312062
0.7603205446115863	585.1437077655414
0.7604472647023548	586.946794303026
0.7605740059131385	588.7475923862769
0.7607007682474575	590.5659027636108
0.7608275517088319	592.398451937356
0.7609543563007835	594.265509846364
0.7610811820268336	596.0859468122217
0.7612080288905045	597.8852737382841
0.7613348968953197	599.7585815471662
0.7614617860448022	601.5953521223081
0.7615886963424764	603.3935945947045
0.7617156277918667	605.233483587855
0.7618425803964988	607.0850066525936
0.7619695541598982	608.9512752508576
0.7620965490855914	610.8247112060048
0.7622235651771058	612.6998760244551
0.7623506024379685	614.5720787277819
0.7624776608717082	616.4191207507209
0.7626047404818536	618.2519643133251
0.7627318412719337	620.1289612828151
0.762858963245479	621.987142331256
0.7629861064060198	623.8235174548175
0.7631132707570876	625.6434057428858
0.7632404563022137	627.4478181520437
0.7633676630449308	629.2231157998499
0.7634948909887717	631.022305078137
0.7636221401372697	632.8134890409331
0.7637494104939593	634.5273498894818
0.7638767020623748	636.2598052409594
0.7640040148460518	638.0014888952577
0.7641313488485262	639.647070506417
0.7642587040733344	641.1863968396962
0.7643860805240132	642.6013785852384
0.7645134782041005	644.1098146557555
0.7646408971171346	645.5636139743765
0.764768337266654	646.8773164550589
0.7648957986561985	647.9712770624598
0.7650232812893079	648.9872619147629
0.7651507851695227	649.9790371648384
