#wavelength	surface flux
0.7	9985.315177375076
0.7001166666666666	10001.609776980591
0.7002333527777778	10024.208679352372
0.700350058336574	10062.55875538079
0.7004667833462966	10095.838796737837
0.7005835278101878	10125.32751856656
0.7007002917314895	10152.084443608193
0.7008170751134447	10178.36535314459
0.7009338779592968	10204.470087713371
0.7010507002722901	10228.988237647018
0.7011675420556689	10251.435269511561
0.701284403312678	10280.352880835604
0.7014012840465635	10311.707656357818
0.7015181842605713	10338.120628479295
0.701635103957948	10362.802962640428
0.701752043141941	10383.444930705144
0.701869001815798	10408.019255682038
0.7019859799827672	10435.32876245121
0.7021029776460976	10466.113658486456
0.7022199948090387	10496.977022663381
0.7023370314748403	10525.907736803689
0.7024540876467528	10554.277906391402
0.702571163328027	10581.994498423977
0.7026882585219152	10607.387792422693
0.7028053732316688	10632.214945100293
0.7029225074605406	10661.005463101625
0.7030396612117841	10689.54251996298
0.7031568344886527	10717.579645328322
0.7032740272944008	10746.109859870812
0.7033912396322832	10774.92967376617
0.7035084715055552	10803.5017595904
0.7036257229174727	10831.56787927332
0.7037429938712924	10857.893671178042
0.7038602843702709	10885.83555927671
0.7039775944176659	10915.306422819147
0.7040949240167356	10943.275769961012
0.7042122731707383	10971.049696286736
0.7043296418829335	11000.160202737841
0.7044470301565806	11028.715777140376
0.70456443799494	11056.438522730032
0.7046818654012724	11082.253359447457
0.7047993123788394	11107.241565029468
0.7049167789309024	11139.366161580148
0.7050342650607243	11170.836042472167
0.7051517707715678	11200.605728529408
0.7052692960666963	11230.3808156676
0.705386840949374	11260.161171234762
0.7055044054228656	11288.674679990028
0.7056219894904361	11317.351272601923
0.7057395931553511	11347.418158406876
0.705857216420877	11377.215704903625
0.7059748592902804	11406.728520972785
0.7060925217668288	11436.184957091888
0.70621020385379	11465.640802152515
0.7063279055544321	11495.219113619452
0.7064456268720246	11524.769047765278
0.7065633678098366	11554.271270094972
0.7066811283711383	11582.93173298273
0.7067989085592001	11611.214605969702
0.7069167083772933	11639.14026317871
0.7070345278286895	11668.052303599567
0.707152366916661	11699.34595382135
0.7072702256444803	11728.633909713515
0.7073881040154211	11756.562547205553
0.7075060020327569	11789.254016764664
0.7076239196997625	11822.071057739624
0.7077418570197124	11853.266591534402
0.7078598139958823	11884.209151671284
0.7079777906315483	11914.905866703419
0.7080957869299869	11945.716675863912
0.7082138028944751	11976.573665471728
0.7083318385282908	12007.554906961117
0.7084498938347124	12038.504981733988
0.708567968817018	12069.41057472158
0.7086860634784875	12097.532241709197
0.7088041778224007	12124.324327687147
0.7089223118520377	12143.045629116725
0.7090404655706796	12170.342439549248
0.709158638981608	12214.104311256084
0.709276832088105	12246.431091867447
0.7093950448934531	12272.60245460831
0.7095132774009353	12272.517271889259
0.7096315296138355	12287.185167530479
0.7097498015354378	12345.60149778607
0.7098680931690269	12395.309401527515
0.7099864045178884	12438.597466206806
0.7101047355853081	12472.989135560716
0.7102230863745722	12506.07243882443
0.7103414568889679	12538.5085575368
0.7104598471317828	12570.432828518731
0.7105782571063047	12601.85635267386
0.7106966868158224	12630.025570050004
0.710815136263625	12658.642902404745
0.7109336054530023	12695.296914122033
0.7110520943872445	12730.79148092545
0.7111706030696424	12764.806211836669
0.7112891315034873	12798.202273087558
0.7114076796920712	12831.391970612847
0.7115262476386865	12864.500869683794
0.7116448353466263	12897.274599775177
0.711763442819184	12929.493281979388
0.711882070059654	12962.188194994578
0.7120007170713306	12995.089778677902
0.7121193838575091	13026.589953067898
0.7122380704214853	13059.049019020413
0.7123567767665555	13093.53321805362
0.7124755028960166	13126.800434985798
0.7125942488131658	13159.373102386313
0.7127130145213015	13190.82231927251
0.7128318000237216	13222.82661992686
0.7129506053237256	13256.497732029193
0.7130694304246129	13287.36291279561
0.7131882753296837	13316.232696753155
0.7133071400422386	13332.860075733353
0.7134260245655789	13355.255011501544
0.7135449289030065	13403.010649714774
0.7136638530578235	13449.470975186508
0.7137827970333332	13494.814828791837
0.7139017608328388	13529.330607788888
0.7140207444596443	13562.080163364604
0.7141397479170543	13595.119955374104
0.7142587712083737	13626.318400479098
0.7143778143369084	13655.628340538626
0.7144968773059646	13696.269896997968
0.7146159601188489	13738.555099199782
0.7147350627788687	13774.65983887828
0.7148541852893318	13809.62631526825
0.7149733276535467	13843.22705163932
0.7150924898748222	13875.600316009217
0.715211671956468	13908.131997110202
0.7153308739017941	13945.355278057039
0.715450095714111	13982.401775795392
0.71556933739673	14019.201905554339
0.7156885989529628	14049.531948124515
0.7158078803861218	14077.559344281179
0.7159271816995193	14104.658004673694
0.7160465028964692	14136.60253161402
0.7161658439802853	14176.134655358179
0.7162852049542819	14204.310214077743
0.7164045858217744	14227.578290164236
0.716523986586078	14241.930043036093
0.7166434072505089	14248.263374573411
0.716762847818384	14240.549624347685
0.7168823082930204	14281.018643090023
0.7170017886777359	14343.395831684149
0.7171212889758488	14415.560087188098
0.7172408091906781	14475.328221326015
0.7173603493255433	14511.170020720247
0.7174799093837642	14537.158759187914
0.7175994893686615	14558.259005462694
0.7177190892835562	14609.046220748247
0.7178387091317702	14661.901275463168
0.7179583489166254	14718.804283945701
0.7180780086414448	14760.741788744119
0.7181976883095517	14794.689368987343
0.7183173879242699	14835.264949375078
0.718437107488924	14873.163961644015
0.7185568470068389	14904.803987146232
0.7186766064813399	14931.456493265894
0.7187963859157535	14955.300495941978
0.7189161853134061	15013.391155936966
0.719036004677625	15067.72651201006
0.7191558440117378	15110.824621413869
0.7192757033190732	15147.818291794729
0.7193955826029597	15181.252766428335
0.7195154818667269	15218.605783886496
0.7196354011137046	15257.240799532128
0.7197553403472235	15298.571128468393
0.7198752995706147	15339.048177357512
0.7199952787872098	15379.02172746515
0.720115278000341	15403.46800903052
0.7202352972133411	15415.344527679208
0.7203553364295432	15398.565218907283
0.7204753956522815	15446.40165209285
0.7205954748848902	15532.531762510063
0.7207155741307044	15586.058311427054
0.7208356933930594	15636.120079560262
0.7209558326752915	15680.99419100335
0.7210759919807375	15721.664652875406
0.7211961713127342	15759.89393376713
0.7213163706746197	15795.256644400564
0.7214365900697322	15831.299282249007
0.7215568295014103	15869.104846703054
0.721677088972994	15913.33669330188
0.7217973684878227	15961.17175667127
0.7219176680492374	15992.337083733946
0.7220379876605789	16028.07893758496
0.722158327325189	16074.544641873123
0.7222786870464099	16120.68254123132
0.7223990668275843	16166.650393693775
0.7225194666720555	16205.849956502514
0.7226398865831676	16246.00373380794
0.7227603265642646	16288.18484607386
0.722880786618692	16322.70768696344
0.7230012667497951	16353.629532419238
0.7231217669609201	16399.449507405072
0.7232422872554135	16440.957954419875
0.7233628276366229	16474.481368053537
0.7234833881078956	16515.787167763578
0.7236039686725803	16559.90093387667
0.7237245693340255	16584.443742724958
0.7238451900955812	16619.73337346124
0.7239658309605971	16672.963489175014
0.7240864919324239	16722.4853974437
0.7242071730144127	16770.206844144286
0.724327874209915	16812.554745136018
0.7244485955222832	16854.309892887435
0.7245693369548704	16895.181607738476
0.7246900985110294	16938.96037107576
0.7248108801941148	16983.9623860185
0.7249316820074803	17031.282994404068
0.7250525039544815	17075.314225797974
0.7251733460384739	17115.06169067289
0.7252942082628137	17152.79152121337
0.7254150906308574	17189.764096540803
0.7255359931459625	17225.40549376695
0.7256569158114868	17266.91016313876
0.7257778586307888	17315.00993457227
0.7258988216072273	17353.713900607432
0.7260198047441617	17391.656804157465
0.7261408080449525	17436.45194336289
0.72626183151296	17470.152041089714
0.7263828751515454	17493.227437503396
0.7265039389640706	17552.33281423132
0.726625022953898	17612.304214703738
0.7267461271243904	17652.778991314535
0.7268672514789111	17694.09479504117
0.7269883960208241	17736.085910550315
0.7271095607534942	17785.980609298127
0.7272307456802866	17836.592306047347
0.7273519508045666	17886.83640922586
0.7274731761297006	17931.122285016932
0.7275944216590555	17971.49707575378
0.7277156873959987	18008.996904542488
0.7278369733438982	18042.665895234368
0.727958279506122	18067.906057400345
0.7280796058860397	18121.205618953594
0.7282009524870207	18189.102991622254
0.7283223193124353	18242.23131236322
0.7284437063656539	18292.822456891285
0.7285651136500483	18338.896138859047
0.7286865411689898	18380.615593819333
0.7288079889258514	18419.610489650626
0.7289294569240056	18444.79309450254
0.7290509451668262	18479.3800462224
0.7291724536576875	18526.99119067669
0.7292939823999636	18575.71559542014
0.7294155313970303	18624.880956024208
0.7295371006522632	18674.79736794683
0.7296586901690385	18718.579303699054
0.7297802999507332	18755.784090741752
0.7299019300007252	18802.980467453555
0.7300235803223919	18847.96430290901
0.7301452509191123	18875.690475477033
0.7302669417942654	18912.21493454778
0.7303886529512311	18955.938675481397
0.7305103843933897	18963.14300489012
0.7306321361241218	18992.802886121393
0.7307539081468093	19095.569109937456
0.7308757004648336	19173.139533493915
0.7309975130815778	19235.36889440762
0.7311193460004248	19278.268454848687
0.7312411992247582	19324.23146442052
0.7313630727579622	19376.975536371545
0.7314849666034219	19425.262823787154
0.7316068807645224	19471.05263759816
0.7317288152446498	19507.412485060104
0.7318507700471907	19544.647475956703
0.7319727451755319	19583.10741893064
0.732094740633061	19642.87109123017
0.7322167564231665	19704.439379883886
0.7323387925492371	19738.793754309638
0.7324608490146619	19787.386433330354
0.732582925822831	19850.306014237027
0.7327050229771347	19902.039310600696
0.7328271404809642	19950.0436037175
0.7329492783377112	19991.346315327508
0.7330714365507675	20040.3286695414
0.7331936151235259	20094.767938014927
0.7333158140593796	20131.416610637913
0.7334380333617229	20153.28385692195
0.7335602730339499	20144.590252012757
0.7336825330794556	20213.348016198895
0.7338048135016354	20317.335981092096
0.7339271143038857	20370.839914051707
0.734049435489603	20400.530637032298
0.7341717770621846	20395.098069072916
0.7342941390250283	20433.134232190445
0.7344165213815324	20484.116292396637
0.734538924135096	20534.499071499104
0.7346613472891185	20589.99822640343
0.734783790847	20650.592857722244
0.7349062548121412	20692.19224818099
0.7350287391879431	20723.344645490706
0.7351512439778078	20729.85692375719
0.7352737691851374	20794.43976401723
0.735396314813335	20897.419430746613
0.7355188808658037	20953.855354436422
0.7356414673459482	21012.311742272377
0.7357640742571725	21077.53702476485
0.7358867016028818	21129.55509341757
0.7360093493864824	21176.434321912806
0.7361320176113801	21227.3266197073
0.736254706280982	21275.22307235266
0.7363774153986956	21319.39346887438
0.7365001449679286	21347.715238484656
0.7366228949920899	21377.633771571866
0.7367456654745885	21430.102984436515
0.7368684564188344	21504.98811802919
0.7369912678282374	21597.6734900132
0.7371140997062088	21661.654875616532
0.7372369520561599	21719.278414399698
0.7373598248815024	21767.215684738738
0.7374827181856494	21816.75711241301
0.7376056319720137	21867.266891214695
0.7377285662440091	21921.632551040875
0.7378515210050496	21968.28984621046
0.7379744962585505	22004.252941238425
0.738097492007927	22025.340734494726
0.7382205082565949	22047.175839075713
0.738343545007971	22092.197752406275
0.7384666022654723	22144.649042371428
0.7385896800325165	22203.40122675553
0.7387127783125219	22264.447113086928
0.7388358971089073	22324.087809613768
0.7389590364250921	22379.790891043347
0.7390821962644963	22436.553600256906
0.7392053766305403	22493.939549079405
0.7393285775266454	22553.31256625221
0.7394517989562333	22611.25169217666
0.7395750409227259	22667.209391890945
0.7396983034295463	22710.087170386516
0.739821586480118	22738.94481772365
0.7399448900778645	22717.37390169512
0.7400682142262109	22766.361637378584
0.740191558928582	22872.373914762822
0.7403149241884034	22939.722931115146
0.7404383100091014	23001.92506011873
0.7405617163941028	23058.992263833406
0.7406851433468352	23118.9759518795
0.7408085908707264	23178.439217294166
0.7409320589692048	23213.33867638674
0.7410555476456997	23268.68612232079
0.7411790569036406	23349.050038032987
0.7413025867464579	23398.218453475052
0.7414261371775823	23434.693587394482
0.7415497082004452	23447.58225945232
0.7416732998184786	23483.792515212994
0.741796912035115	23536.011190026784
0.7419205448537874	23592.566677060684
0.7420441982779297	23651.88106242427
0.742167872310976	23715.94949697775
0.7422915669563612	23784.487795854693
0.7424152822175206	23852.909397989013
0.7425390180978901	23909.328251121435
0.7426627746009065	23964.102851076685
0.7427865517300065	24017.279880710117
0.7429103494886282	24086.952886437553
0.7430341678802096	24155.702632563145
0.7431580069081896	24216.736730889534
0.7432818665760077	24274.378342165208
0.7434057468871037	24330.29423408888
0.7435296478449182	24386.432101234936
0.7436535694528923	24442.62320152679
0.7437775117144678	24498.88129955522
0.7439014746330868	24545.176891191088
0.7440254582121922	24588.257392015137
0.7441494624552276	24627.425880099116
0.7442734873656368	24669.13737027169
0.7443975329468645	24712.60044604053
0.7445215992023557	24766.99077455289
0.7446456861355559	24807.462757954105
0.7447697937499119	24823.656712169697
0.7448939220488703	24874.738567508462
0.7450180710358784	24938.229852565673
0.7451422407143843	25008.657328413563
0.7452664310878367	25075.124416959876
0.7453906421596846	25138.148397067675
0.7455148739333779	25202.40096776622
0.7456391264123667	25266.672888350113
0.7457633996001021	25330.758366119117
0.7458876935000356	25391.027015359414
0.7460120081156189	25449.324704387112
0.7461363434503048	25504.047040604673
0.7462606995075466	25558.145986033618
0.7463850762907978	25611.590512755232
0.7465094738035127	25672.044609677727
0.7466338920491467	25734.389874806086
0.746758331031155	25799.220873753085
0.7468827907529935	25861.097231716343
0.7470072712181189	25921.47211217097
0.7471317724299886	25981.55042953587
0.7472562943920602	26041.97417788144
0.7473808371077922	26102.81458378594
0.7475054005806435	26153.390363211278
0.7476299848140736	26200.267338035297
0.7477545898115426	26241.349700178547
0.7478792155765113	26292.38083594165
0.7480038621124406	26348.6543119147
0.7481285294227926	26390.3513775515
0.7482532175110298	26445.564958775583
0.7483779263806148	26518.933976263048
0.7485026560350116	26580.961741198742
0.7486274064776842	26640.80911237051
0.748752177712097	26701.557974111634
0.7488769697417158	26764.15903192821
0.749001782570006	26827.847721738694
0.7491266162004343	26886.88786380327
0.7492514706364677	26945.328121274462
0.7493763458815739	27002.90866448458
0.7495012419392209	27058.43505567629
0.7496261588128773	27113.527338414104
0.7497510965060128	27168.775653102635
0.7498760550220971	27225.114685223045
0.7500010343646007	27282.10960514938
0.7501260345369949	27333.237907391824
0.750251055542751	27382.58723445535
0.7503760973853414	27429.35476308612
0.7505011600682389	27483.10542124621
0.750626243594917	27536.504096890367
0.7507513479688495	27582.342572046327
0.7508764731935109	27620.546179619017
0.7510016192723765	27654.187991823936
0.7511267862089218	27710.327283200357
0.7512519740066232	27765.768022133092
0.7513771826689577	27820.220630723517
0.7515024121994025	27875.18976203531
0.7516276626014359	27929.69220324733
0.751752933878536	27982.125764446475
0.7518782260341824	28032.856796348882
0.7520035390718548	28082.618581822007
0.7521288729950334	28134.18114996605
0.7522542278071992	28185.09634644309
0.7523796035118337	28235.159499201247
0.7525050001124189	28286.219885837418
0.7526304176124378	28336.56417733888
0.7527558560153731	28384.053259719363
0.752881315324709	28434.20968161579
0.7530067955439299	28485.73348696006
0.7531322966765205	28535.781985128833
0.7532578187259665	28584.78458332164
0.7533833616957542	28632.560670043174
0.75350892558937	28674.45161578966
0.7536345104103016	28716.34726292735
0.7537601161620366	28760.620244395835
0.7538857428480638	28795.129910101452
0.7540113904718717	28825.57329323831
0.7541370590369503	28860.77344471597
0.7542627485467898	28903.445187263023
0.7543884590048808	28953.61390763451
0.7545141904147151	28999.550838384275
0.7546399427797842	29042.089313892397
0.7547657161035808	29078.237219301718
0.754891510389598	29114.78085908009
0.7550173256413296	29151.165840148115
0.7551431618622698	29185.610543063067
0.7552690190559135	29219.410319015064
0.7553948972257561	29252.679805157364
0.7555207963752938	29283.710257242376
0.755646716508023	29315.095890896086
0.755772657627441	29347.241072152032
0.7558986197370455	29375.218673836927
0.756024602840335	29401.55436547369
0.7561506069408084	29425.87732422674
0.7562766320419653	29446.967192765558
0.7564026781473054	29465.9979454393
0.75652874526033	29486.147414114737
0.7566548333845401	29505.255081969837
0.7567809425234375	29523.00754757368
0.7569070726805247	29539.16453475225
0.7570332238593047	29552.94769750151
0.7571593960632813	29560.880930967713
0.7572855892959586	29562.269249045923
0.7574118035608413	29560.710798768094
0.7575380388614347	29560.694307617807
0.7576642952012449	29561.600466407333
0.7577905725837782	29563.396082704436
0.7579168710125422	29557.314629264234
0.7580431904910444	29549.734077892714
0.7581695310227928	29540.491832590276
0.7582958926112967	29528.00076780839
0.7584222752600652	29513.192901215472
0.7585486789726085	29492.386381322893
0.7586751037524372	29468.284821543493
0.7588015496030628	29441.83243276649
0.7589280165279966	29407.54088203606
0.7590545045307512	29369.877003853213
0.7591810136148396	29327.75986346741
0.7593075437837755	29280.481879510382
0.7594340950410726	29229.57359828517
0.7595606673902461	29171.300388198564
0.7596872608348112	29108.484996705403
0.7598138753782836	29042.45436150447
0.75994051102418	28966.974349642544
0.7600671677760173	28886.541634006855
0.7601938456373134	28801.719428112312
0.7603205446115863	28705.371438546747
0.7604472647023548	28602.888236905663
0.7605740059131385	28491.087833418696
0.7607007682474575	28368.922369718563
0.7608275517088319	28240.694416613376
0.7609543563007835	28100.295662191802
0.7610811820268336	27948.396089142618
0.7612080288905045	27788.977998500544
0.7613348968953197	27614.1537331904
0.7614617860448022	27429.10660527334
0.7615886963424764	27233.285858085575
0.7617156277918667	27017.827170472392
0.7618425803964988	26793.172151905746
0.7619695541598982	26554.12443409552
0.7620965490855914	26295.33119666831
0.7622235651771058	26025.308081600946
0.7623506024379685	25733.410560208453
0.7624776608717082	25422.335881052077
0.7626047404818536	25097.806762992568
0.7627318412719337	24741.38385043397
0.762858963245479	24369.14762584686
0.7629861064060198	23978.635552625754
0.7631132707570876	23557.425090831624
0.7632404563022137	23120.966934482665
0.7633676630449308	22659.95123786658
0.7634948909887717	22168.45030581322
0.7636221401372697	21660.12441503815
0.7637494104939593	21121.42606373618
0.7638767020623748	20559.58397626376
0.7640040148460518	19981.402372246965
0.7641313488485262	19371.24439905835
0.7642587040733344	18746.892311405387
0.7643860805240132	18105.953114588985
0.7645134782041005	17452.417970910737
0.7646408971171346	16795.373812365604
0.764768337266654	16134.26777632659
