#wavelength	surface flux
0.6450077295303345	283.3074979529106
0.6472567915916443	303.0973224258423
0.6494921445846558	323.98111829316656
0.6517150402069092	345.93194857643476
0.6539263725280762	369.0970979778042
0.6561272740364075	393.49481422108505
0.6583186388015747	419.1825614579739
0.6605015397071838	446.32894358355543
0.6626768708229065	474.8166309701352
0.6648455858230591	504.8451324176806
0.6670085787773132	536.4577892754206
0.6691668033599854	569.6560816919153
0.6713210344314575	603.8737982203806
0.6734722256660461	641.489319345849
0.6756211519241333	680.21496336915
0.6777685880661011	720.8344101119172
0.6799154281616211	763.7164945779228
0.6820623278617859	808.778426507211
0.6842101216316223	856.1967318151234
0.6863595843315125	906.0794003702591
0.688511312007904	958.4481638232241
0.6906660795211792	1013.4235923642701
0.6928245425224304	1070.3378210560945
0.6949873566627502	1132.367019861483
0.6971551775932312	1196.8135937441007
0.6993286609649658	1263.6625809109385
0.7015084028244019	1335.3951382195974
0.7036949396133423	1410.1619561174707
0.7058889269828796	1489.047162716676
0.7080909013748169	1571.4527613150606
0.710301399230957	1658.1507505253255
0.712520956993103	1750.0470778204835
0.7147500514984131	1846.142795684736
0.7169892191886902	1940.721273895974
0.7192389369010925	2053.1322674695525
0.7214996814727783	2165.788843025456
0.723771870136261	2283.7061075312777
0.7260559797286987	2408.2769241968335
0.7283523678779602	2539.888102706933
0.7306615710258484	2674.2169664997027
0.7329838871955872	2822.2606099265377
0.7353196740150452	2969.1151184487862
0.7376693487167358	3132.736315868114
0.7400332689285278	3301.3124073649437
0.7424117922782898	3476.8594365023528
0.7448052167892456	3662.4558290862433
0.7472138404846191	3860.964799041623
0.7496379613876343	4068.7656381803436
0.7520779371261597	4281.975663825656
0.7545340061187744	4504.475228893137
0.7570064663887024	4728.785047256393
0.7594954967498779	4941.714817819862
0.7620013952255249	5094.155493971378
0.7645244002342224	4928.6567540792485
0.7670646905899048	4427.59355743789
0.7696225643157959	4795.091390355966
0.7721980810165405	5911.560651777668
0.7747915983200073	6678.062944067441
0.7774031162261963	7148.346960087406
0.7800329327583313	7230.336304112016
0.7826811671257019	8006.239585958296
0.7853479981422424	8455.087726857553
0.7880334854125977	8914.991827449196
0.7907378077507019	9397.180709892467
0.7934610247612	9827.114549749256
0.7962033748626709	10314.310600486137
0.7989648580551147	10989.624632626714
0.801745593547821	11575.915355267221
0.8045456409454346	12195.588605723888
0.8073651194572449	12843.37379495466
0.8102040886878967	13498.547146140498
0.8130625486373901	14200.710806478579
0.8159406185150146	14971.469871092151
0.8188382983207703	15747.47017692391
0.8217556476593018	16601.11980125244
0.8246926665306091	17470.263648139637
0.8276493549346924	18392.390287029233
0.8306257724761963	19359.034812764432
0.8336219191551208	20390.276383854
0.8366377949714661	21444.224624755625
0.8396733403205872	22566.86774658163
0.8427285552024841	23762.913848392305
0.8458034992218018	24985.586987969586
0.8488980531692505	26289.800335560878
0.8520121574401855	27659.994530521177
0.8551458716392517	29086.563532832264
0.8582990765571594	30589.28596701919
0.8614717125892639	32074.35919417104
0.8646637797355652	33684.88880599486
0.8678751587867737	35489.52947093308
0.8711057901382446	37290.503301975026
0.8743556141853333	39207.31410067142
0.87762451171875	41211.44869720002
0.8809124231338501	43300.00447180713
0.8842192888259888	45492.07451179624
0.8875449895858765	47781.88278228123
0.8908893465995789	50058.397615810274
0.894252359867096	52536.857374768144
0.8976338505744934	54662.09266270681
0.9010337591171265	57819.66199044874
0.9044519662857056	60862.21241229179
0.9078882932662964	63795.20152473065
0.9113426208496094	66870.30632721914
0.914814829826355	70141.5884986639
0.9183048605918884	73436.93695204116
0.9218124747276306	77081.06147370028
0.925337553024292	80276.30358392787
0.9288799166679382	82294.16317644923
0.9324395060539246	83001.02111484915
0.9360161423683167	89046.89937601161
0.9396095871925354	96386.07059288562
0.943219780921936	101072.63972273057
0.9468464851379395	102888.48982121589
0.9504896402359009	107606.01783332952
0.9541489481925964	114149.45224373472
0.9578243494033813	120118.88803440252
0.9615156054496765	125175.3153857936
0.9652225375175476	131650.97659095871
0.9689450263977051	139252.76016789555
0.9726828336715698	143886.48603051127
0.9764357805252075	152018.25970140306
0.9802037477493286	158488.10308616667
0.983986496925354	166397.73277034378
0.9877838492393494	174037.70321212176
0.9915955662727356	181959.099170208
0.9954215884208679	190158.68061097778
0.9992615580558777	198350.84191156444
1.0031154155731201	206689.55817722742
1.0069829225540161	215480.57151229458
1.0108637809753418	224630.01632835876
1.0147579908370972	234026.62391707057
1.018665075302124	243783.08133161216
1.022585153579712	253874.44783150477
1.0265177488327026	264281.1902548536
1.0304628610610962	275051.9334365967
1.0344202518463135	286184.05295002525
1.0383895635604858	297676.9856101542
1.0423706769943237	309562.24856427585
1.0463634729385376	321790.38893706695
1.0503677129745483	334405.0778272287
1.0543830394744873	347509.82916935906
1.058409333229065	360915.00902740756
1.0624464750289917	375520.2188852916
1.0664942264556885	390127.1150884238
1.0705522298812866	405003.1021778716
1.0746204853057861	420437.81921294756
1.0786986351013184	435862.63665216556
1.0827864408493042	452234.26306127384
1.086883783340454	468367.4507731087
1.0909905433654785	484837.1624120473
1.0951062440872192	501027.1299322275
1.0992310047149658	513748.99845730915
1.10336434841156	526367.4579565607
1.1075061559677124	541894.0914814902
1.1116561889648438	549135.7743357184
1.115814208984375	509506.0240986313
1.1199802160263062	565185.6600973997
1.124153733253479	528578.509854698
1.1283347606658936	624595.5332636889
1.1325229406356812	643302.4774425226
1.1367181539535522	668910.6190144401
1.1409201622009277	721108.4629553811
1.145128846168518	714111.27121999
1.1493438482284546	699060.6619501779
1.1535650491714478	772700.040627865
1.1577922105789185	812542.316571209
1.1620250940322876	830512.7516109662
1.1662636995315552	862082.7423026944
1.170507550239563	883272.1014672777
1.174756646156311	919099.5676017452
1.1790107488632202	959898.0347018655
1.1832695007324219	993842.2739651855
1.1875330209732056	1024236.9160480977
1.191800832748413	1059000.635365732
1.1960728168487549	1091578.328672887
1.2003488540649414	1124165.8141375529
1.2046287059783936	1160535.2901039985
1.2089121341705322	1193383.8520040214
1.2131990194320679	1226798.7177708724
1.2174891233444214	1265512.1190723088
1.2217823266983032	1301439.111314004
1.2260783910751343	1339049.5902696264
1.230377197265625	1376230.60288325
1.2346785068511963	1416343.5200531785
1.238982081413269	1455583.086808502
1.2432878017425537	1495128.6177004047
1.2475954294204712	1534916.3077883061
1.2519049644470215	1576421.2695776848
1.256216049194336	1618499.040331948
1.2605286836624146	1660892.3175649063
1.2648425102233887	1704807.1702688937
1.2691574096679688	1747859.140198199
1.2734732627868652	1791195.9980325191
1.2777899503707886	1838041.1217410888
1.2821072340011597	1879475.512241162
1.2864248752593994	1924659.853362409
1.2907428741455078	1971241.002043526
1.2950609922409058	1997091.3518560478
1.2993791103363037	2054468.4817975725
1.303696870803833	2109091.1380290342
1.3080145120620728	2164979.7776887785
1.3123314380645752	2210932.0405570464
1.3166478872299194	2256834.4631120795
1.3209635019302368	2305983.6152185956
1.3252781629562378	2355723.4809088553
1.3295916318893433	2380081.3320110426
1.3339040279388428	2351784.1334845866
1.3382149934768677	1967325.2944068147
1.3425244092941284	1768350.1213727526
1.3468321561813354	1557616.6472215108
1.3511382341384888	1723581.8381530098
1.3554422855377197	1500155.8232486304
1.3597444295883179	1399053.6641821796
1.3640443086624146	1819718.5684151489
1.3683418035507202	1895637.4166350127
1.3726370334625244	2196500.0301969936
1.3769296407699585	2273993.5919443932
1.381219506263733	2095634.2236196445
1.3855066299438477	1789440.62215962
1.3897908926010132	2118113.682247186
1.3940720558166504	1934262.6646432301
1.3983501195907593	2192569.3904969534
1.4026249647140503	2449129.827708299
1.4068963527679443	2492881.1956256926
1.4111642837524414	2519037.4582831967
1.4154287576675415	2437099.941595641
1.419689416885376	2157931.2802307024
1.4239463806152344	2113389.1095775454
1.4281994104385376	2847511.7857146165
1.4324485063552856	2510246.586342527
1.436693549156189	2982982.331726396
1.440934419631958	2874497.889228249
1.4451709985733032	3130736.438953758
1.449403166770935	3287318.0521053504
1.453631043434143	3392973.6109026475
1.4578542709350586	3844906.8026423804
1.4620729684829712	3776887.8326517763
1.4662868976593018	4007009.967468475
1.4704961776733398	4049384.299236871
1.4747005701065063	4129140.691961595
1.4788999557495117	4332316.539340731
1.4830944538116455	4304906.475280422
1.4872838258743286	4505297.2568577435
1.491468071937561	4626493.535046452
1.4956470727920532	4692005.0516613955
1.4998208284378052	4843312.868472586
1.5039892196655273	4946369.027885718
1.5081522464752197	5044957.530643594
1.5123097896575928	5175625.639676981
1.5164618492126465	5281036.970854702
1.5206083059310913	5384949.840905322
1.5247491598129272	5498766.442727994
1.5288842916488647	5483112.47718605
1.5330137014389038	5713703.555173199
1.5371372699737549	5832460.601357013
1.541254997253418	5914555.697878496
1.545366883277893	5990518.459869474
1.5494728088378906	6096729.7732471125
1.5535727739334106	6200568.876639857
1.5576666593551636	6291781.366861186
1.561754584312439	6360658.887229562
1.5658363103866577	6479032.578543415
1.5699119567871094	6577281.730685862
1.5739814043045044	6675487.489155101
1.5780447721481323	6774838.202991448
1.582101821899414	6857116.920845894
1.5861525535583496	6928028.893110628
1.5901970863342285	7029175.570520953
1.5942351818084717	7123921.581130077
1.5982669591903687	7217715.634631617
1.6022924184799194	7310989.889694538
1.606311559677124	7397348.898826008
1.6103241443634033	7491761.420832848
1.6143304109573364	7580826.162237451
1.6183301210403442	7665255.3769342555
1.6223233938217163	7683469.527071564
1.6263102293014526	7655710.544066527
1.6302905082702637	7595362.769693707
1.634264349937439	7810248.714594628
1.638231635093689	8064018.022235258
1.6421923637390137	8154655.939616368
1.646146535873413	8215493.28335019
1.6500942707061768	8303859.712908993
1.6540353298187256	8348390.333186835
1.6579699516296387	8377338.035374524
1.661897897720337	8552116.050216833
1.6658192873001099	8119200.427433379
1.6697341203689575	8270703.376073651
1.6736423969268799	8855574.593147505
1.677544116973877	8908966.557657184
1.6814392805099487	8929271.861975897
1.6853278875350952	8946190.403983785
1.6892099380493164	9199596.360744836
1.6930854320526123	8843145.326349089
1.696954369544983	9143931.374492092
1.7008168697357178	8870594.099698221
1.7046726942062378	9042660.897518188
1.708522081375122	9321780.012348343
1.712364912033081	9698069.164220005
1.7162011861801147	9825834.024843482
1.7200311422348022	9801012.297026712
1.723854422569275	9491953.926280491
1.7276713848114014	9510894.95651838
1.731481909751892	9525859.503727868
1.7352858781814575	9440363.425477019
1.7390835285186768	9923093.332181953
1.7428747415542603	9975544.759379515
1.7466596364974976	10121603.783519996
1.7504380941390991	10297538.325327493
1.7542102336883545	9646507.925363049
1.7579760551452637	9713412.514466872
1.7617355585098267	9618943.03042194
1.7654887437820435	9210063.682600636
1.7692357301712036	9128704.156161426
1.7729763984680176	9192085.964098733
1.776710867881775	7853865.779804244
1.7804391384124756	8613003.690119931
1.7841613292694092	7535713.391479871
1.7878772020339966	7694340.37339515
1.7915871143341064	7199389.153124506
1.7952908277511597	7954443.81778937
1.7989884614944458	7821038.322998246
1.8026801347732544	6479500.277845427
1.806365728378296	6757997.771890856
1.8100452423095703	6163088.489874881
1.8137187957763672	7768111.547833797
1.817386507987976	8283950.301378445
1.8210482597351074	7748863.76518336
1.8247040510177612	9260504.932210576
1.828354001045227	8369949.889386809
1.8319982290267944	7973455.271394823
1.8356364965438843	8079764.94445482
1.8392690420150757	7901741.0829751
1.8428958654403687	8283876.584797261
1.8465168476104736	7927724.61065083
1.8501322269439697	7978658.511948532
1.8537418842315674	9096239.116223136
1.8573459386825562	7485046.761567695
1.860944390296936	5690461.629955473
1.864537239074707	5723926.426109753
1.8681244850158691	5790776.534680958
1.871706247329712	6248971.398045181
1.8752825260162354	7341144.812268442
1.8788533210754395	9471784.066049658
1.8824186325073242	9430868.05703594
1.8859784603118896	8743607.889175167
1.8895330429077148	8828094.365208935
1.8930821418762207	9266196.851230789
1.8966259956359863	9556452.030038027
1.9001644849777222	8400159.356950877
1.9036977291107178	8780209.799850963
1.9072256088256836	10652091.551233219
1.9107483625411987	10393826.644772364
1.9142658710479736	8499937.300407704
1.9177782535552979	10645744.55867384
1.9212853908538818	9050243.067962384
1.9247875213623047	8857309.68685616
1.9282845258712769	9987849.020881116
1.9317764043807983	9324016.962449946
1.9352631568908691	9828993.952022491
1.9387450218200684	6260190.968751552
1.942221760749817	7675278.415637386
1.9456936120986938	8111777.98473105
1.9491604566574097	8301921.126391451
1.952622413635254	10124265.047629436
1.956079363822937	7918589.965170019
1.959531545639038	7846840.205306144
1.962978720664978	8643623.505566467
1.966421127319336	11098139.753614154
1.9698586463928223	11144940.420449473
1.9732913970947266	11244437.979370793
1.9767193794250488	10993227.595247041
1.9801424741744995	11175486.316751417
1.9835609197616577	11971990.429131657
1.9869745969772339	12321711.383413428
1.990383505821228	10236087.3688315
1.9937876462936401	11918419.40872105
1.9971871376037598	12331632.10129534
2.000581979751587	11374733.871394131
2.003972291946411	12753022.263444033
2.007357597351074	13633549.022296587
2.0107386112213135	13966127.955209654
2.0141148567199707	14953402.946336275
2.017486572265625	14255917.411177704
2.0208535194396973	14971844.842254743
2.0242159366607666	15468573.197825437
2.027573823928833	14882466.22414901
2.0309269428253174	14497054.738296345
2.034275770187378	15530081.308492366
2.0376198291778564	15833857.5993075
2.040959596633911	15906451.403951522
2.044294595718384	15858046.470728584
2.0476250648498535	15221245.912308998
2.0509510040283203	15079243.895675765
2.054272413253784	15748733.357286872
2.057589530944824	15842357.53655996
2.0609018802642822	15438424.803825542
2.0642096996307373	15783795.763203302
2.0675129890441895	16080966.03859242
2.0708119869232178	16307926.816625904
2.074106216430664	16487805.915777149
2.0773961544036865	16575746.448528491
2.080681324005127	16649347.772779519
2.0839622020721436	16613805.644992903
2.087238311767578	16542541.70319637
2.090510129928589	16661400.372998787
2.0937774181365967	16735625.299929334
2.0970399379730225	16785565.721678436
2.1002981662750244	16784840.9858369
2.1035518646240234	16900421.833369035
2.1068007946014404	16898105.84419215
2.1100454330444336	16619289.491355339
2.1132853031158447	16385102.695285242
2.116520881652832	16650352.78832978
2.1197516918182373	16980143.494738344
2.1229779720306396	17113681.246288355
2.12619948387146	17139747.740964662
2.1294167041778564	17151490.915453207
2.132629156112671	17201834.691050716
2.1358368396759033	17268995.258039355
2.139039993286133	17296575.858127087
2.1422386169433594	17289629.069995146
2.145432472229004	17303693.196386445
2.1486217975616455	17276830.201252177
2.151806354522705	17129876.83485101
2.1549863815307617	16823109.823045176
2.1581614017486572	17120166.833380505
2.16133189201355	17309918.545995187
2.1644976139068604	17387339.00121753
2.167658567428589	17464861.790325154
2.1708147525787354	17439330.323820997
2.173966407775879	17360817.35739929
2.1771130561828613	17490399.53486098
2.1802549362182617	17576197.423328444
2.183391809463501	17594772.106171113
2.1865241527557373	17583164.271860648
2.1896514892578125	17571561.774360247
2.1927738189697266	17583845.848991364
2.1958916187286377	17415920.398642622
2.1990041732788086	16868730.188198283
2.2021119594573975	16833591.513715345
2.2052149772644043	17250931.472074315
2.208312749862671	17586603.714105975
2.2114057540893555	17654294.468667418
2.214493751525879	17386495.54765751
2.217576742172241	17118031.369401246
2.2206547260284424	17211318.227358334
2.2237277030944824	16941988.76848882
2.2267956733703613	16541581.53145173
2.2298583984375	16582404.358963449
2.2329163551330566	16840518.33541457
2.235969066619873	17109564.283335015
2.2390167713165283	16455386.27251175
2.2420592308044434	15907806.331605706
2.2450966835021973	16349015.605819706
2.248128890991211	16201855.155133573
2.2511560916900635	15983357.606785145
2.254178285598755	15127764.576228218
2.257194995880127	15299042.608626831
2.260206699371338	16099477.552459458
2.2632133960723877	15877906.290139943
2.266214609146118	16186264.046618022
2.2692108154296875	16599683.836458959
2.2722020149230957	16693858.963539572
2.2751877307891846	16362565.38831744
2.278168201446533	16394398.828630306
2.2811436653137207	17125013.15336794
2.284113883972168	15770631.245451648
2.287078857421875	13942145.61941085
2.290038824081421	14878314.194423717
2.2929933071136475	14735750.632299758
2.295942783355713	14469618.28989119
2.298887014389038	15071603.123087047
2.301826238632202	16013064.143843753
2.304760217666626	16756979.334389009
2.3076889514923096	17261681.219575558
2.310612440109253	17454089.354956746
2.3135311603546143	16603879.28162994
2.3164443969726562	14618783.937659916
2.319352865219116	14636826.475303916
2.322256088256836	14869233.144605523
2.3251543045043945	14655628.77804123
2.328047275543213	15025575.457556576
2.330935478210449	15053755.708133161
2.3338186740875244	14999010.308698803
2.3366971015930176	15090220.87147651
2.3395702838897705	15386930.017099803
2.3424389362335205	15404317.04475693
2.3453025817871094	14499547.104656555
2.348161458969116	13559134.498227362
2.351015567779541	14192856.715708546
2.353865146636963	14717385.577232381
2.3567099571228027	14252931.568373185
2.3595502376556396	14413222.468933564
2.3623859882354736	15640009.29238484
2.3652172088623047	16722971.12978997
2.368043899536133	14879055.796997922
2.370866537094116	12497181.941354502
2.3736846446990967	12137973.976084642
2.3764986991882324	12750633.857818792
2.3793084621429443	14068548.496518318
2.3821144104003906	15005881.298564568
2.384916305541992	15013865.401984667
2.387714147567749	15198345.079113802
2.3905084133148193	16732874.28520158
2.393299102783203	17364875.955040906
2.3960859775543213	16218968.868708562
2.398869514465332	14434782.074226264
2.4016497135162354	13603448.005778082
2.4044265747070312	14337323.803281013
2.407200336456299	15831199.881693201
2.409970998764038	16083579.354119688
2.4127390384674072	15118741.344251253
2.415503978729248	13446070.593019357
2.418266534805298	13133665.747409288
2.4210267066955566	14192910.40608661
2.4237842559814453	14739886.893739926
2.426539897918701	14086282.4528295
2.429293394088745	13927587.54610317
2.4320452213287354	14638160.274028001
2.4347951412200928	13843519.597706938
2.4375438690185547	12748331.6381321
2.440291166305542	13168349.633887602
2.443037271499634	14113309.50597594
2.445782423019409	15491758.358326573
2.4485268592834473	15286637.73155328
2.451270818710327	12931672.645348124
2.454014539718628	12279038.4706704
2.4567582607269287	13326972.421423776
2.4595019817352295	14131327.701591622
2.4622461795806885	14936474.197782828
2.4649908542633057	14221001.013035486
2.4677364826202393	11524284.056332186
2.4704833030700684	10678175.149159465
2.473231554031372	11263518.366946759
2.4759814739227295	11788588.566059958
2.4787333011627197	11435357.116152795
