#wavelength	surface flux
0.8	751.1546619125132
0.8002000000000001	756.0496061654245
0.8004000500000003	759.3426744231377
0.8006001500125003	762.148351654008
0.8008003000500035	765.8455322044896
0.8010005001250161	769.5104159879148
0.8012007502500472	773.8322633646694
0.8014010504376099	777.7954235682093
0.8016014007002193	781.1170651419759
0.8018018010503944	783.8386423790585
0.8020022515006572	787.5137350298603
0.8022027520635323	792.1435008555708
0.8024033027515483	795.450050223033
0.8026039035772362	797.0252980080342
0.8028045545531306	800.4188510384737
0.8030052556917691	802.039820079222
0.803206007005692	809.9710146781302
0.8034068085074435	814.8941790393097
0.8036076602095705	818.422674863485
0.8038085621246229	822.4382147131133
0.8040095142651542	826.0176703728946
0.8042105166437206	829.5419161106153
0.8044115692728815	832.71262031462
0.8046126721651998	834.7315919674779
0.8048138253332411	841.0437265356979
0.8050150287895745	845.7361413857877
0.805216282546772	849.6162636636606
0.8054175866174087	853.3099076417963
0.8056189410140631	857.2239727709408
0.8058203457493168	861.2493530175716
0.8060218008357541	864.9505506758642
0.8062233062859632	867.8501258633713
0.8064248621125346	873.1308627778814
0.806626468328063	877.2828680641883
0.8068281249451449	880.5227829160257
0.8070298319763813	885.036860738292
0.8072315894343755	888.7171561730203
0.8074333973317341	891.3932002308437
0.8076352556810671	897.5872025813907
0.8078371644949874	902.2884243873154
0.8080391237861113	906.3391492840657
0.8082411335670578	910.291810969284
0.8084431938504498	914.1963633302503
0.8086453046489125	918.6645565084597
0.8088474659750746	922.1104373424309
0.8090496778415686	925.527809034746
0.809251940261029	928.8960758983117
0.8094542532460944	927.9221377835108
0.8096566168094059	931.3646408020547
0.8098590309636085	942.5762014205552
0.8100614957213493	947.2931707549233
0.8102640110952797	950.1630133277791
0.8104665770980536	956.3636083025935
0.8106691937423283	956.1926046825321
0.8108718610407639	932.8912529521212
0.8110745790060241	923.3898781466918
0.8112773476507757	961.1874440867458
0.8114801669876885	962.2097399112175
0.8116830370294355	963.1617711944788
0.8118859577886929	983.852222922066
0.8120889292781401	991.8094505273616
0.8122919515104597	996.8704437800142
0.8124950244983374	1002.4280911072617
0.8126981482544621	1006.5560099529672
0.8129013227915257	1010.462048679918
0.8131045481222237	1014.9532973214702
0.8133078242592543	1015.8923396219452
0.8135111512153191	1004.6641940626432
0.813714529003123	1012.6347504178933
0.8139179576353739	1030.289776154444
0.8141214371247829	1032.8148625115132
0.8143249674840641	1024.1569273403209
0.814528548725935	996.8750955367185
0.8147321808631167	1020.2763859383651
0.8149358639083326	1047.0950970578645
0.8151395978743097	1033.7235754531673
0.8153433827737784	1051.2027129940393
0.8155472186194719	1069.8691553800359
0.8157511054241268	1076.1736732833863
0.815955043200483	1080.107743849115
0.8161590319612831	1086.5435825941413
0.8163630717192736	1090.0486588818812
0.8165671624872033	1096.0032762213875
0.8167713042778252	1102.9813786849484
0.8169754971038948	1108.0483849973448
0.8171797409781707	1111.2399822602406
0.8173840359134155	1117.303035165286
0.8175883819223938	1122.6127442629363
0.8177927790178745	1127.0948373756826
0.8179972272126291	1126.9737114808115
0.8182017265194322	1107.026971682387
0.8184062769510622	1030.5082844099584
0.8186108785203001	1121.647525395632
0.8188155312399301	1152.2458147436118
0.8190202351227402	1153.7786983757082
0.819224990181521	1163.855315067283
0.8194297964290664	1167.6864451456431
0.8196346538781738	1167.2032194507622
0.8198395625416434	1172.7849358189612
0.8200445224322789	1175.187234966275
0.820249533562887	1189.1892563769998
0.8204545959462778	1195.8476128602206
0.8206597095952644	1201.4227462316326
0.8208648745226633	1206.3466916533
0.8210700907412941	1210.7919878982918
0.8212753582639793	1217.8368769241097
0.8214806771035456	1223.1753834701758
0.8216860472728215	1228.6243912902205
0.8218914687846397	1235.7740531530314
0.822096941651836	1241.3644799547328
0.822302465887249	1246.3991191714144
0.8225080415037209	1251.9197448900436
0.8227136685140968	1243.639849369155
0.8229193469312254	1188.7421343426336
0.8231250767679583	1197.8711018331674
0.8233308580371503	1244.4897833223763
0.8235366907516598	1244.814046041036
0.8237425749243477	1248.0561183194063
0.8239485105680789	1277.9778572922821
0.824154497695721	1296.2395741752005
0.824360536320145	1303.6160529175816
0.8245666264542252	1310.2102104300413
0.8247727681108388	1315.7170468397642
0.8249789613028664	1317.3946157648113
0.8251852060431922	1326.1882055162644
0.825391502344703	1334.6815855368004
0.8255978502202894	1340.9014924697997
0.8258042496828445	1346.791771216914
0.8260107007452654	1351.3643955014963
0.8262172034204517	1351.6344572478438
0.8264237577213068	1333.4662074526204
0.8266303636607373	1301.8325705811585
0.8268370212516525	1362.8080365908002
0.8270437305069654	1383.8790428788222
0.8272504914395923	1389.252013964926
0.8274573040624523	1395.0025779171265
0.8276641683884679	1400.781624560284
0.8278710844305652	1406.3087356496599
0.8280780522016729	1414.0334440020715
0.8282850717147234	1420.2782795098683
0.8284921429826521	1427.020913556411
0.8286992660183978	1431.2730424502756
0.8289064408349024	1430.2729821672933
0.8291136674451112	1435.9689044846748
0.8293209458619727	1449.1696901618677
0.8295282760984382	1457.4477481179385
0.829735658167463	1460.1520447309435
0.8299430920820048	1467.5308772714518
0.8301505778550254	1477.3247280451594
0.8303581154994891	1485.6329643131924
0.8305657050283641	1492.025521041672
0.8307733464546212	1496.828051821385
0.8309810397912352	1497.7284673351696
0.8311887850511829	1499.2742701393452
0.8313965822474458	1466.382195986606
0.8316044313930077	1477.4970405496297
0.8318123325008561	1523.0841336284407
0.8320202855839813	1539.71208955867
0.8322282906553774	1546.8742273231626
0.8324363477280413	1552.341421804527
0.8326444568149735	1558.944568577884
0.8328526179291771	1566.5549515369767
0.8330608310836596	1572.0278134940522
0.8332690962914304	1575.7396164981117
0.8334774135655034	1584.7166992824623
0.833685782918895	1593.68697033157
0.8338942043646247	1599.7581344565485
0.834102677915716	1607.341556979299
0.834311203585195	1614.6889179228003
0.8345197813860912	1621.4453304595238
0.8347284113314379	1630.0953343510325
0.8349370934342709	1637.4650715739049
0.8351458277076294	1645.1046364732863
0.8353546141645565	1652.3517103621928
0.8355634528180977	1656.5507178523023
0.8357723436813022	1663.9944209209555
0.8359812867672226	1669.462582619695
0.8361902820889144	1676.9444757023214
0.8363993296594368	1686.8047533277827
0.8366084294918518	1692.1059971411116
0.8368175815992247	1704.2515004637391
0.8370267859946247	1709.4838075105138
0.8372360426911234	1711.3683725947858
0.8374453517017962	1723.0265340358233
0.8376547130397217	1728.7068233853145
0.8378641267179816	1741.080260321301
0.8380735927496613	1750.859556506501
0.8382831111478488	1753.19339110784
0.8384926819256358	1745.7089365065233
0.8387023050961173	1754.7247547040663
0.8389119806723914	1774.8493216898157
0.8391217086675596	1787.001293061277
0.8393314890947265	1798.1067786712556
0.8395413219670003	1805.8671014228994
0.8397512072974922	1811.9806081142833
0.8399611450993165	1815.372612178238
0.8401711353855914	1805.79476864635
0.8403811781694378	1823.0549209839032
0.8405912734639802	1843.3417671553846
0.8408014212823464	1852.08169997609
0.8410116216376671	1861.267065839668
0.8412218745430766	1869.2163412523696
0.8414321800117124	1879.004407855928
0.8416425380567154	1887.2570115788278
0.8418529486912297	1895.3004335345333
0.8420634119284025	1903.3538209722592
0.8422739277813847	1912.2667309657236
0.8424844962633302	1920.6537120215016
0.842695117387396	1926.5971191828762
0.8429057911667428	1932.1310407907006
0.8431165176145345	1942.628032050398
0.8433272967439382	1954.151880753619
0.8435381285681244	1962.8809642649455
0.8437490131002665	1971.5303522314014
0.8439599503535415	1977.903819811843
0.84417094034113	1977.3513748849298
0.8443819830762154	1989.8169939422519
0.8445930785719846	1987.346003252909
0.8448042268416277	2010.392803421017
0.8450154278983382	2024.1327021185675
0.8452266817553128	2031.9731522013585
0.8454379884257517	2039.3994002779668
0.8456493479228583	2047.9968815658947
0.845860760259839	2059.8322073914424
0.846072225449904	2067.7408017968723
0.8462837435062666	2062.127078589331
0.8464953144421433	2040.1050528653095
0.8467069382707537	2058.6103493773694
0.8469186150053215	2098.1824984371597
0.847130344659073	2112.550218409915
0.8473421272452377	2121.564332134959
0.8475539627770492	2125.9536507973294
0.8477658512677435	2138.8985223599957
0.8479777927305605	2147.9270929420695
0.8481897871787432	2154.402400783127
0.848401834625538	2167.668247009893
0.8486139350841944	2179.715289859831
0.8488260885679657	2184.5142814086134
0.8490382950901076	2184.5750557233223
0.8492505546638802	2200.755135947767
0.8494628673025462	2213.442206590117
0.8496752330193721	2226.308011037144
0.8498876518276269	2237.340901972461
0.8501001237405839	2246.2661172253434
0.8503126487715191	2255.243065228114
0.850525226933712	2265.244737817888
0.8507378582404455	2275.77879631592
0.8509505427050057	2285.388550199566
0.8511632803406821	2295.3635394834223
0.8513760711607672	2305.6014285245838
0.8515889151785576	2315.6336713733854
0.8518018124073523	2325.3033708327685
0.8520147628604541	2332.515934483632
0.8522277665511693	2335.6320207674285
0.8524408234928071	2354.3074729556934
0.8526539336986805	2366.6387377620117
0.8528670971821053	2376.7765183953807
0.8530803139564007	2386.7621649146085
0.8532935840348901	2396.681330500467
0.8535069074308987	2406.954423924367
0.8537202841577566	2418.300855259316
0.8539337142287962	2426.7216573018713
0.8541471976573534	2428.556686058962
0.8543607344567677	2444.6175435258615
0.8545743246403821	2460.3395774289907
0.8547879682215422	2471.4193518364195
0.8550016652135977	2480.930755235429
0.8552154156299011	2490.909332479744
0.8554292194838088	2501.442038751098
0.8556430767886797	2510.3589891046768
0.855856987557877	2524.4667904827247
0.8560709518047664	2536.1961951694
0.8562849695427177	2546.5713643349222
0.8564990407851035	2557.4668653526815
0.8567131655452999	2568.9259993173578
0.8569273438366862	2580.139374681289
0.8571415756726455	2590.0662968872425
0.8573558610665638	2596.81136956078
0.8575702000318304	2610.860268078153
0.8577845925818384	2622.9985622721806
0.857999038729984	2635.370515277265
0.8582135384896665	2647.145026993072
0.858428091874289	2657.852671264192
0.8586426988972576	2668.801454016609
0.8588573595719821	2680.6795134830118
0.8590720739118751	2692.2626862626357
0.8592868419303532	2702.306390018974
0.8595016636408359	2714.0649232480287
0.8597165390567462	2727.3211827246328
0.8599314681915105	2739.1715375299295
0.8601464510585584	2750.6430586941424
0.860361487671323	2762.045894602123
0.8605765780432408	2773.9420488307665
0.8607917221877518	2784.333046294523
0.8610069201182988	2796.2812118845973
0.8612221718483286	2808.790222139186
0.8614374773912907	2820.62743094349
0.8616528367606385	2832.120254435614
0.8618682499698288	2838.956368415682
0.8620837170323213	2849.6413380844015
0.8622992379615795	2864.36277077644
0.8625148127710699	2871.0943983515162
0.8627304414742627	2882.2680880868215
0.8629461240846313	2901.8998716972496
0.8631618606156526	2916.5028518355366
0.8633776510808066	2930.022892640507
0.8635934954935769	2942.375195918886
0.8638093938674504	2955.054544164257
0.8640253462159173	2961.3367726983697
0.8642413525524714	2962.9620087575936
0.8644574128906095	2987.744075736527
0.8646735272438323	2995.5169990429836
0.8648896956256433	3002.4419692569027
0.8651059180495498	3026.481691910076
0.8653221945290621	3043.203942856293
0.8655385250776946	3054.9229308009585
0.8657549097089641	3069.5925109972513
0.8659713484363913	3083.4563710484204
0.8661878412735006	3097.452120748573
0.866404388233819	3109.566628190836
0.8666209893308775	3121.6380448676473
0.8668376445782103	3136.9744596238124
0.8670543539893549	3150.342765949477
0.8672711175778525	3162.7345653316006
0.8674879353572469	3175.643216277354
0.8677048073410862	3190.0900704303135
0.8679217335429217	3203.583854984879
0.8681387139763074	3216.5191994739985
0.8683557486548015	3226.811260093205
0.8685728375919655	3242.0421550752408
0.8687899808013633	3258.1273871620174
0.8690071782965637	3272.2207027404506
0.869224430091138	3285.6069293044116
0.8694417361986609	3298.7049439530488
0.8696590966327107	3310.978793170181
0.869876511406869	3321.0378343539946
0.8700939805347206	3334.506653131855
0.8703115040298544	3354.292438393007
0.870529081905862	3369.9184920541543
0.8707467141763385	3383.9580153307143
0.8709644008548827	3396.271674382055
0.8711821419550964	3408.9197627869776
0.8713999374905854	3422.205676880561
0.871617787474958	3440.062080070104
0.8718356919218269	3452.724315503575
0.8720536508448075	3464.199551655909
0.8722716642575187	3481.2840862709213
0.8724897321735832	3497.8413887684405
0.8727078546066265	3512.2564975753203
0.8729260315702784	3527.6668897879817
0.873144263078171	3543.5572556330226
0.8733625491439405	3558.5446390138623
0.8735808897812266	3572.8482342553975
0.8737992850036719	3582.2494136755245
0.874017734824923	3586.9169828468835
0.8742362392586293	3613.751803162096
0.874454798318444	3630.571267699921
0.8746734120180236	3648.016425989275
0.8748920803710283	3663.780279102376
0.875110803391121	3678.7254064669414
0.8753295810919689	3694.2881514146807
0.875548413487242	3710.9340934533075
0.8757673005906139	3726.51979595227
0.8759862424157616	3740.2659003554472
0.8762052389763657	3754.6288403368735
0.8764242902861098	3771.455143410751
0.8766433963586814	3786.003046453942
0.8768625572077712	3802.0871669628386
0.8770817728470732	3816.664094060494
0.8773010432902849	3834.8291708650395
0.8775203685511077	3852.896755659796
0.8777397486432454	3869.13965069147
0.8779591835804065	3884.85702059915
0.8781786733763015	3900.730836519766
0.8783982180446457	3916.5232486934074
0.878617817599157	3931.1756885855784
0.8788374720535569	3949.253814608076
0.8790571814215703	3964.6840926261098
0.8792769457169257	3980.45528592486
0.879496764953355	3999.186653026528
0.8797166391445934	4016.3126984658015
0.8799365683043796	4032.6847611334756
0.8801565524464557	4049.18512179851
0.8803765915845676	4066.2044460839516
0.8805966857324639	4082.945636878614
0.880816834903897	4097.544759531143
0.881037039112623	4110.658466743692
0.8812572983724012	4127.694027734706
0.8814776126969944	4142.347227314829
0.8816979821001687	4165.598552128039
0.8819184065956938	4185.770794849247
0.8821388861973429	4201.6927220516955
0.8823594209188923	4218.21862084028
0.882580010774122	4237.267401082712
0.8828006557768155	4255.706239117626
0.8830213559407598	4272.790809341977
0.8832421112797452	4289.872174592292
0.8834629218075651	4299.765459330972
0.8836837875380171	4305.947613852982
0.8839047084849018	4331.41929588451
0.884125684662023	4360.451599378938
0.8843467160831886	4380.135444822955
0.8845678027622095	4398.476571110326
0.8847889447129001	4415.869752511658
0.8850101419490785	4433.021277701319
0.8852313944845657	4451.5080295926955
0.885452702333187	4470.886069629922
0.8856740655087704	4486.545400241348
0.8858954840251476	4491.110704584865
0.8861169578961539	4510.986742087831
0.886338487135628	4542.068328431983
0.886560071757412	4563.192955910092
0.8867817117753515	4582.790675693567
0.8870034072032955	4601.612402755095
0.8872251580550963	4619.776008311495
0.8874469643446101	4636.362928786765
0.8876688260856963	4653.171811139958
0.8878907432922178	4675.26855752732
0.8881127159780409	4692.95075583519
0.8883347441570356	4703.373019528323
0.8885568278430749	4722.481387578228
0.8887789670500358	4749.721943671044
0.8890011617917983	4771.062271369057
0.8892234120822464	4793.2305663011175
0.8894457179352669	4813.481338849589
0.8896680793647509	4831.426698365141
0.8898904963845921	4844.157146820093
0.8901129690086883	4864.1012135270485
0.8903354972509405	4890.566127350461
0.8905580811252535	4910.623216246668
0.8907807206455347	4872.919448965767
0.8910034158256963	4718.975099656065
0.8912261666796527	4880.069436243836
0.8914489732213227	4978.478744761849
0.8916718354646282	4971.518544345772
0.8918947534234944	4966.896840076733
0.8921177271118502	4939.873305769745
0.8923407565436284	4818.670655940296
0.8925638417327644	4967.760037188477
0.8927869826931977	5097.208734324506
0.8930101794388711	5123.802278972466
0.8932334319837308	5032.417350912669
0.8934567403417267	4945.4723200217
0.8936801045268123	5145.895908356119
0.8939035245529441	5204.067955528119
0.8941270004340824	5202.868529461777
0.894350532184191	5131.517219885214
0.8945741198172371	5200.781937565923
0.8947977633471915	5295.645782396226
0.8950214627880284	5326.18063085746
0.8952452181537254	5342.248397368845
0.8954690294582639	5360.035647330872
0.8956928967156286	5385.344517248519
0.8959168199398075	5384.220529175803
0.8961407991447926	5392.302486212811
0.8963648343445789	5350.43599298929
0.896588925553165	5210.15392460741
0.8968130727845534	5335.952050288031
0.8970372760527496	5347.112595128967
0.8972615353717629	4693.390567618361
0.8974858507556059	4571.8970695403505
0.8977102222182949	5426.909278289628
0.8979346497738496	5614.713584827057
0.8981591334362931	5636.296513736819
0.8983836732196523	5656.003127418889
0.8986082691379572	5659.630447585272
0.8988329212052417	5157.744357570952
0.8990576294355432	4419.11357196354
0.8992823938429022	5089.410641465533
0.8995072144413631	5612.20150957159
0.8997320912449734	5776.268797321394
0.8999570242677847	5817.426345533197
0.9001820135238516	5834.5158858237555
0.9004070590272328	5692.874552595695
0.9006321607919896	5360.814398635709
0.9008573188321878	5555.636407926158
0.9010825331618959	5575.892871145894
0.9013078037951865	5880.5474546742935
0.9015331307461353	5958.016015104111
0.9017585140288219	5991.381275647824
0.9019839536573292	6029.972598781325
0.9022094496457435	6059.806687218906
0.9024350020081551	6081.42386661454
0.9026606107586572	6102.428666440613
0.902886275911347	6120.561550768321
0.9031119974803249	6114.37650842757
0.9033377754796951	6148.896794472066
0.903563609923565	6200.685096483278
0.903789500826046	6215.681881756322
0.9040154482012526	6195.614490391626
0.904241452063303	6264.861923472918
0.9044675124263188	6276.36616304824
0.9046936293044254	6274.212065349457
0.9049198027117517	6314.454885483243
0.9051460326624297	6361.641569908867
0.9053723191705955	6404.972225919097
0.9055986622503881	6435.849815249546
0.9058250619159507	6462.094337033324
0.9060515181814298	6479.890511660902
0.9062780310609752	6452.046879956091
0.9065046005687405	6466.145406839672
0.906731226718883	6531.276434170743
0.9069579095255627	6567.064943958144
0.907184649002944	6577.4157562255195
0.907411445165195	6625.762359417096
0.9076382980264862	6640.7748884337125
0.907865207600993	6646.549208117242
0.9080921739028933	6683.274966731363
0.9083191969463691	6709.131649286963
0.9085462767456058	6694.739866870144
0.9087734133147922	6653.127089818059
0.9090006066681211	6779.63281991977
0.909227856819788	6835.532973009882
0.9094551637839932	6851.256907332979
0.9096825275749393	6888.651537640376
0.9099099482068329	6853.614023545409
0.9101374256938848	6873.878110393176
0.9103649600503083	6862.9584355257
0.9105925512903209	6964.023586390511
0.9108201994281437	6974.126750701394
0.9110479044780008	7010.239142825972
0.9112756664541204	7082.989963680635
0.911503485370734	7121.569694787985
0.9117313612420768	7137.1232868297475
0.9119592940823873	7173.8835180104315
0.912187283905908	7215.989675779938
0.9124153307268845	7245.203203786475
0.9126434345595664	7273.194720842186
0.9128715954182063	7299.76308443994
0.9130998133170609	7318.374289814866
0.9133280882703902	7314.100013193998
0.913556420292458	7350.0011867374815
0.9137848093975312	7387.726134905478
0.9140132555998806	7442.30247977433
0.9142417589137806	7450.994196399764
0.9144703193535092	7238.99920639372
0.9146989369333476	7207.672234057994
