#wavelength	surface flux
0.676892	38718.4614615541
0.678297	39679.48968118694
0.679702	40952.69225123142
0.681109	42138.81076343978
0.682517	43218.988820111386
0.683926	44351.293590122914
0.685337	45586.254955434575
0.686749	46639.772146352865
0.688164	47552.74470932822
0.689581	48159.8024625415
0.691	49100.05287420358
0.692422	51551.29875928271
0.693847	52244.77951266123
0.695274	55104.727210122226
0.696705	56776.89663488289
0.698139	57820.09830898063
0.699576	59463.78246672624
0.701017	61676.845051778495
0.702461	63590.772104250165
0.70391	65683.85775397641
0.705362	67569.76364043006
0.706819	69426.32122787474
0.70828	71288.0874784956
0.709745	73105.83822018208
0.711216	75223.62263065242
0.71269	77223.25079911663
0.71417	79289.99413212699
0.715655	81349.7312404019
0.717145	83409.32093024462
0.71864	85836.4803717438
0.72014	88075.49011036655
0.721647	90466.88171174366
0.723158	92924.8835997985
0.724676	95395.67657988929
0.726199	97895.40694701562
0.727728	100468.94486871114
0.729264	103054.70707853467
0.730805	105693.43630022857
0.732353	108469.79022434464
0.733907	110511.18209030243
0.735468	112878.08714778736
0.737035	116140.42719461564
0.738609	118405.0294679265
0.74019	121177.4524256158
0.741777	123632.81842697234
0.743372	126951.40464637686
0.744973	129134.6810546205
0.746582	132501.56354090365
0.748197	135722.13517864695
0.74982	138885.23530110094
0.751451	141032.0717256922
0.753088	143314.1860868922
0.754734	144617.76395005008
0.756386	144631.93857281425
0.758047	142050.9809115773
0.759715	135334.2418544814
0.76139	120469.57232391476
0.763074	90424.02853314548
0.764765	44087.68619290154
0.766464	13965.585773477858
0.768172	21404.3577353386
0.769887	17358.619451423772
0.77161	52181.63816957455
0.773341	116172.62036881266
0.775081	157749.61799381228
0.776829	182361.8897619624
0.778585	190409.60555781098
0.780349	159545.54537064699
0.782121	217661.89878090305
0.783902	233014.8517586514
0.785691	242301.86885512428
0.787489	250724.5291929105
0.789295	259030.51315864603
0.79111	266869.05330254283
0.792933	270901.3000147222
0.794764	230890.2610590165
0.796604	281479.37166571897
0.798453	298761.7147172365
0.80031	307397.46160248097
0.802176	315982.16965695476
0.804051	325132.5398897594
0.805934	333924.7705747267
0.807826	343425.22175291716
0.809727	352678.27657280525
0.811636	361779.1593097961
0.813554	371354.8742373485
0.81548	381760.820919373
0.817416	391976.47259902407
0.81936	402566.92539454525
0.821313	413450.00251411914
0.823274	423253.0396325985
0.825244	435297.60807123
0.827223	446406.32003447466
0.829211	458257.13850200525
0.831208	470119.72647922294
0.833213	482691.55626575986
0.835227	495117.9818291731
0.837249	507741.22964053525
0.83928	520858.84640549024
0.841321	534496.6993080534
0.843369	548371.9991995386
0.845427	562169.2569317996
0.847493	576610.2429300755
0.849567	591290.5932608501
0.851651	606500.4087240936
0.853742	620061.5931088412
0.855843	636680.1066946421
0.857952	652364.622327505
0.86007	667015.3150537849
0.862196	679639.063851916
0.864331	695973.9833447807
0.866474	716148.7436271778
0.868626	734386.0881594076
0.870786	753325.2911259269
0.872955	773498.1499212424
0.875132	793326.7683084718
0.877317	813759.7217783185
0.879511	834651.7473708723
0.881713	855466.0745639777
0.883923	877180.3576164315
0.886142	899275.1408556141
0.888369	921365.6917801324
0.890604	942613.9739475087
0.892847	963954.1109494834
0.895099	988848.913556444
0.897358	1007118.9239414405
0.899626	1033770.214813276
0.901901	1062790.417164961
0.904185	1089309.6319872604
0.906476	1115814.2180597272
0.908776	1142176.5052417761
0.911083	1168009.0994709313
0.913398	1196713.8694056128
0.915721	1223802.7164600776
0.918051	1251581.5436240977
0.92039	1280593.094275771
0.922736	1313561.1680365005
0.925089	1336045.9992226257
0.927451	1352045.218946688
0.929819	1363485.5027171052
0.932195	1376591.3608556876
0.934579	1393085.0634403923
0.93697	1452902.5402219272
0.939369	1523804.1224444758
0.941774	1566743.6945239452
0.944187	1597483.1579464753
0.946607	1606725.7582939602
0.949035	1642459.2737857965
0.951469	1692964.809806249
0.953911	1737289.8456518778
0.956359	1739302.042194042
0.958814	1811585.9078890742
0.961277	1845629.6856861955
0.963746	1900448.8034585435
0.966222	1941213.7385146187
0.968705	1997767.4765138943
0.971194	2032979.7897318308
0.97369	2070852.4118497644
0.976193	2130700.2558996105
0.978702	2181046.982924214
0.981217	2227075.50032101
0.983739	2276959.5649135537
0.986268	2326211.719930437
0.988802	2377546.2424087916
0.991343	2431463.4714165875
0.99389	2481697.414687004
0.996444	2536861.09133575
0.999003	2587439.4404784003
1.00157	2639105.0483331643
1.00414	2694842.552631517
1.00672	2750213.3439297634
1.0093	2805822.2935660584
1.01189	2863101.8365985123
1.01448	2921569.779599923
1.01708	2979486.2930911873
1.01969	3041124.628544397
1.0223	3100209.472010673
1.02492	3161389.521592679
1.02754	3224545.18849323
1.03017	3287446.0163804544
1.0328	3350717.8655014243
1.03544	3415960.578047895
1.03808	3482393.0016665636
1.04073	3547550.1346329525
1.04339	3616747.4501152826
1.04604	3682600.701377299
1.04871	3751018.038879603
1.05138	3822469.566578633
1.05405	3893647.906785956
1.05673	3964622.648802969
1.05941	4035735.6121245488
1.0621	4117281.145665708
1.06479	4198202.68629174
1.06749	4271499.73641521
1.07019	4348975.749358501
1.07289	4429154.027327537
1.0756	4510286.496792524
1.07832	4587363.415439075
1.08104	4671377.601880267
1.08376	4751300.626564814
1.08649	4831189.3275452675
1.08922	4911313.58239743
1.09195	4987074.547444525
1.09469	5064370.990286088
1.09743	5109319.030654297
1.10018	5161089.846761937
1.10293	5215507.64783229
1.10568	5297635.876109486
1.10844	5370556.290105428
1.1112	5364767.6368819205
1.11396	5228388.197204611
1.11673	5334874.207750171
1.1195	5548670.032107963
1.12228	5329404.48343416
1.12505	5336402.745654679
1.12783	5884259.98598428
1.13062	6131511.173330817
1.13341	5863582.863895477
1.1362	6092079.905946208
1.13899	6459622.321676657
1.14178	6582814.147159865
1.14458	6495517.580852417
1.14738	6387632.485409068
1.15019	6596905.973031307
1.153	6946300.246515415
1.1558	6942006.545978892
1.15862	7199685.960234284
1.16143	7269010.732042355
1.16425	7182610.329777104
1.16707	7517064.015541996
1.16989	7547624.535992082
1.17271	7693153.8201770745
1.17554	7851298.814126497
1.17837	7995254.66236372
1.1812	8171277.390186908
1.18403	8277506.815544875
1.18686	8397812.033980148
1.1897	8510011.420175808
1.19253	8677446.360443512
1.19537	8807945.249513557
1.19822	8910362.136970416
1.20106	9061272.407207452
1.2039	9194300.940215938
1.20675	9331974.5282759
1.2096	9454079.007904477
1.21245	9566060.378677612
1.2153	9713990.383823887
1.21815	9853425.389666095
1.221	9982277.6869895
1.22385	10112975.173851328
1.22671	10254563.635836009
1.22957	10387566.31932543
1.23242	10519826.800937615
1.23528	10661028.659955334
1.23814	10805960.821392134
1.241	10941253.315812796
1.24387	11077007.149646942
1.24673	11216087.42515058
1.24959	11352097.293589354
1.25245	11495838.385591056
1.25532	11636612.37240533
1.25818	11779226.01451567
1.26105	11918880.097536769
1.26392	12062529.254973935
1.26678	12204210.840111261
1.26965	12334506.043720372
1.27252	12476892.177240541
1.27538	12633727.94628657
1.27825	12778514.125475198
1.28112	12912505.717001613
1.28399	13024685.70436066
1.28686	13190682.570940083
1.28973	13344944.899548996
1.2926	13456045.235264003
1.29546	13484404.023064494
1.29833	13682301.961062524
1.3012	13877983.3782177
1.30407	14056678.68860854
1.30694	14231750.076359728
1.30981	14375155.599729959
1.31267	14496702.991167348
1.31554	14615607.724520138
1.31841	14671893.049489401
1.32128	14953315.13718238
1.32414	15040575.39173101
1.32701	15153139.921587523
1.32987	15123484.219746022
1.33274	14730259.5902147
1.3356	14304557.210369153
1.33847	12013132.271114051
1.34133	10950475.64109697
1.34419	10434449.457779804
1.34705	9987549.33970082
1.34991	10168936.783636162
1.35277	12386722.763675913
1.35563	9838902.849568924
1.35849	9076758.20197019
1.36135	10286874.65388975
1.3642	11938192.588419432
1.36706	12812252.632680405
1.36991	13071854.145055206
1.37277	13772889.571374383
1.37562	13330309.417878734
1.37847	15092325.37048006
1.38132	13340223.590171956
1.38417	12732272.83854357
1.38701	11068680.409708496
1.38986	12964726.533715406
1.39271	12422505.064329313
1.39555	11313569.046040673
1.39839	13401742.335856315
1.40123	13694827.66092261
1.40407	15019266.01985337
1.40691	15040979.352181504
1.40974	14995541.754916353
1.41258	15044926.937866775
1.41541	14470459.64000097
1.41824	11948351.808838012
1.42107	13299400.878952231
1.4239	12788642.508857755
1.42673	15415777.48632549
1.42955	16053002.890238276
1.43237	14655754.724361869
1.43519	15678251.924667884
1.43801	16730371.378525952
1.44083	15932686.89820697
1.44365	17371602.438924182
1.44646	17813595.6595643
1.44927	18027118.069802612
1.45208	18138968.35995718
1.45489	17145229.613348935
1.45769	20015985.015892994
1.4605	20892446.741773933
1.4633	19394544.14052014
1.4661	20537054.865790565
1.4689	20128524.494601887
1.47169	21433690.624131165
1.47449	21173532.10676843
1.47728	21804233.024690874
1.48007	22092217.608202066
1.48286	21761370.087216005
1.48564	22406096.573807277
1.48842	22807234.33885423
1.4912	23265607.58404264
1.49398	23457402.392469805
1.49676	23472374.441703945
1.49953	24037971.708144166
1.5023	24040342.91620125
1.50507	24682797.455145396
1.50784	24754492.371083908
1.51061	24978419.380554914
1.51337	25337072.08851444
1.51613	25532426.26308695
1.51888	25848139.128280077
1.52164	26157184.389859147
1.52439	26389895.502690967
1.52714	26071957.493146922
1.52989	26348839.85395927
1.53263	27053490.520471398
1.53538	27485373.9794389
1.53812	27608790.11336764
1.54086	27749635.426820543
1.54359	27764309.27147869
1.54632	28128231.99285305
1.54905	28422341.01281294
1.55178	28664929.62684679
1.5545	28852100.2677181
1.55723	28952433.577984083
1.55995	29224555.855201725
1.56266	29438657.029142506
1.56538	29614280.617127854
1.56809	29929371.269068707
1.5708	30064634.995131716
1.57351	30267058.261266798
1.57621	30521999.6731394
1.57891	30641376.14864521
1.58161	30821540.119683184
1.5843	30960907.840642817
1.587	31022192.33471442
1.58969	31281381.957474846
1.59238	31465194.18120151
1.59506	31688180.58318882
1.59774	31902338.086210925
1.60042	32103469.703697216
1.6031	32263666.894703157
1.60577	32401159.736066535
1.60844	32578605.800424043
1.61111	32768838.3491409
1.61378	32931298.80999101
1.61644	33106147.14611094
1.6191	33262596.880458016
1.62176	33298919.87834708
1.62441	33166957.074819632
1.62707	33204478.392377418
1.62971	33102206.294872276
1.63236	33254800.525469698
1.635	33902010.59582247
1.63764	34309793.17495639
1.64028	34410251.72092109
1.64292	34588712.2331075
1.64555	34661242.17798653
1.64818	34834752.957988806
1.65081	35056623.7309594
1.65343	35177919.61509098
1.65605	34935467.50768693
1.65867	35220763.02314587
1.66128	35568538.63303532
1.6639	35551251.22524059
1.66651	34036415.48957897
1.66911	34377535.82751091
1.67172	36014301.55454993
1.67432	36418446.395331256
1.67692	36393945.95854345
1.67951	36621816.9767969
1.68211	36461452.359982744
1.6847	36524558.38817948
1.68728	37113832.67649384
1.68987	37278812.52634971
1.69245	36713520.87258622
1.69503	36538773.52516183
1.6976	37208613.2871256
1.70018	36606366.82254483
1.70275	36758094.954310425
1.70531	37145463.819536604
1.70788	37522615.566864714
1.71044	38233025.566082396
1.713	38600710.523984045
1.71556	38759723.59980669
1.71811	38877391.28466797
1.72066	38606175.796593696
1.72321	37893292.68345125
1.72575	37546863.50193142
1.7283	37788081.215167
1.73084	38147317.83354638
1.73337	37851386.26911296
1.73591	37304116.04835885
1.73844	38088716.55430248
1.74097	37781979.003516346
1.74349	37992720.48839075
1.74602	38481711.27807334
1.74854	39260110.10041631
1.75105	39008039.10978589
1.75357	37205573.86537194
1.75608	36707603.14968433
1.75859	37242908.595298484
1.7611	36773204.591428936
1.7636	35996878.94838971
1.7661	34233023.70485714
1.7686	33875577.19133756
1.7711	36151734.09566127
1.77359	34097755.428758614
1.77608	30185281.3360428
1.77857	32168744.792025972
1.78105	32885521.30322286
1.78354	29954669.480203062
1.78602	28454453.065947384
1.78849	29203417.01397352
1.79097	27642150.43677465
1.79344	29407548.6518815
1.79591	30646138.67618604
1.79837	30895992.23790628
1.80084	25590052.63983829
1.8033	26464095.865440384
1.80576	26675119.905311987
1.80821	23775363.974771094
1.81067	23676579.055499706
1.81312	28446432.503478974
1.81557	33212427.21909434
1.81801	32014828.22951793
1.82046	30883151.881081074
1.8229	33137050.351819396
1.82533	34841666.01542156
1.82777	33105339.7315051
1.8302	32269018.04069697
1.83263	31677541.470522393
1.83506	31484390.601229087
1.83749	31660791.950753443
1.83991	30249406.904912483
1.84233	31005702.68770939
1.84475	31525011.518421903
1.84716	27380033.66201145
1.84957	28082367.77647083
1.85198	33047991.34819026
1.85439	32865727.03148304
1.8568	29419439.314970873
1.8592	25656960.272597276
1.8616	21778343.843088355
1.864	22023508.601764776
1.86639	23236876.98121497
1.86878	22455977.048932925
1.87118	24243044.972229254
1.87356	25514790.83293243
1.87595	28772393.94519294
1.87833	33327583.697274454
1.88071	34370083.19897756
1.88309	33392600.40162024
1.88547	31763806.91361179
1.88784	31646583.71637569
1.89021	31424914.20451602
1.89258	33075428.51164509
1.89494	34886946.55874052
1.89731	34288924.42447843
1.89967	30923685.65729331
1.90203	29811943.304888874
1.90439	32326867.901921585
1.90674	37226503.03306432
1.90909	40252924.27412586
1.91144	35746568.64118589
1.91379	32196587.762499187
1.91613	36036763.400756456
1.91848	38679920.91516267
1.92082	34681696.03180523
1.92315	30478207.47708759
1.92549	34276292.56435368
1.92782	37380475.15346772
1.93015	34926345.497557536
1.93248	34928439.11698009
1.93481	35659409.098442905
1.93713	28801397.895781476
1.93945	22356498.366699964
1.94177	27612729.121579967
1.94409	31290861.593259938
1.94641	29477303.963558342
1.94872	28792217.369081054
1.95103	32893981.120990884
1.95334	34278606.43982898
1.95564	28545277.270801127
1.95795	27672864.488279287
1.96025	29292830.564089596
1.96255	29856769.504654404
1.96484	34111087.06148491
1.96714	37297824.296872966
1.96943	35595249.55438609
1.97172	36146517.02318289
1.97401	37191073.41971676
1.97629	36108457.89016554
1.97858	36622546.64901944
1.98086	35921634.41163915
1.98314	37746946.27233314
1.98541	41572874.39248013
1.98769	39094887.569913924
1.98996	33599798.87077414
1.99223	34333198.62514656
1.9945	38309901.06754954
1.99677	39493693.11636683
1.99903	38388126.60957541
2.00129	38555115.17729625
2.00355	41372801.83758144
2.00581	43386534.92933223
2.00806	41918526.08073731
2.01031	42910045.057631865
2.01256	46806481.25228723
2.01481	47601977.41969983
2.01706	46232688.78488188
2.0193	46734579.517679155
2.02154	48965215.5052193
2.02378	49179475.92881756
2.02602	47298374.75674469
2.02825	46002206.66203611
2.03049	45662248.47578828
2.03272	47932379.73310745
2.03494	50357484.0946213
2.03717	50669137.672647186
2.03939	50502081.58699209
2.04162	50594770.37905335
2.04384	50680510.686093055
2.04605	50019709.230030194
2.04827	48343346.701107614
2.05048	47905502.494933255
2.05269	49017698.267733455
2.0549	50146916.332698144
2.05711	50461773.12161732
2.05931	49014745.85422088
2.06151	48336475.743435115
2.06371	49681236.00810872
2.06591	50922795.15594014
2.06811	51681432.709198594
2.0703	52157346.40807948
2.07249	52513354.254115015
2.07468	52713138.76540086
2.07686	52850096.093883775
2.07905	53068362.55828651
2.08123	53268729.69464473
2.08341	53144896.51840856
2.08559	52570766.84510207
2.08776	52438405.54691585
2.08994	52905093.84791206
2.09211	53151013.27678547
2.09428	53281145.9706747
2.09645	53363919.099778
2.09861	53231010.579278566
2.10077	53275457.91957241
2.10293	53612094.77962717
2.10509	53819891.5155174
2.10725	53624958.186728366
2.1094	52993061.4735409
2.11155	52204036.99499928
2.1137	52070232.48544748
2.11585	52724700.684234366
2.11799	53451344.162809506
2.12013	53946835.08901581
2.12227	54163936.0449678
2.12441	54183466.399900846
2.12655	54167996.625612766
2.12868	54147808.30396442
2.13081	54161401.08367192
2.13294	54320543.9008029
2.13507	54528895.31681463
2.13719	54626811.79578163
2.13931	54614205.40257997
2.14143	54538001.544150986
2.14355	54517933.51202953
2.14567	54569108.43903303
2.14778	54560854.19960394
2.14989	54486524.6159704
2.152	54257393.91416456
2.1541	53854158.44199028
2.15621	53870941.8880761
2.15831	54344870.129226476
2.16041	54585107.667767785
2.16251	54618260.16342989
2.1646	54599179.0756718
2.1667	54658118.79313839
2.16879	54765021.62299566
2.17087	54659751.275343955
2.17296	54489291.59881409
2.17504	54628991.55546064
2.17713	54930095.50278966
2.1792	55076861.87395546
2.18128	55126038.332716495
2.18336	55136422.37300518
2.18543	55087652.79089145
2.1875	54993826.90004427
2.18957	54951240.78314596
2.19163	54993946.448402554
2.1937	55010559.04920645
2.19576	54777740.86326288
2.19782	54064243.13107367
2.19987	53385375.37859451
2.20193	53275905.943138495
2.20398	53727204.19415737
2.20603	54436739.06645102
2.20808	54925135.29520516
2.21012	55113719.36600806
2.21217	55044587.26531624
2.21421	54629801.67489439
2.21625	54136438.60004592
2.21828	53971019.63823808
2.22032	54006852.32247481
2.22235	53822151.815666474
2.22438	53360101.469074816
2.22641	52943617.07469427
2.22843	52874747.10878538
2.23046	53096991.697729334
2.23248	53529726.70395291
2.2345	54005208.52692162
2.23651	53909240.61712039
2.23853	52948499.86623626
2.24054	51946957.35710853
2.24255	52055281.60885406
2.24456	52814868.082070775
2.24657	52848613.225385
2.24857	52416457.155922405
2.25057	51903142.465410896
2.25257	51157626.05772219
2.25457	50004572.525339894
2.25656	50120921.58186899
2.25856	51493157.58375886
2.26055	52108394.96239535
2.26254	51798577.008603916
2.26453	51798306.340062074
2.26651	52438085.69702512
2.2685	53018877.76535169
2.27048	53020309.60511593
2.27246	52999327.72415864
2.27443	52824933.25904539
2.27641	52587814.371766835
2.27838	52963274.19651952
2.28036	53812442.810501784
2.28233	53446522.11516675
2.28429	50629066.36384376
2.28626	47067282.636624925
2.28823	46804750.94952732
2.29019	48802500.25441792
2.29215	49176814.8939037
2.29411	48284610.32353114
2.29607	48034800.506714545
2.29802	48962771.00963152
2.29998	50301691.22781691
2.30193	51885237.9005881
2.30388	52930743.41723703
2.30583	53351090.83612132
2.30778	53124169.965183094
2.30972	53062450.5723378
2.31167	53298387.98135428
2.31361	52337481.024073154
2.31555	49721553.40705601
2.31749	48248327.79809964
2.31943	48401168.78280473
2.32137	47835276.72887781
2.32331	46477933.70873963
2.32524	46502669.30590067
2.32718	47920401.27399071
2.32911	48453299.15180009
2.33104	48276319.240509965
2.33297	47769799.095265955
2.3349	47613157.9775117
2.33683	47941266.01397202
2.33876	48482294.30385827
2.34068	48685326.28586985
2.34261	48482985.38038185
2.34453	47298942.407429
2.34646	45137428.437429115
2.34838	44974427.195076294
2.3503	46582534.86825535
2.35223	48434339.52894021
2.35415	48634035.06919144
2.35607	47496379.52095519
2.35799	46646739.638293624
2.35991	46692091.8560644
2.36183	47916291.79936278
2.36375	49591219.008575596
2.36566	49048447.97966766
2.36758	45058805.64595814
2.3695	41107700.67115727
2.37142	40529684.89506679
2.37334	41510184.790086366
2.37526	42479742.644216314
2.37718	42361167.9450077
2.3791	42184086.34836264
2.38101	43052267.68257768
2.38293	45533783.861164965
2.38485	47233840.775082275
2.38677	48016950.02362824
2.3887	49509011.20615414
2.39062	51651039.305951305
2.39254	52504399.4409014
2.39446	51943916.64800194
2.39639	49419830.83575153
2.39831	46259504.94260528
2.40024	43877435.02191108
2.40216	43283722.65018876
2.40409	43848550.033540376
2.40602	44718395.72667586
2.40795	44941790.46218638
2.40989	45327146.35773714
2.41182	45752372.75839418
2.41376	44485498.70823051
2.4157	42346764.71993527
2.41764	41041382.61238442
2.41958	41734442.10067357
2.42152	42692434.69885334
2.42347	43584864.68972514
2.42542	42707974.75390354
2.42737	41220795.18820473
2.42932	40010031.420660056
