#wavelength	surface flux
0.6450077295303345	2520.7579422156814
0.6472567915916443	2640.9967044001583
0.6494921445846558	2762.0288115000885
0.6517150402069092	2903.1131761388297
0.6539263725280762	3044.206238468602
0.6561272740364075	3191.2631075053646
0.6583186388015747	3331.2448092172845
0.6605015397071838	3516.275057833427
0.6626768708229065	3683.934696939466
0.6648455858230591	3854.6516088847775
0.6670085787773132	4033.199824331968
0.6691668033599854	4212.504656469347
0.6713210344314575	4107.2485711107065
0.6734722256660461	4606.465153262427
0.6756211519241333	4812.029399226094
0.6777685880661011	4996.831087015291
0.6799154281616211	5241.177684617405
0.6820623278617859	5440.052259238882
0.6842101216316223	5621.670851153689
0.6863595843315125	5823.856403335977
0.688511312007904	5877.697816531223
0.6906660795211792	5871.827457322132
0.6928245425224304	6397.915798832872
0.6949873566627502	6792.566472198444
0.6971551775932312	7164.551915337184
0.6993286609649658	7362.326725494619
0.7015084028244019	7849.282729819823
0.7036949396133423	8321.641695740216
0.7058889269828796	8701.678575627246
0.7080909013748169	9065.522776047443
0.710301399230957	9447.63960834012
0.712520956993103	9848.545010093188
0.7147500514984131	10257.013024596772
0.7169892191886902	10674.314158185585
0.7192389369010925	11153.92567611723
0.7214996814727783	11616.695103456534
0.723771870136261	12110.357079688038
0.7260559797286987	12622.672032233995
0.7283523678779602	13148.172687379913
0.7306615710258484	13690.29880559721
0.7329838871955872	14198.761126757652
0.7353196740150452	14142.091105866493
0.7376693487167358	14868.234717470341
0.7400332689285278	15223.79967906262
0.7424117922782898	15607.58433097334
0.7448052167892456	16140.833618820967
0.7472138404846191	17160.097541522373
0.7496379613876343	18256.746766986314
0.7520779371261597	19008.67410022877
0.7545340061187744	20130.614017857457
0.7570064663887024	21160.94685697751
0.7594954967498779	22062.14900092013
0.7620013952255249	22911.719031561726
0.7645244002342224	22321.21761436268
0.7670646905899048	15418.06766494858
0.7696225643157959	18062.609956017743
0.7721980810165405	25967.118385025064
0.7747915983200073	28370.9145459971
0.7774031162261963	29729.33183104825
0.7800329327583313	29521.53142350351
0.7826811671257019	32370.488665442266
0.7853479981422424	33727.92682072071
0.7880334854125977	35066.574559578075
0.7907378077507019	36514.82025029298
0.7934610247612	37467.37463823331
0.7962033748626709	38924.59423945762
0.7989648580551147	40941.37232246872
0.801745593547821	42523.08296641903
0.8045456409454346	44538.75815492375
0.8073651194572449	46583.89775504373
0.8102040886878967	48683.88088448227
0.8130625486373901	50834.862647401445
0.8159406185150146	53056.01876116746
0.8188382983207703	55219.29797669239
0.8217556476593018	57637.2337170343
0.8246926665306091	60041.331733550105
0.8276493549346924	62533.02951964278
0.8306257724761963	65178.23917600804
0.8336219191551208	67941.43975894012
0.8366377949714661	70764.84920547252
0.8396733403205872	73681.72440194784
0.8427285552024841	76793.3548208484
0.8458034992218018	79939.24935958193
0.8488980531692505	83276.75262259369
0.8520121574401855	86630.13568564711
0.8551458716392517	89696.73255098159
0.8582990765571594	93240.8462078217
0.8614717125892639	97032.28793932188
0.8646637797355652	100607.44858065515
0.8678751587867737	104504.49719891709
0.8711057901382446	109441.96087461709
0.8743556141853333	114263.91859638684
0.87762451171875	119232.35653117947
0.8809124231338501	124349.06884546662
0.8842192888259888	129435.67972963408
0.8875449895858765	134867.30418078107
0.8908893465995789	140041.82602837923
0.894252359867096	145722.19210600297
0.8976338505744934	150671.58418828418
0.9010337591171265	157618.93666135863
0.9044519662857056	164158.72847460455
0.9078882932662964	170677.66622236252
0.9113426208496094	177557.9260651173
0.914814829826355	184400.37852802218
0.9183048605918884	191507.1680495297
0.9218124747276306	199037.82167163602
0.925337553024292	206000.71738609177
0.9288799166679382	212670.57925352035
0.9324395060539246	217812.32017443192
0.9360161423683167	225280.78324832005
0.9396095871925354	239534.73897342788
0.943219780921936	249827.045237509
0.9468464851379395	253510.69308993188
0.9504896402359009	263101.41891864187
0.9541489481925964	275969.6570991848
0.9578243494033813	288091.64415954944
0.9615156054496765	296906.16625839524
0.9652225375175476	309766.60869876813
0.9689450263977051	323558.11326920916
0.9726828336715698	333342.36035657476
0.9764357805252075	347573.43624150223
0.9802037477493286	359990.52116924856
0.983986496925354	373784.23642598774
0.9877838492393494	387286.250794427
0.9915955662727356	401792.3330782347
0.9954215884208679	416450.2994663195
0.9992615580558777	431166.40129435994
1.0031154155731201	446022.5959130822
1.0069829225540161	461844.7594586257
1.0108637809753418	478124.5091650633
1.0147579908370972	494815.57711083937
1.018665075302124	511909.5666076916
1.022585153579712	529609.3910048226
1.0265177488327026	547680.5285866946
1.0304628610610962	566319.604971819
1.0344202518463135	585446.6824579124
1.0383895635604858	605092.6334667661
1.0423706769943237	625229.7348385829
1.0463634729385376	645750.5200956315
1.0503677129745483	666466.5079480971
1.0543830394744873	688496.7853725585
1.058409333229065	710665.229441388
1.0624464750289917	735069.805712047
1.0664942264556885	759247.4171775309
1.0705522298812866	783510.763483993
1.0746204853057861	808592.1105322374
1.0786986351013184	833530.8072075667
1.0827864408493042	859767.6445920079
1.086883783340454	885922.566361867
1.0909905433654785	912456.5198657521
1.0951062440872192	938547.2040709723
1.0992310047149658	957326.7685131134
1.10336434841156	988083.8978350378
1.1075061559677124	1023994.9676673111
1.1116561889648438	1052649.1212193978
1.115814208984375	986639.4821284486
1.1199802160263062	1071092.0434485388
1.124153733253479	1045966.6208249341
1.1283347606658936	1143181.2025550774
1.1325229406356812	1206618.5462092496
1.1367181539535522	1217501.2298815597
1.1409201622009277	1283623.0568990295
1.145128846168518	1284284.1242208488
1.1493438482284546	1268553.1039983751
1.1535650491714478	1386732.7804006136
1.1577922105789185	1432088.8485464796
1.1620250940322876	1457786.86238209
1.1662636995315552	1498701.6567871897
1.170507550239563	1524673.5233859112
1.174756646156311	1582889.6249135938
1.1790107488632202	1630197.111659786
1.1832695007324219	1676508.3971775405
1.1875330209732056	1714644.5874972225
1.191800832748413	1766458.2300968005
1.1960728168487549	1808124.8972871406
1.2003488540649414	1854558.7188070389
1.2046287059783936	1901658.3066281022
1.2089121341705322	1949568.864275576
1.2131990194320679	1993299.8781167287
1.2174891233444214	2047073.4101101197
1.2217823266983032	2094961.5970455294
1.2260783910751343	2145180.9038274023
1.230377197265625	2195485.432647901
1.2346785068511963	2248200.762222704
1.238982081413269	2300570.4258379247
1.2432878017425537	2353062.211222452
1.2475954294204712	2406685.2270555096
1.2519049644470215	2460878.3126920993
1.256216049194336	2515629.9288179176
1.2605286836624146	2571615.05431869
1.2648425102233887	2628257.1884989715
1.2691574096679688	2684130.801961062
1.2734732627868652	2741676.026253868
1.2777899503707886	2801741.811629213
1.2821072340011597	2856592.621619335
1.2864248752593994	2916822.622352093
1.2907428741455078	2976074.7083596797
1.2950609922409058	3009377.8992672386
1.2993791103363037	3081578.6924091056
1.303696870803833	3159695.5109203495
1.3080145120620728	3222660.2300504455
1.3123314380645752	3286115.3274812507
1.3166478872299194	3345760.411795575
1.3209635019302368	3406585.9028250524
1.3252781629562378	3478124.7109217634
1.3295916318893433	3540113.9118984956
1.3339040279388428	3541303.520808716
1.3382149934768677	3450045.792567349
1.3425244092941284	3099904.523689081
1.3468321561813354	3025133.1617800486
1.3511382341384888	3172256.1327094194
1.3554422855377197	3251766.6487539783
1.3597444295883179	3540456.1688065077
1.3640443086624146	3520438.861079857
1.3683418035507202	3613539.223981827
1.3726370334625244	3944176.190712706
1.3769296407699585	4056879.256957485
1.381219506263733	4195376.432060029
1.3855066299438477	3701455.5871913563
1.3897908926010132	3857083.1924443026
1.3940720558166504	3896977.5809500595
1.3983501195907593	4030411.3333774796
1.4026249647140503	4360306.750214763
1.4068963527679443	4449726.141623661
1.4111642837524414	4584261.823516683
1.4154287576675415	4231532.96418021
1.419689416885376	4286989.768653748
1.4239463806152344	4133024.321848644
1.4281994104385376	4805318.182542611
1.4324485063552856	4633856.358481489
1.436693549156189	5086783.3034841865
1.440934419631958	5031328.158111852
1.4451709985733032	5166659.726979715
1.449403166770935	5177015.347741871
1.453631043434143	5004738.454858366
1.4578542709350586	5460940.086607844
1.4620729684829712	5576518.603702092
1.4662868976593018	5702795.267768766
1.4704961776733398	5889047.655485568
1.4747005701065063	5854223.9701715745
1.4788999557495117	6082994.429928157
1.4830944538116455	6075385.390051915
1.4872838258743286	6233499.808702279
1.491468071937561	6418963.83757654
1.4956470727920532	6476687.654413137
1.4998208284378052	6519267.576462079
1.5039892196655273	6655453.350101596
1.5081522464752197	6753564.765638076
1.5123097896575928	6830997.536753093
1.5164618492126465	6957471.2397708725
1.5206083059310913	7012982.554047121
1.5247491598129272	7088812.700576861
1.5288842916488647	7031701.341018749
1.5330137014389038	7292736.21235117
1.5371372699737549	7448198.856870272
1.541254997253418	7534866.935589496
1.545366883277893	7634615.545642669
1.5494728088378906	7731045.098156133
1.5535727739334106	7830606.950657307
1.5576666593551636	7905321.675642799
1.561754584312439	7994847.471710588
1.5658363103866577	8106125.984120465
1.5699119567871094	8209486.503927461
1.5739814043045044	8308849.939368861
1.5780447721481323	8393496.16893539
1.582101821899414	8489698.799163362
1.5861525535583496	8576511.717834068
1.5901970863342285	8677666.18845235
1.5942351818084717	8776296.034270657
1.5982669591903687	8869644.279068442
1.6022924184799194	8965418.167388273
1.606311559677124	9053874.684351081
1.6103241443634033	9151802.842803279
1.6143304109573364	9243768.147528043
1.6183301210403442	9341066.214894513
1.6223233938217163	9420413.958252903
1.6263102293014526	9491103.997614877
1.6302905082702637	9585192.484583942
1.634264349937439	9668181.380858272
1.638231635093689	9804060.839738946
1.6421923637390137	9893933.934682688
1.646146535873413	9975687.65101604
1.6500942707061768	10078145.338832164
1.6540353298187256	10160546.840646042
1.6579699516296387	10227693.005177444
1.661897897720337	10340069.18655024
1.6658192873001099	10335603.433271676
1.6697341203689575	10444315.982663788
1.6736423969268799	10635500.845035104
1.677544116973877	10713287.798765887
1.6814392805099487	10784572.759252736
1.6853278875350952	10865674.509776464
1.6892099380493164	11018506.942155307
1.6930854320526123	11004928.488634529
1.696954369544983	11162484.29200528
1.7008168697357178	11188019.347588612
1.7046726942062378	11288740.223322991
1.708522081375122	11423171.452156385
1.712364912033081	11560575.598785885
1.7162011861801147	11658671.274472909
1.7200311422348022	11715941.798085075
1.723854422569275	11674955.542638278
1.7276713848114014	11740140.094655197
1.731481909751892	11817773.764208427
1.7352858781814575	11667811.415204676
1.7390835285186768	11870488.474106535
1.7428747415542603	11887934.885286212
1.7466596364974976	12296694.979063984
1.7504380941390991	12425171.81440525
1.7542102336883545	12356315.616674708
1.7579760551452637	12360815.120106477
1.7617355585098267	12463118.646323271
1.7654887437820435	12112490.605134053
1.7692357301712036	11818410.506814104
1.7729763984680176	12322551.86783863
1.776710867881775	11312630.962255482
1.7804391384124756	12610569.730811708
1.7841613292694092	12338859.668404497
1.7878772020339966	12100182.77820955
1.7915871143341064	10658067.471654294
1.7952908277511597	11989725.664442
1.7989884614944458	12043302.18132076
1.8026801347732544	11806948.432921873
1.806365728378296	11816826.905643731
1.8100452423095703	10614463.967831373
1.8137187957763672	12670086.51428802
1.817386507987976	13111311.690349575
1.8210482597351074	13259215.976831798
1.8247040510177612	14091192.78299522
1.828354001045227	14171421.601166723
1.8319982290267944	13303527.233456291
1.8356364965438843	14011727.129116036
1.8392690420150757	13698876.949769506
1.8428958654403687	14063474.89463929
1.8465168476104736	13301467.519577814
1.8501322269439697	13573315.583578888
1.8537418842315674	14450802.748421375
1.8573459386825562	13369535.678014077
1.860944390296936	10937067.502616106
1.864537239074707	12363261.405087834
1.8681244850158691	11613214.853632003
1.871706247329712	11978404.39442102
1.8752825260162354	12657429.05197282
1.8788533210754395	14838061.59072285
1.8824186325073242	14262593.74560539
1.8859784603118896	13394376.301757475
1.8895330429077148	14297182.613596024
1.8930821418762207	14420767.549835825
1.8966259956359863	14816537.310258197
1.9001644849777222	14063003.844366882
1.9036977291107178	13652234.637755964
1.9072256088256836	15704072.692701332
1.9107483625411987	15800407.203968493
1.9142658710479736	15297331.781847864
1.9177782535552979	16020348.677990584
1.9212853908538818	14788524.479475493
1.9247875213623047	14227575.756869586
1.9282845258712769	15978692.38129189
1.9317764043807983	15834783.770326028
1.9352631568908691	15522607.423994746
1.9387450218200684	12554098.875255505
1.942221760749817	13621166.471343692
1.9456936120986938	13347260.508956011
1.9491604566574097	13561024.472464284
1.952622413635254	15131099.911882455
1.956079363822937	13029308.00919572
1.959531545639038	14097222.304312631
1.962978720664978	15967926.001946695
1.966421127319336	16937238.336574774
1.9698586463928223	16856429.945734944
1.9732913970947266	17285619.422267195
1.9767193794250488	16857287.007609796
1.9801424741744995	17172330.121156584
1.9835609197616577	17177887.18145817
1.9869745969772339	16754619.001921827
1.990383505821228	15331067.987904755
1.9937876462936401	16720219.483373027
1.9971871376037598	17530857.129259024
2.000581979751587	16806147.240677685
2.003972291946411	17051619.98058438
2.007357597351074	18060034.62092408
2.0107386112213135	18419418.12048311
2.0141148567199707	18517300.016804423
2.017486572265625	18055681.207556225
2.0208535194396973	18504191.874672476
2.0242159366607666	18778332.109614663
2.027573823928833	18443889.739330653
2.0309269428253174	18239200.02534258
2.034275770187378	18956000.870114166
2.0376198291778564	19197945.1887275
2.040959596633911	19286482.650353815
2.044294595718384	19299888.025924455
2.0476250648498535	18980743.8477047
2.0509510040283203	18935274.078347553
2.054272413253784	19363915.415320344
2.057589530944824	19456513.627506237
2.0609018802642822	19239855.603531543
2.0642096996307373	19561007.95836111
2.0675129890441895	19806509.374327544
2.0708119869232178	19976160.442553576
2.074106216430664	20115344.73187245
2.0773961544036865	20211762.063071236
2.080681324005127	20307430.48074504
2.0839622020721436	20340095.108957347
2.087238311767578	20349646.503802508
2.090510129928589	20465776.704122018
2.0937774181365967	20557957.13603362
2.0970399379730225	20638965.415333893
2.1002981662750244	20686840.710678957
2.1035518646240234	20802640.55876332
2.1068007946014404	20857052.80652382
2.1100454330444336	20762484.520852502
2.1132853031158447	20694831.30067908
2.116520881652832	20887506.953117702
2.1197516918182373	21113212.574591115
2.1229779720306396	21233952.22224085
2.12619948387146	21298147.091371894
2.1294167041778564	21359512.928311825
2.132629156112671	21443894.012227513
2.1358368396759033	21530871.952093106
2.139039993286133	21597169.77325721
2.1422386169433594	21648803.828815494
2.145432472229004	21713855.439365566
2.1486217975616455	21768151.145572413
2.151806354522705	21804503.83493166
2.1549863815307617	21817966.737263057
2.1581614017486572	21928121.743798167
2.16133189201355	22022084.222744063
2.1644976139068604	22080623.75456409
2.167658567428589	22158802.067312267
2.1708147525787354	22199010.75833436
2.173966407775879	22233608.078993004
2.1771130561828613	22360576.57025566
2.1802549362182617	22440793.970514342
2.183391809463501	22510467.49676144
2.1865241527557373	22564152.26657901
2.1896514892578125	22602622.244841624
2.1927738189697266	22663541.871008124
2.1958916187286377	22684724.54517168
2.1990041732788086	22634170.46265989
2.2021119594573975	22688461.972568233
2.2052149772644043	22824189.374405015
2.208312749862671	22964115.21410906
2.2114057540893555	23036592.8928802
2.214493751525879	22983246.09021204
2.217576742172241	22963875.210289482
2.2206547260284424	23046125.957296725
2.2237277030944824	23058663.1652549
2.2267956733703613	23108385.82060606
2.2298583984375	23241679.254844833
2.2329163551330566	23350628.364696138
2.235969066619873	23395923.14748448
2.2390167713165283	23348087.813549794
2.2420592308044434	23350347.503870152
2.2450966835021973	23512974.513000485
2.248128890991211	23505072.043095008
2.2511560916900635	23415013.43303488
2.254178285598755	23100292.307076223
2.257194995880127	23200559.170101993
2.260206699371338	23627141.81986451
2.2632133960723877	23775617.572541475
2.266214609146118	23878414.26136173
2.2692108154296875	23855321.374814175
2.2722020149230957	23844821.86204243
2.2751877307891846	23937824.391452648
2.278168201446533	24045738.04362287
2.2811436653137207	24222935.603672236
2.284113883972168	23667870.918709505
2.287078857421875	22737580.54174209
2.290038824081421	23148760.559123173
2.2929933071136475	22914677.593366724
2.295942783355713	22910543.69450303
2.298887014389038	23799808.75206225
2.301826238632202	24377907.350765277
2.304760217666626	24563756.761072792
2.3076889514923096	24675090.063080236
2.310612440109253	24778449.696893673
2.3135311603546143	24582651.992255595
2.3164443969726562	24025338.902456693
2.319352865219116	23835157.813949596
2.322256088256836	22914464.61633942
2.3251543045043945	22385228.682166725
2.328047275543213	23437596.75291129
2.330935478210449	23413303.133971076
2.3338186740875244	22858208.86376946
2.3366971015930176	23619326.479159642
2.3395702838897705	24466374.03865802
2.3424389362335205	24303433.81715878
2.3453025817871094	23181858.756440766
2.348161458969116	23039744.594097555
2.351015567779541	23939562.654932264
2.353865146636963	23929388.31757049
2.3567099571228027	22412438.70212329
2.3595502376556396	22075423.668015506
2.3623859882354736	23301600.697776247
2.3652172088623047	22403534.74494085
2.368043899536133	20230164.029309034
2.370866537094116	21345661.747640204
2.3736846446990967	23115075.070888877
2.3764986991882324	23175822.010875974
2.3793084621429443	21246355.167272247
2.3821144104003906	21393422.340328872
2.384916305541992	23890242.525210004
2.387714147567749	24765983.82226245
2.3905084133148193	25234297.386103168
2.393299102783203	25515553.230901085
2.3960859775543213	25586799.104042146
2.398869514465332	24616336.58836186
2.4016497135162354	23543758.14094749
2.4044265747070312	23718874.601535384
2.407200336456299	24135436.452238232
2.409970998764038	24558276.916625954
2.4127390384674072	23817679.348670818
2.415503978729248	22389493.595314234
2.418266534805298	23375906.54696145
2.4210267066955566	24522809.53019687
2.4237842559814453	24238204.781730708
2.426539897918701	23370037.16253407
2.429293394088745	21969823.632545885
2.4320452213287354	21588793.67359181
2.4347951412200928	22090340.053092375
2.4375438690185547	22768287.90218616
2.440291166305542	22454502.752746545
2.443037271499634	22757307.657039326
2.445782423019409	24495457.611547574
2.4485268592834473	24899940.500174645
2.451270818710327	23901397.684023123
2.454014539718628	23361996.791132208
2.4567582607269287	22706596.298045877
2.4595019817352295	22530282.670679428
2.4622461795806885	24113645.630967315
2.4649908542633057	25919397.800447278
2.4677364826202393	25870650.52605054
2.4704833030700684	25033040.07501757
2.473231554031372	24386485.973939132
2.4759814739227295	24307794.393451624
