#wavelength	surface flux
0.676892	14.72644642024862
0.678297	15.447842747408412
0.679702	16.20076969132011
0.681109	16.988460212568135
0.682517	17.811159274565636
0.683926	18.6698997980344
0.685337	19.569406783669162
0.686749	20.507361507240184
0.688164	21.487738433235066
0.689581	22.510534349433417
0.691	23.57372587440595
0.692422	24.639432993905174
0.693847	25.829724335418664
0.695274	27.076367428969423
0.696705	28.36265195819274
0.698139	29.691812362169625
0.699576	31.04387736296242
0.701017	32.53259322643288
0.702461	34.04698674088069
0.70391	35.64305454494034
0.705362	37.30983571223916
0.706819	39.03648450839516
0.70828	40.83098204556425
0.709745	42.69319865765682
0.711216	44.714117077161795
0.71269	46.77072994809783
0.71417	48.90962040920554
0.715655	51.07387758787353
0.717145	53.08992734188574
0.71864	55.84749096480216
0.72014	58.5348876376282
0.721647	61.2079471401579
0.723158	63.99665202088824
0.724676	66.96315705118424
0.726199	70.03261815186744
0.727728	73.2580683288226
0.729264	76.52749392362577
0.730805	79.87866065844706
0.732353	83.78721074892886
0.733907	87.61323804346992
0.735468	91.4138506400284
0.737035	95.71676008925282
0.738609	100.3537303834817
0.74019	104.92993074339297
0.741777	109.6878677902834
0.743372	114.74132169475024
0.744973	120.01060770460158
0.746582	125.53641076307379
0.748197	131.26210539324248
0.74982	137.34444787115396
0.751451	143.62392522126373
0.753088	150.19738562944903
0.754734	157.06179821893195
0.756386	164.24876764374227
0.758047	171.74058616871787
0.759715	179.55139650252463
0.76139	187.67312677482082
0.763074	196.02163308990308
0.764765	204.09483498886559
0.766464	211.2635546230248
0.768172	222.17728254570187
0.769887	231.4090005073564
0.77161	243.9377432881078
0.773341	256.3014101592497
0.775081	268.2763148810698
0.776829	280.65255634896715
0.778585	293.4095275639295
0.780349	306.15759061554627
0.782121	320.889828330245
0.783902	335.6287275367768
0.785691	350.9492707721153
0.787489	366.861032242167
0.789295	383.4339763345829
0.79111	401.1284997181058
0.792933	419.4792049689547
0.794764	437.5444290762109
0.796604	458.39712277677336
0.798453	479.34781398391965
0.80031	501.06081499834124
0.802176	523.8654781935553
0.804051	547.8577321310868
0.805934	572.7873560264953
0.807826	598.7823304496771
0.809727	623.9242419448456
0.811636	649.0362330453257
0.813554	677.231281226929
0.81548	710.494932580299
0.817416	741.456636842219
0.81936	776.5123803330966
0.821313	815.651949208882
0.823274	843.6382220064022
0.825244	889.7890216892943
0.827223	928.255131781127
0.829211	973.045966271625
0.831208	1014.9409477115425
0.833213	1063.9666150979904
0.835227	1111.715656126081
0.837249	1160.718828031073
0.83928	1213.2127627424184
0.841321	1269.9222604139354
0.843369	1327.6901381868875
0.845427	1386.206302849542
0.847493	1448.1864861548709
0.849567	1513.86095757444
0.851651	1582.557858275941
0.853742	1653.6528644262048
0.855843	1727.805578801129
0.857952	1805.3829546904703
0.86007	1885.1559115780656
0.862196	1962.638100714448
0.864331	2049.871150124756
0.866474	2145.46349272011
0.868626	2241.7697296924152
0.870786	2339.479215986839
0.872955	2443.260991318719
0.875132	2552.2223625601855
0.877317	2664.849551135742
0.879511	2782.7164737204944
0.881713	2904.416394431376
0.883923	3032.235403698674
0.886142	3165.0050086873694
0.888369	3302.7827853144117
0.890604	3428.9502125703298
0.892847	3564.2230317602434
0.895099	3731.446762347805
0.897358	3772.9113864200226
0.899626	3971.4734864099646
0.901901	4234.322391791196
0.904185	4435.484110336005
0.906476	4625.810533049713
0.908776	4814.881422633926
0.911083	5016.738643708802
0.913398	5243.928181024954
0.915721	5444.144861716446
0.918051	5666.998905712883
0.92039	5882.1701093325455
0.922736	6187.7554354183085
0.925089	6362.221743444215
0.927451	6498.707312807258
0.929819	6453.3088727463455
0.932195	6272.132696241461
0.934579	6225.22921897544
0.93697	6915.001508847066
0.939369	7997.583116517675
0.941774	8448.533744687544
0.944187	8754.330512098888
0.946607	8389.219620208809
0.949035	8744.149147589831
0.951469	9499.922913934019
0.953911	10047.389435470111
0.956359	9648.260641212724
0.958814	10829.819897840453
0.961277	11207.875965865636
0.963746	11947.928110706182
0.966222	12402.648359384071
0.968705	13248.005179103659
0.971194	13502.421269937056
0.97369	14009.914698201466
0.976193	14751.608317107453
0.978702	15465.491546433752
0.981217	16055.581873793286
0.983739	16833.709853074597
0.986268	17482.89522212234
0.988802	18216.751681165333
0.991343	19002.5123198204
0.99389	19752.63518669352
0.996444	20605.97088848855
0.999003	21383.351572146075
1.00157	22152.65173771962
1.00414	22983.715401634065
1.00672	23852.156571136682
1.0093	24731.37533799516
1.01189	25663.298385896233
1.01448	26619.530245083308
1.01708	27603.527127941194
1.01969	28624.2619375623
1.0223	29670.974689279406
1.02492	30747.76668937272
1.02754	31867.848900431312
1.03017	33020.80836196413
1.0328	34202.96228703848
1.03544	35434.86957737589
1.03808	36696.611107670826
1.04073	37999.87089273047
1.04339	39345.985812071805
1.04604	40724.10374029723
1.04871	42153.512548560844
1.05138	43632.0438547883
1.05405	45154.79732259924
1.05673	46719.94534034212
1.05941	48277.10208356393
1.0621	50109.29548599772
1.06479	52005.35466976973
1.06749	53634.27939873447
1.07019	55557.232862736215
1.07289	57464.32172194931
1.0756	59416.82905443948
1.07832	61281.692240352626
1.08104	63393.295698451504
1.08376	65528.17060846185
1.08649	67490.66100672403
1.08922	69754.39435441843
1.09195	71701.61879974304
1.09469	73955.74027091952
1.09743	74890.36682934225
1.10018	76018.25430210515
1.10293	77394.64455489576
1.10568	80184.93287934262
1.10844	82267.64925770291
1.1112	81324.41677089773
1.11396	76692.79218210935
1.11673	76704.43178675845
1.1195	83991.01457588591
1.12228	74221.04185218582
1.12505	74259.72506966225
1.12783	89667.03215256364
1.13062	104055.65496249063
1.13341	92460.05377817532
1.1362	100076.63659775957
1.13899	117032.42392679838
1.14178	120550.28273068294
1.14458	114327.3567937947
1.14738	104034.76357815173
1.15019	112993.88093173769
1.153	132160.13437005234
1.1558	128310.73124024585
1.15862	143660.15268893802
1.16143	146530.00945053148
1.16425	139997.32796418483
1.16707	157087.78107738838
1.16989	154782.83306887271
1.17271	162040.8801592483
1.17554	170719.77037682297
1.17837	177236.2800739735
1.1812	184474.2122939669
1.18403	190313.66575345641
1.18686	196140.76187158277
1.1897	200870.58769669596
1.19253	208368.78421776692
1.19537	214212.6695265519
1.19822	216656.3825110428
1.20106	226159.47007360714
1.2039	232619.19472007104
1.20675	239819.7921638389
1.2096	245849.98287743682
1.21245	250654.93764185044
1.2153	258632.24218667424
1.21815	266989.7145814548
1.221	273709.3020941216
1.22385	280634.56171294296
1.22671	288538.2621189514
1.22957	296006.5490311886
1.23242	303525.9121815956
1.23528	311796.75603945553
1.23814	320026.5097375652
1.241	327950.5185065509
1.24387	336436.1122613892
1.24673	344757.07263384474
1.24959	353183.78406412044
1.25245	362145.1206168981
1.25532	371013.70468864695
1.25818	380309.22962330165
1.26105	389594.7636351553
1.26392	399046.8211746196
1.26678	408522.48315398156
1.26965	417416.293570261
1.27252	426460.1875027755
1.27538	438054.21648560336
1.27825	448224.0894381293
1.28112	457281.4381232523
1.28399	464665.8599793936
1.28686	477768.69090850913
1.28973	488822.8927891136
1.2926	496037.4123372038
1.29546	492155.9987665135
1.29833	509548.194858571
1.3012	526181.0866286972
1.30407	539579.7632137369
1.30694	556476.0378554066
1.30981	567374.7355954767
1.31267	571668.2092450627
1.31554	584910.7750601072
1.31841	574484.608169493
1.32128	609998.478966856
1.32414	622859.225888431
1.32701	637120.9974461469
1.32987	630682.3950271292
1.33274	608609.8006264449
1.3356	606191.7813353387
1.33847	442840.9993040416
1.34133	371051.5089967854
1.34419	375494.1621701131
1.34705	366214.4881228269
1.34991	358279.65885787306
1.35277	450931.3716268533
1.35563	307433.3232083824
1.35849	259241.57817932943
1.36135	277669.9680354714
1.3642	388284.15562925703
1.36706	395812.8993057465
1.36991	421014.0341656561
1.37277	491519.53404363577
1.37562	436954.4417751319
1.37847	621093.4916332578
1.38132	496940.97760630306
1.38417	451428.7759841578
1.38701	393997.0383785867
1.38986	534175.8212520033
1.39271	460710.1974865821
1.39555	382359.8018397744
1.39839	516494.13510476804
1.40123	481939.310480731
1.40407	602374.1071375678
1.40691	585040.9602867698
1.40974	603729.2459045008
1.41258	665076.1782997197
1.41541	593253.5712173638
1.41824	476707.5878206665
1.42107	473212.15750828636
1.4239	444355.95078884764
1.42673	664946.5216417161
1.42955	776097.8056349081
1.43237	638540.7979808311
1.43519	719174.5989657136
1.43801	775816.7915331146
1.44083	708377.8526487768
1.44365	853629.8147626364
1.44646	843130.3663030476
1.44927	897063.0901952934
1.45208	972588.2167826585
1.45489	894653.4099195931
1.45769	1231763.2396522374
1.4605	1326075.3965097605
1.4633	1139709.997729478
1.4661	1267399.1507164105
1.4689	1232456.5447853976
1.47169	1343663.6606706914
1.47449	1299357.476148574
1.47728	1378568.1264886018
1.48007	1411443.6787808777
1.48286	1385195.3398877487
1.48564	1487461.9078320276
1.48842	1541409.1366611905
1.4912	1593518.270871953
1.49398	1629418.370696012
1.49676	1619757.4354176682
1.49953	1717453.611551693
1.5023	1683229.6534745244
1.50507	1827313.461375048
1.50784	1841568.9986372488
1.51061	1877017.3827337865
1.51337	1925268.3165496849
1.51613	1954132.1969846862
1.51888	1985200.3188036473
1.52164	2030522.9170253535
1.52439	2090839.34021427
1.52714	2035644.5503593772
1.52989	2087554.8137416823
1.53263	2211821.7604398094
1.53538	2297166.1711162375
1.53812	2331194.0340729747
1.54086	2352590.829958432
1.54359	2373133.2116260845
1.54632	2429487.347695765
1.54905	2475556.122514505
1.55178	2508816.9339100644
1.5545	2542092.691898816
1.55723	2574370.1854503267
1.55995	2622204.456628036
1.56266	2655274.078354807
1.56538	2695793.8937355937
1.56809	2750344.9345108457
1.5708	2777938.1861923737
1.57351	2818951.0700248457
1.57621	2865511.9940316337
1.57891	2895282.2451124894
1.58161	2935048.98082752
1.5843	2967780.617956044
1.587	2992793.3959065047
1.58969	3040071.516025831
1.59238	3082161.355385609
1.59506	3121465.513254171
1.59774	3162638.537789919
1.60042	3206653.2883800627
1.6031	3244085.2675840184
1.60577	3279075.945818257
1.60844	3316453.6375106107
1.61111	3361585.802023514
1.61378	3400722.85817289
1.61644	3439045.902568808
1.6191	3471400.7496189196
1.62176	3458203.3513225326
1.62441	3379620.5853763307
1.62707	3386806.6787397987
1.62971	3333147.75391167
1.63236	3318429.596616634
1.635	3543568.004797123
1.63764	3697440.159847415
1.64028	3720508.8095886805
1.64292	3788160.028897639
1.64555	3793640.8781584236
1.64818	3815143.2744176295
1.65081	3859687.5759884617
1.65343	3865617.1516068554
1.65605	3721323.11512992
1.65867	3896288.1279922305
1.66128	3973873.6281129825
1.6639	3961816.0891139824
1.66651	3391003.9736792645
1.66911	3479708.1729943897
1.67172	4118419.592432607
1.67432	4279113.735082397
1.67692	4267312.1171809705
1.67951	4307976.209559439
1.68211	4179600.4563716385
1.6847	4143646.8334909747
1.68728	4428698.993287475
1.68987	4490850.799306029
1.69245	4143699.6483044643
1.69503	3967691.2707635523
1.6976	4295094.694396243
1.70018	3901245.099412353
1.70275	3831322.8364299294
1.70531	3922599.5176080284
1.70788	4169663.5246148184
1.71044	4650009.589159679
1.713	4832634.43224223
1.71556	4925274.249119276
1.71811	4955276.763339303
1.72066	4793730.923252036
1.72321	4435248.680082988
1.72575	4380822.5272564
1.7283	4468255.742233241
1.73084	4525302.255887016
1.73337	4434566.627014742
1.73591	4420403.3325763615
1.73844	4840757.434240068
1.74097	4914454.792641902
1.74349	4964810.873009181
1.74602	5112666.157641181
1.74854	5294070.676761163
1.75105	5220999.007559183
1.75357	4768452.928567717
1.75608	4483072.469539268
1.75859	4608076.214887412
1.7611	4565036.653638802
1.7636	4513074.880297391
1.7661	4064899.6169878677
1.7686	4018371.0805314793
1.7711	4578528.943267151
1.77359	4164895.2535625296
1.77608	3525422.3433159906
1.77857	3829379.7967211427
1.78105	3938788.669433462
1.78354	3335252.1474205176
1.78602	3098204.9008968095
1.78849	3320627.0307693626
1.79097	3093235.4287618925
1.79344	3388304.837561189
1.79591	3734576.2889316804
1.79837	3983961.4023683486
1.80084	3007502.6529092197
1.8033	3055972.93123623
1.80576	3029074.9431065745
1.80821	2650775.0125695583
1.81067	2476103.649329819
1.81312	3069467.366159362
1.81557	4009154.9251932194
1.81801	3693590.830746518
1.82046	3419366.705217067
1.8229	4119654.5739637045
1.82533	4442983.340946398
1.82777	3907324.0189864524
1.8302	3696114.110459646
1.83263	3552812.41960695
1.83506	3522819.12239435
1.83749	3657500.070460283
1.83991	3408877.362990752
1.84233	3528238.411503663
1.84475	3966853.5841620597
1.84716	3184754.322269125
1.84957	3353597.3416057634
1.85198	4417028.462223206
1.85439	4365987.800716545
1.8568	3656933.39365286
1.8592	2953336.5223174742
1.8616	2210822.564780344
1.864	2135909.7293576743
1.86639	2500055.9145376408
1.86878	2376290.5991241257
1.87118	2586977.625464997
1.87356	2828089.167069565
1.87595	3324603.8310304764
1.87833	4478277.713016631
1.88071	4843051.489470862
1.88309	4338800.22344249
1.88547	3844874.1523064887
1.88784	3932710.1117464495
1.89021	4000519.2614831524
1.89258	4288372.341456472
1.89494	4900219.4182409365
1.89731	4765787.864657495
1.89967	3989379.9186365847
1.90203	4142503.067310727
1.90439	4459641.4313099235
1.90674	5340084.842630066
1.90909	6187292.889662117
1.91144	4955387.019696081
1.91379	4086771.640598718
1.91613	5244821.69891772
1.91848	5928760.823534982
1.92082	4941163.08319706
1.92315	4101692.371628848
1.92549	4743519.865914911
1.92782	5093556.432077431
1.93015	4346440.508890625
1.93248	4573832.357088823
1.93481	5122156.998820602
1.93713	3942086.724716553
1.93945	2586581.054724217
1.94177	3521634.519317379
1.94409	4220241.292104875
1.94641	3855438.8174181026
1.94872	3745100.4053646484
1.95103	4733928.597158858
1.95334	5185373.052484664
1.95564	4081400.8881106307
1.95795	3395449.9408799917
1.96025	3275358.459788443
1.96255	3845742.8525712313
1.96484	5273424.483838869
1.96714	6126115.300593703
1.96943	5662625.335172388
1.97172	5917071.709939676
1.97401	6300666.47761137
1.97629	6002609.190602928
1.97858	6002830.252522834
1.98086	5800022.8749287175
1.98314	6470278.399009308
1.98541	7544833.746944334
1.98769	7038081.186019868
1.98996	5826622.419637243
1.99223	5955534.174895879
1.9945	6868815.240779968
1.99677	7126211.876307687
1.99903	6664601.870059236
2.00129	6565697.18569941
2.00355	7389299.235355407
2.00581	8096785.3192669265
2.00806	7930087.92100245
2.01031	8386480.729871708
2.01256	9400535.16577012
2.01481	9380364.435973663
2.01706	8773508.553138727
2.0193	9095925.736487187
2.02154	10105933.641593633
2.02378	10441830.253740653
2.02602	10062350.35115011
2.02825	9590544.544408089
2.03049	9356959.852821207
2.03272	9967682.54843504
2.03494	10717555.295297895
2.03717	10852857.142851505
2.03939	10762348.460348101
2.04162	10832503.539806183
2.04384	10974368.496718248
2.04605	10847529.719245892
2.04827	10388329.944065306
2.05048	10293668.825866986
2.05269	10667653.159400634
2.0549	10982308.170910204
2.05711	11084566.465382073
2.05931	10788205.778303966
2.06151	10543390.532207375
2.06371	10727867.542698467
2.06591	11002407.218803152
2.06811	11218784.108058076
2.0703	11416053.447082993
2.07249	11606724.412204262
2.07468	11675033.51953624
2.07686	11722380.379335957
2.07905	11918017.15751381
2.08123	12068220.2387749
2.08341	12051691.743962979
2.08559	11962953.195085306
2.08776	11997981.154149137
2.08994	12095810.067042172
2.09211	12150119.414463716
2.09428	12242932.014474478
2.09645	12311372.706110716
2.09861	12294858.914015396
2.10077	12323064.996205738
2.10293	12441158.686356353
2.10509	12518260.603035092
2.10725	12443351.911592366
2.1094	12181567.59542805
2.11155	11789248.197094759
2.1137	11638391.538874485
2.11585	11903479.60950733
2.11799	12279531.051749714
2.12013	12600830.813576773
2.12227	12792849.795647038
2.12441	12858704.603952996
2.12655	12885984.481842028
2.12868	12906755.13798309
2.13081	12938604.039003948
2.13294	13001372.830895765
2.13507	13073193.60485469
2.13719	13122999.370077614
2.13931	13143665.476345886
2.14143	13139632.90123917
2.14355	13147252.690749306
2.14567	13153056.152649915
2.14778	13047567.845750263
2.14989	12825855.731581733
2.152	12467120.021006912
2.1541	12041584.329031698
2.15621	12175115.728787368
2.15831	12764324.555220788
2.16041	12997489.68283909
2.16251	13125037.43791546
2.1646	13319298.370617904
2.1667	13444419.768330278
2.16879	13507031.267579436
2.17087	13435989.107533138
2.17296	13274916.52758689
2.17504	13287401.118650416
2.17713	13494099.93556335
2.1792	13657999.920795782
2.18128	13678150.419671781
2.18336	13630368.65043048
2.18543	13658113.969626006
2.1875	13728400.025908891
2.18957	13768010.162790064
2.19163	13797349.334809931
2.1937	13740649.417213384
2.19576	13337706.911743151
2.19782	12243619.714973753
2.19987	11227111.890672226
2.20193	11129591.044584593
2.20398	11849877.689143809
2.20603	12910308.631233707
2.20808	13691047.214524338
2.21012	14016654.1117167
2.21217	13965189.034288865
2.21421	13444494.867351003
2.21625	12737427.239245223
2.21828	12582208.406334238
2.22032	12891373.483514845
2.22235	12912284.317270385
2.22438	12504934.108611993
2.22641	12157796.856979063
2.22843	12136298.065941293
2.23046	12132307.777321026
2.23248	12159910.555054624
2.2345	12530585.051006602
2.23651	12759353.10325955
2.23853	12055191.21147988
2.24054	10776761.937120022
2.24255	10518513.494436556
2.24456	11272621.994144276
2.24657	11403173.734353038
2.24857	10964736.631673442
2.25057	10646813.381546108
2.25257	10513941.398271577
2.25457	10192431.334016277
2.25656	10358823.686636822
2.25856	11003508.880383924
2.26055	11203072.975641316
2.26254	10944301.83511838
2.26453	11033387.628420066
2.26651	11385638.411522761
2.2685	11725567.780556174
2.27048	11996063.307764556
2.27246	12242594.18019667
2.27443	11819904.29230931
2.27641	11198642.114290526
2.27838	11622020.138746055
2.28036	12829796.773705376
2.28233	12983866.094249481
2.28429	11275687.754381616
2.28626	9596744.131682185
2.28823	9779740.162080362
2.29019	10643711.16168588
2.29215	10424822.827064358
2.29411	9635737.126560193
2.29607	9016444.335499905
2.29802	8863658.360225182
2.29998	9226861.906685505
2.30193	10433128.300197668
2.30388	11752599.972927481
2.30583	12674965.821562598
2.30778	12865077.569627771
2.30972	12894873.103318334
2.31167	13000279.804579172
2.31361	11980084.94868864
2.31555	9665420.59177414
2.31749	8389522.28889539
2.31943	8965602.201545762
2.32137	9596223.254492354
2.32331	9178239.324569255
2.32524	8558457.985042345
2.32718	8656296.537988994
2.32911	8934007.338058349
2.33104	9248862.54369089
2.33297	9574047.102897378
2.3349	9751860.2907056
2.33683	9731406.731490506
2.33876	9741314.922512831
2.34068	9537245.983401867
2.34261	9179864.759029295
2.34453	8713040.3874084
2.34646	8001646.726526336
2.34838	7875421.910259988
2.3503	8196966.878852794
2.35223	9056853.338179022
2.35415	9653745.660167677
2.35607	9950019.976091083
2.35799	10317662.709982228
2.35991	10938350.465714028
2.36183	11748109.082289666
2.36375	12715447.152851388
2.36566	12857262.988297295
2.36758	10950097.000720164
2.3695	8449204.15434758
2.37142	7195392.2156713605
2.37334	6761461.754679885
2.37526	6683913.638260269
2.37718	7317458.853625359
2.3791	8862021.631342804
2.38101	10183163.506584961
2.38293	10706667.606445894
2.38485	10188710.548543848
2.38677	10048680.250543589
2.3887	11260511.355245883
2.39062	13205011.959607096
2.39254	13947954.111170111
2.39446	13315281.124053093
2.39639	11504900.124658693
2.39831	9435542.74172088
2.40024	7830454.620397598
2.40216	7049492.901275136
2.40409	7161476.529454353
2.40602	8117604.906188715
2.40795	9339004.4977074
2.40989	10260232.58050055
2.41182	10426544.941544777
2.41376	9574759.116098661
2.4157	8487354.965008363
2.41764	7608642.753859494
2.41958	7436771.585929321
2.42152	7587218.621684368
2.42347	7903139.112291606
2.42542	7588574.20518341
