#wavelength	surface flux
0.8	67955.75781857783
0.8002000000000001	68153.03553326167
0.8004000500000003	68350.27784345901
0.8006001500125003	68676.00575956363
0.8008003000500035	68897.35523866233
0.8010005001250161	69105.37358178198
0.8012007502500472	69381.43246724486
0.8014010504376099	69629.38603729472
0.8016014007002193	69846.6627477417
0.8018018010503944	70046.60227917656
0.8020022515006572	70357.08777231253
0.8022027520635323	70676.86243949259
0.8024033027515483	70940.24564471416
0.8026039035772362	71130.14318865567
0.8028045545531306	71373.67267339547
0.8030052556917691	71610.41492249891
0.803206007005692	71962.97940426899
0.8034068085074435	72238.217076838
0.8036076602095705	72461.91031057853
0.8038085621246229	72753.0284464991
0.8040095142651542	72990.2576234504
0.8042105166437206	73218.28234969356
0.8044115692728815	73442.41348882642
0.8046126721651998	73596.64166353735
0.8048138253332411	73922.99815760342
0.8050150287895745	74212.16100196617
0.805216282546772	74497.37169585707
0.8054175866174087	74744.87371234524
0.8056189410140631	75005.2180726933
0.8058203457493168	75259.52517608747
0.8060218008357541	75532.98984492462
0.8062233062859632	75746.27207084434
0.8064248621125346	76076.5714355697
0.806626468328063	76363.65243477713
0.8068281249451449	76567.41643767708
0.8070298319763813	76843.53096772244
0.8072315894343755	77112.26925233276
0.8074333973317341	77295.74360714613
0.8076352556810671	77667.92120734448
0.8078371644949874	77985.15223406447
0.8080391237861113	78261.4977646701
0.8082411335670578	78495.708184765
0.8084431938504498	78771.73020351063
0.8086453046489125	79064.92497433274
0.8088474659750746	79284.43782397524
0.8090496778415686	79548.50353810289
0.809251940261029	79775.69386198875
0.8094542532460944	79805.35513024557
0.8096566168094059	80042.82976674472
0.8098590309636085	80628.61003458466
0.8100614957213493	80925.44773204441
0.8102640110952797	81141.17618848033
0.8104665770980536	81476.58900287386
0.8106691937423283	81618.79943873531
0.8108718610407639	81020.52251247139
0.8110745790060241	80830.80539189457
0.8112773476507757	82062.90464433962
0.8114801669876885	81979.41528135448
0.8116830370294355	82069.41860749683
0.8118859577886929	83265.81076532217
0.8120889292781401	83751.17105304227
0.8122919515104597	84062.59206863656
0.8124950244983374	84398.48415943036
0.8126981482544621	84675.08356558878
0.8129013227915257	84934.30071889027
0.8131045481222237	85115.5211059926
0.8133078242592543	85103.69323748662
0.8135111512153191	84686.56411612399
0.813714529003123	85217.38746010458
0.8139179576353739	86132.90573511974
0.8141214371247829	86085.4444354864
0.8143249674840641	85736.301429105
0.814528548725935	85124.58717697562
0.8147321808631167	86344.81090712757
0.8149358639083326	87536.20256492858
0.8151395978743097	87395.28329652833
0.8153433827737784	88041.03949696034
0.8155472186194719	88630.46162459967
0.8157511054241268	88991.4632153931
0.815955043200483	89125.15387490981
0.8161590319612831	89542.32929292024
0.8163630717192736	89670.51958409333
0.8165671624872033	90152.70519104802
0.8167713042778252	90655.72295231973
0.8169754971038948	90866.88118388588
0.8171797409781707	90806.18728679206
0.8173840359134155	91437.67770755889
0.8175883819223938	91878.91768316049
0.8177927790178745	92176.02934061945
0.8179972272126291	92184.41188466738
0.8182017265194322	92113.66407095891
0.8184062769510622	90670.36771377746
0.8186108785203001	92816.43455195414
0.8188155312399301	93768.84090424544
0.8190202351227402	94027.19053904188
0.819224990181521	94418.17186827415
0.8194297964290664	94688.15148490497
0.8196346538781738	94816.01518323064
0.8198395625416434	94962.96298447938
0.8200445224322789	95020.97637592893
0.820249533562887	95883.84466562362
0.8204545959462778	96295.05250293888
0.8206597095952644	96602.60977855283
0.8208648745226633	96925.0124980355
0.8210700907412941	97243.56214234488
0.8212753582639793	97611.24655119955
0.8214806771035456	97952.68846402167
0.8216860472728215	98302.7614280909
0.8218914687846397	98659.18538008099
0.822096941651836	98977.6755706418
0.822302465887249	99252.06903638122
0.8225080415037209	99519.06017863359
0.8227136685140968	99228.82873943153
0.8229193469312254	96893.145235015
0.8231250767679583	97218.29129112746
0.8233308580371503	99095.10861350362
0.8235366907516598	99613.36558008243
0.8237425749243477	100045.43207814697
0.8239485105680789	101367.26862191176
0.824154497695721	102176.22778424463
0.824360536320145	102582.0115614175
0.8245666264542252	102973.69769968324
0.8247727681108388	103361.19677334989
0.8249789613028664	103501.46851435918
0.8251852060431922	104003.0945916635
0.825391502344703	104485.3814712642
0.8255978502202894	104850.07338677706
0.8258042496828445	105181.77423594033
0.8260107007452654	105450.50675476236
0.8262172034204517	105515.91715586814
0.8264237577213068	105218.16317843848
0.8266303636607373	104417.02062600096
0.8268370212516525	106492.2241692307
0.8270437305069654	107311.18629300084
0.8272504914395923	107605.84533894999
0.8274573040624523	107899.7182790974
0.8276641683884679	108252.02088562657
0.8278710844305652	108573.55599051063
0.8280780522016729	108974.9264342125
0.8282850717147234	109240.40319675488
0.8284921429826521	109655.18796808088
0.8286992660183978	109933.2050854615
0.8289064408349024	109644.29806806645
0.8291136674451112	110026.63421852575
0.8293209458619727	110998.28963706638
0.8295282760984382	111439.15795205264
0.829735658167463	111465.09676537753
0.8299430920820048	111811.18218948132
0.8301505778550254	112519.75685918945
0.8303581154994891	113081.60813228981
0.8305657050283641	113427.78950201605
0.8307733464546212	113748.62809470897
0.8309810397912352	113926.84008174617
0.8311887850511829	114141.71288013093
0.8313965822474458	113317.11521869835
0.8316044313930077	114086.59831405483
0.8318123325008561	115394.47414667293
0.8320202855839813	116022.0316552282
0.8322282906553774	116409.83334708358
0.8324363477280413	116597.17199876958
0.8326444568149735	117187.39303254601
0.8328526179291771	117633.85544242471
0.8330608310836596	117734.62859568666
0.8332690962914304	117827.98707104317
0.8334774135655034	118541.06926167323
0.833685782918895	119031.00254641303
0.8338942043646247	119450.56038746353
0.834102677915716	119893.92475563339
0.834311203585195	120258.84282768168
0.8345197813860912	120656.86868071572
0.8347284113314379	121141.89708774448
0.8349370934342709	121566.92459310718
0.8351458277076294	121963.7954560115
0.8353546141645565	122288.97189342213
0.8355634528180977	122379.07586702865
0.8357723436813022	122939.59390939938
0.8359812867672226	123399.58265397722
0.8361902820889144	123741.97289306253
0.8363993296594368	123997.66158003661
0.8366084294918518	124522.77333748712
0.8368175815992247	125191.92723013798
0.8370267859946247	125571.39896352748
0.8372360426911234	125871.80826162166
0.8374453517017962	126196.46426113149
0.8376547130397217	126333.35724728789
0.8378641267179816	127114.9866363267
0.8380735927496613	127701.61108510605
0.8382831111478488	127922.3159768982
0.8384926819256358	127826.61928254591
0.8387023050961173	128227.9540333389
0.8389119806723914	129073.5095717496
0.8391217086675596	129747.31949123801
0.8393314890947265	130256.4950738354
0.8395413219670003	130538.72461851622
0.8397512072974922	130950.35582010403
0.8399611450993165	131142.42100202845
0.8401711353855914	130827.10875639504
0.8403811781694378	131783.96438295805
0.8405912734639802	132566.07238573866
0.8408014212823464	132756.13429685682
0.8410116216376671	133482.3363726881
0.8412218745430766	133989.4907179301
0.8414321800117124	134522.21824885116
0.8416425380567154	134916.04609068536
0.8418529486912297	135298.85075317358
0.8420634119284025	135698.382711567
0.8422739277813847	136257.4753726782
0.8424844962633302	136725.74651567568
0.842695117387396	137042.60631178148
0.8429057911667428	137333.3372611299
0.8431165176145345	137893.48030428693
0.8433272967439382	138488.65873607184
0.8435381285681244	138939.96338687124
0.8437490131002665	139409.69411182895
0.8439599503535415	139817.19778844027
0.84417094034113	140008.78720980545
0.8443819830762154	140547.5758093404
0.8445930785719846	140593.0839854072
0.8448042268416277	141495.79112650742
0.8450154278983382	142075.15789118162
0.8452266817553128	142519.71077215087
0.8454379884257517	142833.46827532232
0.8456493479228583	143106.48167867083
0.845860760259839	143953.98049147916
0.846072225449904	144450.53867243763
0.8462837435062666	144399.06881751234
0.8464953144421433	143796.85039775897
0.8467069382707537	144587.12088326237
0.8469186150053215	146093.7203822364
0.847130344659073	146721.228346863
0.8473421272452377	147198.7546134647
0.8475539627770492	147517.17621857594
0.8477658512677435	148098.68784969448
0.8479777927305605	148596.23156994765
0.8481897871787432	148970.6691438293
0.848401834625538	149525.85975006447
0.8486139350841944	150095.82883836512
0.8488260885679657	150287.60325223274
0.8490382950901076	150272.17391159158
0.8492505546638802	151235.36792105058
0.8494628673025462	151928.75606290592
0.8496752330193721	152444.1275724545
0.8498876518276269	152950.21342917514
0.8501001237405839	153456.64918160762
0.8503126487715191	153947.80370734807
0.850525226933712	154476.06649716813
0.8507378582404455	154981.82234284404
0.8509505427050057	155466.64013705205
0.8511632803406821	155988.92290765123
0.8513760711607672	156482.55000629497
0.8515889151785576	156957.45878089132
0.8518018124073523	157402.45664748515
0.8520147628604541	157868.0154960723
0.8522277665511693	158212.8427768619
0.8524408234928071	158948.60350720692
0.8526539336986805	159476.0827694464
0.8528670971821053	159981.1592462986
0.8530803139564007	160324.45994967278
0.8532935840348901	160646.42747081313
0.8535069074308987	161161.13596604313
0.8537202841577566	161723.32168233496
0.8539337142287962	162178.69593330633
0.8541471976573534	162385.35221872973
0.8543607344567677	163152.23581512246
0.8545743246403821	163917.04871699787
0.8547879682215422	164440.98236192163
0.8550016652135977	164909.43476065257
0.8552154156299011	165456.06834822698
0.8554292194838088	166038.9030348893
0.8556430767886797	166524.76242006946
0.855856987557877	167144.29705657737
0.8560709518047664	167724.1344072085
0.8562849695427177	168235.64649261427
0.8564990407851035	168757.04052134056
0.8567131655452999	169317.1208531837
0.8569273438366862	169895.44253473714
0.8571415756726455	170420.4430480291
0.8573558610665638	170825.1299419631
0.8575702000318304	171440.77682687223
0.8577845925818384	172015.0096097918
0.857999038729984	172607.51746906425
0.8582135384896665	173073.5271744418
0.858428091874289	173324.79179443626
0.8586426988972576	173827.04202481685
0.8588573595719821	174431.389073377
0.8590720739118751	175011.91955148775
0.8592868419303532	175552.117127088
0.8595016636408359	176148.51678655093
0.8597165390567462	176683.3326149664
0.8599314681915105	177166.07752640685
0.8601464510585584	177743.29645504532
0.860361487671323	178349.24508479773
0.8605765780432408	178960.12818090033
0.8607917221877518	179461.50644540752
0.8610069201182988	179949.62102064292
0.8612221718483286	180115.8453828463
0.8614374773912907	179928.26650209285
0.8616528367606385	180611.3388153334
0.8618682499698288	180206.72406522877
0.8620837170323213	180572.16153424326
0.8622992379615795	181724.9453799593
0.8625148127710699	180958.76592276775
0.8627304414742627	181402.54632822037
0.8629461240846313	183600.36456638444
0.8631618606156526	183448.8440232036
0.8633776510808066	184099.02269289322
0.8635934954935769	184925.63865917965
0.8638093938674504	185832.6098161174
0.8640253462159173	186071.8778020254
0.8642413525524714	185194.54649658897
0.8644574128906095	187569.19613507786
0.8646735272438323	187958.88512503493
0.8648896956256433	187880.81195219586
0.8651059180495498	189689.84535361364
0.8653221945290621	190267.87373144418
0.8655385250776946	191070.52064907944
0.8657549097089641	192013.32832630663
0.8659713484363913	192701.80303835025
0.8661878412735006	193316.72256725634
0.866404388233819	193693.49450151142
0.8666209893308775	194385.96843543148
0.8668376445782103	195556.63858357232
0.8670543539893549	196169.10611719123
0.8672711175778525	196330.17453871254
0.8674879353572469	196592.94076602606
0.8677048073410862	197371.7636955159
0.8679217335429217	198191.92060203964
0.8681387139763074	198781.78741479196
0.8683557486548015	198768.9205196523
0.8685728375919655	199538.1751041297
0.8687899808013633	200822.11116274554
0.8690071782965637	201691.6950453427
0.869224430091138	202395.22452027295
0.8694417361986609	202546.20236731702
0.8696590966327107	202534.10876569766
0.869876511406869	203171.09137310347
0.8700939805347206	203835.07471749207
0.8703115040298544	205219.62208804506
0.870529081905862	205864.4346417477
0.8707467141763385	206288.2431442165
0.8709644008548827	206583.91723986564
0.8711821419550964	207036.98151849833
0.8713999374905854	207652.8840556145
0.871617787474958	209266.56541136428
0.8718356919218269	209786.72923884733
0.8720536508448075	209584.81728533065
0.8722716642575187	210018.9035797474
0.8724897321735832	211301.45737756352
0.8727078546066265	212419.8373127266
0.8729260315702784	213267.76797027705
0.873144263078171	213976.51110024354
0.8733625491439405	214647.00145696267
0.8735808897812266	214876.47531965448
0.8737992850036719	215441.67139946244
0.874017734824923	215227.25810017905
0.8742362392586293	217043.34757766753
0.874454798318444	217681.84201017328
0.8746734120180236	218230.43381279462
0.8748920803710283	219298.71273370148
0.875110803391121	219852.7241041654
0.8753295810919689	220565.13068576332
0.875548413487242	221446.2021568181
0.8757673005906139	222212.66586357835
0.8759862424157616	222895.29380832694
0.8762052389763657	223415.39594022345
0.8764242902861098	223827.52064505653
0.8766433963586814	224796.53649881494
0.8768625572077712	224928.27694095447
0.8770817728470732	224991.2692169113
0.8773010432902849	226439.1391023338
0.8775203685511077	227714.82925786896
0.8777397486432454	228568.93978671115
0.8779591835804065	229170.62979113325
0.8781786733763015	229830.7242807725
0.8783982180446457	230631.51627283473
0.878617817599157	231219.44724715044
0.8788374720535569	231666.8651469256
0.8790571814215703	232204.33991468075
0.8792769457169257	232872.47575945893
0.879496764953355	234170.6516006072
0.8797166391445934	235103.22187044023
0.8799365683043796	235704.92684174716
0.8801565524464557	235957.8013786117
0.8803765915845676	236511.1635197726
0.8805966857324639	237548.40698984877
0.880816834903897	237989.0897480186
0.881037039112623	239050.75125687377
0.8812572983724012	239725.38208356587
0.8814776126969944	239962.91496791667
0.8816979821001687	240884.5398339409
0.8819184065956938	242202.9180210087
0.8821388861973429	242885.3678597055
0.8823594209188923	243091.22236074237
0.882580010774122	244116.60408392688
0.8828006557768155	245139.7741260041
0.8830213559407598	245779.15901178282
0.8832421112797452	246648.3600546787
0.8834629218075651	246780.1134317354
0.8836837875380171	246811.69749696128
0.8839047084849018	248225.39348911028
0.884125684662023	249768.10522238995
0.8843467160831886	250619.66718222844
0.8845678027622095	251253.76369967003
0.8847889447129001	251590.2645658577
0.8850101419490785	252454.9709648788
0.8852313944845657	253020.5102470364
0.885452702333187	254329.2177618721
0.8856740655087704	255026.04613514175
0.8858954840251476	254989.0809673538
0.8861169578961539	255745.46719163982
0.886338487135628	257285.53953149944
0.886560071757412	258295.37503651876
0.8867817117753515	259103.16150297498
0.8870034072032955	259727.51795285058
0.8872251580550963	260153.6119582655
0.8874469643446101	261063.24669795285
0.8876688260856963	261933.4349864324
0.8878907432922178	262942.432044153
0.8881127159780409	263713.48636431847
0.8883347441570356	264060.87580396625
0.8885568278430749	264143.4816182506
0.8887789670500358	265533.1040675916
0.8890011617917983	266685.35567155154
0.8892234120822464	267789.42590036604
0.8894457179352669	268604.2404176035
0.8896680793647509	269116.1704214735
0.8898904963845921	269450.0051765977
0.8901129690086883	270412.91836787615
0.8903354972509405	271657.39668891736
0.8905580811252535	272534.4092735618
0.8907807206455347	271798.30364741734
0.8910034158256963	267930.79839742143
0.8912261666796527	271275.6106785954
0.8914489732213227	275042.73756953125
0.8916718354646282	275265.9399371688
0.8918947534234944	275289.1500275393
0.8921177271118502	275226.01933772647
0.8923407565436284	272985.1170876781
0.8925638417327644	275893.819865805
0.8927869826931977	279635.15672122804
0.8930101794388711	280787.9243779859
0.8932334319837308	278999.97244617034
0.8934567403417267	278196.37567835674
0.8936801045268123	282223.6333178962
0.8939035245529441	283187.237800296
0.8941270004340824	283906.47318244906
0.894350532184191	283438.3631364477
0.8945741198172371	285563.2656653699
0.8947977633471915	288046.72538109106
0.8950214627880284	288998.2280554186
0.8952452181537254	289046.9909580818
0.8954690294582639	289278.99027312035
0.8956928967156286	291053.6239147986
0.8959168199398075	291454.1881380416
0.8961407991447926	292172.98753693025
0.8963648343445789	291283.1360571724
0.896588925553165	285636.6401342489
0.8968130727845534	288477.2130835983
0.8970372760527496	292459.80298156594
0.8972615353717629	280261.60028496914
0.8974858507556059	278036.26343182474
0.8977102222182949	296098.5106231427
0.8979346497738496	300513.9596433817
0.8981591334362931	301150.1666168521
0.8983836732196523	301586.1535103107
0.8986082691379572	302476.28732514445
0.8988329212052417	294516.1032113589
0.8990576294355432	281398.51235379133
0.8992823938429022	290555.0083705515
0.8995072144413631	300646.9745008673
0.8997320912449734	306702.34827573237
0.8999570242677847	308024.234135115
0.9001820135238516	308273.5596816972
0.9004070590272328	307309.11187670345
0.9006321607919896	303085.27704975515
0.9008573188321878	306016.5656576444
0.9010825331618959	306554.7953136472
0.9013078037951865	311968.6336355272
0.9015331307461353	313701.9207153888
0.9017585140288219	315177.6397637961
0.9019839536573292	316487.7823236545
0.9022094496457435	317818.06325135997
0.9024350020081551	318589.18152091675
0.9026606107586572	319221.3034783564
0.902886275911347	319925.32809803705
0.9031119974803249	320287.8604736193
0.9033377754796951	321187.0365854668
0.903563609923565	323029.185895902
0.903789500826046	324096.28319844464
0.9040154482012526	324140.8054987826
0.904241452063303	325824.5060596036
0.9044675124263188	326260.94800149195
0.9046936293044254	326563.5487531086
0.9049198027117517	327704.375651979
0.9051460326624297	329382.8845819298
0.9053723191705955	331004.4817335959
0.9055986622503881	332032.65764728957
0.9058250619159507	333076.597445579
0.9060515181814298	333840.34947877843
0.9062780310609752	333737.10273784265
0.9065046005687405	334404.3389166431
0.906731226718883	335992.81447962107
0.9069579095255627	337272.6152974184
0.907184649002944	337890.48191242176
0.907411445165195	339076.7088076317
0.9076382980264862	339990.20203544764
0.907865207600993	340637.8998524872
0.9080921739028933	341320.5282490284
0.9083191969463691	342096.7964517254
0.9085462767456058	342885.1969148346
0.9087734133147922	342536.8999720219
0.9090006066681211	345274.69836244074
0.909227856819788	347055.16953437024
0.9094551637839932	348065.68423063564
0.9096825275749393	348919.1968024305
0.9099099482068329	348987.3785039136
0.9101374256938848	349874.9818185122
0.9103649600503083	350786.46215975133
0.9105925512903209	351959.71693820134
0.9108201994281437	348718.853225819
0.9110479044780008	351410.2865895622
0.9112756664541204	355963.79551303165
0.911503485370734	357510.7038565742
0.9117313612420768	357483.20263932215
0.9119592940823873	358969.9271292316
0.912187283905908	360851.77407701936
0.9124153307268845	361994.1642511214
0.9126434345595664	362985.8144737522
0.9128715954182063	363747.3881592348
0.9130998133170609	364201.53385795216
0.9133280882703902	364309.44553167553
0.913556420292458	365752.4728832298
0.9137848093975312	366858.2500441456
0.9140132555998806	368935.14546811476
0.9142417589137806	369970.1000643882
