#wavelength	surface flux
0.7	1085.1377142298295
0.7001166666666666	1088.6095230256876
0.7002333527777778	1092.0364240899341
0.700350058336574	1095.3502277423333
0.7004667833462966	1098.7018007956453
0.7005835278101878	1102.0817686309058
0.7007002917314895	1105.4945294370777
0.7008170751134447	1108.9127854029332
0.7009338779592968	1112.3294618167927
0.7010507002722901	1115.7070330475174
0.7011675420556689	1119.0334159132128
0.701284403312678	1122.373097838071
0.7014012840465635	1125.7186993709383
0.7015181842605713	1129.1063778487876
0.701635103957948	1132.41087114412
0.701752043141941	1135.5206895253984
0.701869001815798	1138.9373753392517
0.7019859799827672	1142.5675813780533
0.7021029776460976	1145.9672712387546
0.7022199948090387	1149.3628867111856
0.7023370314748403	1152.8892816219661
0.7024540876467528	1156.425419904277
0.702571163328027	1159.9728082614158
0.7026882585219152	1163.3938839470968
0.7028053732316688	1166.7813881649613
0.7029225074605406	1170.3218860451477
0.7030396612117841	1173.828715925628
0.7031568344886527	1177.269183551651
0.7032740272944008	1180.8987617120515
0.7033912396322832	1184.638899620521
0.7035084715055552	1188.2887496530354
0.7036257229174727	1191.8742822577494
0.7037429938712924	1195.2554860906753
0.7038602843702709	1198.8170522298258
0.7039775944176659	1202.5492616823287
0.7040949240167356	1206.1198655078833
0.7042122731707383	1209.6704122609294
0.7043296418829335	1213.3726505892437
0.7044470301565806	1217.0621045884925
0.70456443799494	1220.7321214218218
0.7046818654012724	1224.4510948318562
0.7047993123788394	1228.191692406561
0.7049167789309024	1231.77980320606
0.7050342650607243	1235.4243818669106
0.7051517707715678	1239.2074744921981
0.7052692960666963	1242.9571400719785
0.705386840949374	1246.6837229928835
0.7055044054228656	1250.4281924276836
0.7056219894904361	1254.1977326444614
0.7057395931553511	1258.0647323399862
0.705857216420877	1261.8929183144087
0.7059748592902804	1265.6800769403653
0.7060925217668288	1269.4649136157589
0.70621020385379	1273.2512398582712
0.7063279055544321	1277.0556991895282
0.7064456268720246	1280.858976178146
0.7065633678098366	1284.6600164668187
0.7066811283711383	1288.4036533957226
0.7067989085592001	1292.1217042979106
0.7069167083772933	1295.9621086687782
0.7070345278286895	1299.7949656617875
0.707152366916661	1303.6059603910874
0.7072702256444803	1307.2888972167711
0.7073881040154211	1310.8851425878277
0.7075060020327569	1315.0616625828052
0.7076239196997625	1319.258823955372
0.7077418570197124	1323.279349433592
0.7078598139958823	1327.2743501273364
0.7079777906315483	1331.2445493412674
0.7080957869299869	1335.2525645913433
0.7082138028944751	1339.2846825134868
0.7083318385282908	1343.4293724424035
0.7084498938347124	1347.5174681668393
0.708567968817018	1351.527973450939
0.7086860634784875	1355.2447499295272
0.7088041778224007	1358.8416121043322
0.7089223118520377	1362.1404943184864
0.7090404655706796	1366.0077157003457
0.709158638981608	1370.965838208967
0.709276832088105	1375.242330195534
0.7093950448934531	1379.152086686069
0.7095132774009353	1382.0837033476957
0.7096315296138355	1385.6320261906162
0.7097498015354378	1390.9939406221997
0.7098680931690269	1395.767091689286
0.7099864045178884	1400.106269117446
0.7101047355853081	1404.3059988047114
0.7102230863745722	1408.497614506514
0.7103414568889679	1412.7286591905588
0.7104598471317828	1416.9313749269218
0.7105782571063047	1421.106384890627
0.7106966868158224	1425.0622304219407
0.710815136263625	1429.044672609304
0.7109336054530023	1433.542425983224
0.7110520943872445	1437.9870853405466
0.7111706030696424	1442.363850056306
0.7112891315034873	1446.7164449391948
0.7114076796920712	1451.0612357406503
0.7115262476386865	1455.4021882700222
0.7116448353466263	1459.7074217889633
0.711763442819184	1463.9534163890671
0.711882070059654	1468.2769174547511
0.7120007170713306	1472.6349497393567
0.7121193838575091	1476.9272184192516
0.7122380704214853	1481.2553653546433
0.7123567767665555	1485.6587053209191
0.7124755028960166	1490.0016345693548
0.7125942488131658	1494.3102782784188
0.7127130145213015	1498.6123905533902
0.7128318000237216	1502.9204637086561
0.7129506053237256	1507.2446107555559
0.7130694304246129	1511.5989306708382
0.7131882753296837	1515.9749328713303
0.7133071400422386	1520.3986977622149
0.7134260245655789	1524.772706180949
0.7135449289030065	1528.9488719594585
0.7136638530578235	1533.745837921624
0.7137827970333332	1539.0785113202492
0.7139017608328388	1543.5818822749754
0.7140207444596443	1547.9639014898573
0.7141397479170543	1552.433173802384
0.7142587712083737	1556.7724152499716
0.7143778143369084	1560.97828662268
0.7144968773059646	1565.9822654979973
0.7146159601188489	1571.102405803874
0.7147350627788687	1575.7883840769014
0.7148541852893318	1580.4021989576188
0.7149733276535467	1584.929349568235
0.7150924898748222	1589.4434333488123
0.715211671956468	1594.0103188990909
0.7153308739017941	1599.094197079553
0.715450095714111	1604.0269579964981
0.71556933739673	1608.750813138089
0.7156885989529628	1612.925253278557
0.7158078803861218	1616.9703644744689
0.7159271816995193	1621.8704587611724
0.7160465028964692	1626.4305803742307
0.7161658439802853	1630.4577353031393
0.7162852049542819	1633.646315750944
0.7164045858217744	1636.459835980596
0.716523986586078	1638.2946856816975
0.7166434072505089	1639.3893075221285
0.716762847818384	1639.1870963610977
0.7168823082930204	1644.3708315290282
0.7170017886777359	1652.012566415274
0.7171212889758488	1661.341327682139
0.7172408091906781	1669.2222834254246
0.7173603493255433	1674.3086224684532
0.7174799093837642	1677.7317190108022
0.7175994893686615	1680.3295344148569
0.7177190892835562	1687.1562345804698
0.7178387091317702	1694.2933209655005
0.7179583489166254	1702.0401928047372
0.7180780086414448	1707.9799322614015
0.7181976883095517	1712.9549308076364
0.7183173879242699	1718.033465315822
0.718437107488924	1722.7388345158154
0.7185568470068389	1726.6076857958542
0.7186766064813399	1729.9882749636752
0.7187963859157535	1733.093976805618
0.7189161853134061	1741.4723080379388
0.719036004677625	1749.2735278333641
0.7191558440117378	1755.3472352999509
0.7192757033190732	1760.3892934543328
0.7193955826029597	1764.8297640317464
0.7195154818667269	1769.761531233988
0.7196354011137046	1774.9735592538268
0.7197553403472235	1780.8088968242191
0.7198752995706147	1786.2984778243685
0.7199952787872098	1791.583296842177
0.720115278000341	1796.38777396299
0.7202352972133411	1800.9483109235664
0.7203553364295432	1804.9693926392501
0.7204753956522815	1809.8573605093025
0.7205954748848902	1815.2593655550656
0.7207155741307044	1820.9650341200895
0.7208356933930594	1826.8432042455943
0.7209558326752915	1833.1001435744417
0.7210759919807375	1838.8263173261769
0.7211961713127342	1844.2443013853679
0.7213163706746197	1849.185470526226
0.7214365900697322	1854.425685451562
0.7215568295014103	1860.3844315188635
0.721677088972994	1866.2476525432958
0.7217973684878227	1872.0577907455604
0.7219176680492374	1876.340691924503
0.7220379876605789	1881.2177540682776
0.722158327325189	1887.4561383915448
0.7222786870464099	1893.6363693935134
0.7223990668275843	1899.786276557554
0.7225194666720555	1905.0365086821462
0.7226398865831676	1910.4877037218876
0.7227603265642646	1916.358073498327
0.722880786618692	1921.1541229139382
0.7230012667497951	1925.4423070075027
0.7231217669609201	1931.5657980765066
0.7232422872554135	1937.1428130951647
0.7233628276366229	1941.7076991020426
0.7234833881078956	1947.249323894218
0.7236039686725803	1953.1443556883535
0.7237245693340255	1956.6112747635489
0.7238451900955812	1961.6953095482133
0.7239658309605971	1969.4789434841634
0.7240864919324239	1976.338293829303
0.7242071730144127	1982.7964474764215
0.724327874209915	1988.6760316048703
0.7244485955222832	1994.262770281964
0.7245693369548704	1999.4142698570959
0.7246900985110294	2005.4212027329359
0.7248108801941148	2011.7694295307886
0.7249316820074803	2018.6178767413517
0.7250525039544815	2024.8366843912265
0.7251733460384739	2030.2356213564424
0.7252942082628137	2035.3046599313604
0.7254150906308574	2040.2794307921854
0.7255359931459625	2045.2444744128113
0.7256569158114868	2051.215612656954
0.7257778586307888	2058.3184461176484
0.7258988216072273	2063.8451985302877
0.7260198047441617	2069.1870444027572
0.7261408080449525	2075.3862781365333
0.72626183151296	2079.924984667623
0.7263828751515454	2082.8735533610707
0.7265039389640706	2091.0945196559487
0.726625022953898	2099.5192222238297
0.7267461271243904	2105.3867595763527
0.7268672514789111	2111.388405136103
0.7269883960208241	2117.49771489358
0.7271095607534942	2124.439928694491
0.7272307456802866	2131.4815088972327
0.7273519508045666	2138.553937701103
0.7274731761297006	2144.7101360007305
0.7275944216590555	2150.264867102956
0.7277156873959987	2155.6888029702022
0.7278369733438982	2160.771813367847
0.727958279506122	2165.0905346239792
0.7280796058860397	2172.4379554970055
0.7282009524870207	2181.3605235312552
0.7283223193124353	2188.6069805061234
0.7284437063656539	2195.5841725814585
0.7285651136500483	2202.081727934704
0.7286865411689898	2208.090976552258
0.7288079889258514	2213.7382862161767
0.7289294569240056	2217.0339285548002
0.7290509451668262	2221.6093162149127
0.7291724536576875	2227.9570469323335
0.7292939823999636	2234.857398639881
0.7294155313970303	2241.9466880022314
0.7295371006522632	2249.215326755058
0.7296586901690385	2255.7727871366446
0.7297802999507332	2261.567731746897
0.7299019300007252	2268.495657240522
0.7300235803223919	2274.8990379957845
0.7301452509191123	2278.2065255072966
0.7302669417942654	2282.946856974528
0.7303886529512311	2288.8595900384416
0.7305103843933897	2289.6775198199434
0.7306321361241218	2293.9488331646685
0.7307539081468093	2309.313515804373
0.7308757004648336	2320.6458136692095
0.7309975130815778	2329.522827564201
0.7311193460004248	2335.343872180472
0.7312411992247582	2341.793475486375
0.7313630727579622	2349.5977277782617
0.7314849666034219	2356.7379862590583
0.7316068807645224	2363.4793447978072
0.7317288152446498	2368.3674980001774
0.7318507700471907	2373.4237695721617
0.7319727451755319	2378.715499676161
0.732094740633061	2387.570481071098
0.7322167564231665	2396.8339559583765
0.7323387925492371	2402.216408699422
0.7324608490146619	2409.24215269418
0.732582925822831	2417.9214118266664
0.7327050229771347	2425.204380092215
0.7328271404809642	2431.996636362098
0.7329492783377112	2437.863738611449
0.7330714365507675	2444.903412825594
0.7331936151235259	2452.7762588485602
0.7333158140593796	2459.5554038030423
0.7334380333617229	2465.81893788466
0.7335602730339499	2471.0732007936344
0.7336825330794556	2479.084595076303
0.7338048135016354	2488.340724439288
0.7339271143038857	2495.5595273038116
0.734049435489603	2501.6304377553943
0.7341717770621846	2506.0078974384683
0.7342941390250283	2513.0149340005282
0.7344165213815324	2520.6644645357496
0.734538924135096	2527.3736233838135
0.7346613472891185	2534.8945873156067
0.734783790847	2543.2240393552597
0.7349062548121412	2548.818201451023
0.7350287391879431	2553.0547464890074
0.7351512439778078	2554.2220107440853
0.7352737691851374	2563.2924710197058
0.735396314813335	2577.5886180716093
0.7355188808658037	2585.307083756989
0.7356414673459482	2593.3400524335484
0.7357640742571725	2602.3863347796246
0.7358867016028818	2609.883278544652
0.7360093493864824	2616.776185939906
0.7361320176113801	2624.1239180101734
0.736254706280982	2631.0597227546036
0.7363774153986956	2637.4831823300765
0.7365001449679286	2642.2433977151
0.7366228949920899	2647.025858237634
0.7367456654745885	2653.5402359170635
0.7368684564188344	2663.56757019862
0.7369912678282374	2676.3844463369305
0.7371140997062088	2685.371997776399
0.7372369520561599	2693.649275365879
0.7373598248815024	2700.9549144334906
0.7374827181856494	2708.3981483693497
0.7376056319720137	2715.9396140210865
0.7377285662440091	2724.1226552818607
0.7378515210050496	2731.594935890215
0.7379744962585505	2738.080938334069
0.738097492007927	2745.0101192462143
0.7382205082565949	2752.0450226610183
0.738343545007971	2759.0255894705406
0.7384666022654723	2766.6258297873837
0.7385896800325165	2774.7517003746157
0.7387127783125219	2783.480263595299
0.7388358971089073	2792.0651821392185
0.7389590364250921	2800.1651684292706
0.7390821962644963	2808.17672679699
0.7392053766305403	2816.146476049755
0.7393285775266454	2824.152727144655
0.7394517989562333	2832.175847168588
0.7395750409227259	2840.2217276135066
0.7396983034295463	2848.072065099724
0.739821586480118	2855.713670434311
0.7399448900778645	2862.6024380695917
0.7400682142262109	2870.5864155026234
0.740191558928582	2879.455757702954
0.7403149241884034	2887.0426956675
0.7404383100091014	2894.695348116796
0.7405617163941028	2902.7019088521647
0.7406851433468352	2911.2056735538495
0.7408085908707264	2919.7475005234514
0.7409320589692048	2925.7988606759036
0.7410555476456997	2934.0675605272327
0.7411790569036406	2945.048913057721
0.7413025867464579	2953.359000337329
0.7414261371775823	2961.0385534954034
0.7415497082004452	2968.3983809110327
0.7416732998184786	2976.3383587635403
0.741796912035115	2984.6769320369353
0.7419205448537874	2992.13624067218
0.7420441982779297	3000.081356864728
0.742167872310976	3008.939611320916
0.7422915669563612	3018.5096660355985
0.7424152822175206	3028.1393330971205
0.7425390180978901	3036.413371916947
0.7426627746009065	3044.262895869036
0.7427865517300065	3051.6999277990776
0.7429103494886282	3061.6867262406063
0.7430341678802096	3071.6660105691235
0.7431580069081896	3080.8076698954183
0.7432818665760077	3089.691847474662
0.7434057468871037	3098.428837592774
0.7435296478449182	3106.842641545186
0.7436535694528923	3115.052679200123
0.7437775117144678	3122.9945946934604
0.7439014746330868	3130.665899605105
0.7440254582121922	3138.5413855964794
0.7441494624552276	3147.4368713919534
0.7442734873656368	3156.028774507359
0.7443975329468645	3164.4122800842847
0.7445215992023557	3172.8841004432416
0.7446456861355559	3181.35205275875
0.7447697937499119	3189.809326830555
0.7448939220488703	3199.0327148965785
0.7450180710358784	3208.5586618697257
0.7451422407143843	3218.409363067824
0.7452664310878367	3227.7894202474913
0.7453906421596846	3236.760337921411
0.7455148739333779	3245.7144667978337
0.7456391264123667	3254.825053214256
0.7457633996001021	3264.2776085974197
0.7458876935000356	3273.1562124701936
0.7460120081156189	3281.793209588134
0.7461363434503048	3290.40507716392
0.7462606995075466	3299.3614893511844
0.7463850762907978	3308.679278485302
0.7465094738035127	3318.221591047193
0.7466338920491467	3327.842783098544
0.746758331031155	3337.59083871532
0.7468827907529935	3346.8758734562844
0.7470072712181189	3355.9749801851194
0.7471317724299886	3365.82402836191
0.7472562943920602	3375.5050165982248
0.7473808371077922	3384.981909615355
0.7475054005806435	3393.507111360664
0.7476299848140736	3402.133892371333
0.7477545898115426	3411.6251280493293
0.7478792155765113	3421.000796777038
0.7480038621124406	3430.261898373034
0.7481285294227926	3437.9930041626903
0.7482532175110298	3446.9682486139027
0.7483779263806148	3457.6144022579288
0.7485026560350116	3467.4144865176727
0.7486274064776842	3477.14937149085
0.748752177712097	3487.2962062905485
0.7488769697417158	3497.208991595568
0.749001782570006	3506.9796086997044
0.7491266162004343	3516.9363547685866
0.7492514706364677	3526.7950042913067
0.7493763458815739	3536.5130469877013
0.7495012419392209	3546.2071714649283
0.7496261588128773	3555.9058313610035
0.7497510965060128	3565.6396660807313
0.7498760550220971	3575.3546086019333
0.7500010343646007	3585.0553026670423
0.7501260345369949	3594.4370754600545
0.750251055542751	3603.8354174343585
0.7503760973853414	3613.2570683476183
0.7505011600682389	3622.9541439791574
0.750626243594917	3632.6636853737323
0.7507513479688495	3642.171927408939
0.7508764731935109	3651.755992900142
0.7510016192723765	3661.3969900281486
0.7511267862089218	3671.6572985422385
0.7512519740066232	3681.726651117851
0.7513771826689577	3691.5262354898664
0.7515024121994025	3701.5394587363635
0.7516276626014359	3711.594939624309
0.751752933878536	3721.6286195627135
0.7518782260341824	3731.3069076386887
0.7520035390718548	3740.788131265363
0.7521288729950334	3750.8281856228323
0.7522542278071992	3760.8262633286695
0.7523796035118337	3770.7687450471126
0.7525050001124189	3780.9329295392276
0.7526304176124378	3791.0983478082153
0.7527558560153731	3801.1304795841215
0.752881315324709	3811.3386648236547
0.7530067955439299	3821.633049894569
0.7531322966765205	3831.7512483428904
0.7532578187259665	3841.9988728185103
0.7533833616957542	3852.397807991504
0.75350892558937	3862.56437653278
0.7536345104103016	3872.6626634381937
0.7537601161620366	3882.6723326839506
0.7538857428480638	3892.499387359911
0.7540113904718717	3902.2668085765067
0.7541370590369503	3912.28128890121
0.7542627485467898	3922.240199109421
0.7543884590048808	3932.1433448482962
0.7545141904147151	3942.673528638623
0.7546399427797842	3953.206409500663
0.7547657161035808	3963.6072370417405
0.754891510389598	3973.916723688644
0.7550173256413296	3984.1430292394766
0.7551431618622698	3994.0577488229183
0.7552690190559135	4003.9944743658693
0.7553948972257561	4013.9496202144414
0.7555207963752938	4024.342030128335
0.755646716508023	4034.7696549668854
0.755772657627441	4045.224586460935
0.7558986197370455	4055.3902610544455
0.756024602840335	4065.467660223442
0.7561506069408084	4075.5085070506852
0.7562766320419653	4085.5213610078904
0.7564026781473054	4095.510475734304
0.75652874526033	4105.211761671619
0.7566548333845401	4115.078151370115
0.7567809425234375	4125.15866836797
0.7569070726805247	4135.270310799728
0.7570332238593047	4145.287767315747
0.7571593960632813	4155.024032835128
0.7572855892959586	4164.725156336204
0.7574118035608413	4174.4137878981455
0.7575380388614347	4184.136369914644
0.7576642952012449	4193.878928851036
0.7577905725837782	4203.640804602637
0.7579168710125422	4213.437756785871
0.7580431904910444	4223.219534753399
0.7581695310227928	4232.965394035532
0.7582958926112967	4242.412005527403
0.7584222752600652	4251.753903484629
0.7585486789726085	4261.047469112814
0.7586751037524372	4270.361751950615
0.7588015496030628	4279.688786522498
0.7589280165279966	4288.864116413627
0.7590545045307512	4297.757177799162
0.7591810136148396	4306.276850680881
0.7593075437837755	4315.247769675874
0.7594340950410726	4324.120332159653
0.7595606673902461	4332.508135848093
0.7596872608348112	4340.78488617474
0.7598138753782836	4349.015031076141
0.75994051102418	4357.268576341336
0.7600671677760173	4365.485354741688
0.7601938456373134	4373.669715066858
0.7603205446115863	4381.362530444363
0.7604472647023548	4388.835366164416
0.7605740059131385	4395.979747049749
0.7607007682474575	4402.988125687225
0.7608275517088319	4409.84617927087
0.7609543563007835	4416.287164674382
0.7610811820268336	4422.388616418548
0.7612080288905045	4428.282025073128
0.7613348968953197	4433.917016841834
0.7614617860448022	4439.112848710778
0.7615886963424764	4443.845742938841
0.7617156277918667	4448.234169144295
0.7618425803964988	4452.285812697873
0.7619695541598982	4455.736143817455
0.7620965490855914	4458.893119821556
0.7622235651771058	4461.7537041884525
0.7623506024379685	4463.718117169191
0.7624776608717082	4464.937366214746
0.7626047404818536	4465.647312981808
0.7627318412719337	4465.44768385441
0.762858963245479	4464.523533449008
0.7629861064060198	4462.7616155077785
0.7631132707570876	4460.074214457972
0.7632404563022137	4456.742077339943
0.7633676630449308	4452.271306606345
0.7634948909887717	4446.686604436387
0.7636221401372697	4440.402828131941
0.7637494104939593	4432.604607603664
0.7638767020623748	4423.595056501024
0.7640040148460518	4413.702648636527
0.7641313488485262	4401.255022211445
0.7642587040733344	4387.400937047958
0.7643860805240132	4371.901919944882
0.7645134782041005	4355.547349047128
0.7646408971171346	4338.3486648015105
0.764768337266654	4319.58820351745
0.7648957986561985	4299.62186312859
0.7650232812893079	4278.772379157154
