#wavelength	surface flux
0.676892	74.97541446336277
0.678297	78.27054493533213
0.679702	81.6909354922056
0.681109	85.24923117031328
0.682517	88.95213054078175
0.683926	92.79602975012898
0.685337	96.79739275332012
0.686749	100.9536543735952
0.688164	105.27968794040748
0.689581	109.77031788129256
0.691	114.41941240870909
0.692422	119.1687732313526
0.693847	124.25858981520952
0.695274	129.5663419198637
0.696705	135.05187123709587
0.698139	140.72207155633728
0.699576	146.5597607867745
0.701017	152.74512529378356
0.702461	159.1148452715667
0.70391	165.75946934685354
0.705362	172.67595316802917
0.706819	179.84251160519787
0.70828	187.27293878016883
0.709745	194.98136072052745
0.711216	203.10364410034524
0.71269	211.4656483641956
0.71417	220.15197045187736
0.715655	228.98679496287482
0.717145	237.63649194651703
0.71864	248.04618329757588
0.72014	258.48246408158036
0.721647	269.13867059864
0.723158	280.11538595010967
0.724676	291.5799867618559
0.726199	303.44715156435086
0.727728	315.95237818120165
0.729264	328.65094225150585
0.730805	341.82298866830774
0.732353	356.244179309447
0.733907	370.7726517186271
0.735468	385.53831261087794
0.737035	401.44032396488575
0.738609	418.13099632972137
0.74019	435.1273384069475
0.741777	452.75581676598364
0.743372	471.27231766136157
0.744973	490.42437610948554
0.746582	510.48021296799334
0.748197	531.234816109051
0.74982	552.9823770193359
0.751451	575.4203579504965
0.753088	598.8131102989406
0.754734	623.1302883829536
0.756386	648.4453547347629
0.758047	674.744599621615
0.759715	702.0444202831984
0.76139	730.3847279592416
0.763074	759.7585638092479
0.764765	789.5255446432022
0.766464	819.4433150680948
0.768172	853.8724381149402
0.769887	887.6397228765622
0.77161	925.3469456020083
0.773341	963.8933152751313
0.775081	1003.1271377574091
0.776829	1043.8325991410927
0.778585	1085.9462599525925
0.780349	1129.2204142605547
0.782121	1175.4175525090611
0.783902	1222.9195673542558
0.785691	1272.2365682030581
0.787489	1323.3901810703649
0.789295	1376.500127621066
0.79111	1432.1191595874914
0.792933	1489.8142617811188
0.794764	1548.9496612880155
0.796604	1611.7948921510251
0.798453	1676.5619044233074
0.80031	1743.6515213408713
0.802176	1813.778526637098
0.804051	1886.6155399328225
0.805934	1962.1663353961787
0.807826	2040.460122739161
0.809727	2119.512774741182
0.811636	2199.457057763434
0.813554	2283.823234019735
0.81548	2379.2187080163962
0.817416	2473.2768504802148
0.81936	2575.329714061893
0.821313	2681.4992824942924
0.823274	2774.799827805183
0.825244	2897.37499535033
0.827223	3010.3785213238316
0.829211	3131.0738959368623
0.831208	3254.3539157224814
0.833213	3386.6611747833126
0.835227	3519.8500990292246
0.837249	3657.2516989366695
0.83928	3802.7541694113083
0.841321	3955.2843456075475
0.843369	4112.589195426973
0.845427	4272.68830206349
0.847493	4440.768902561546
0.849567	4615.135619820526
0.851651	4797.006208916289
0.853742	4984.694176174679
0.855843	5179.781020298732
0.857952	5381.785648534371
0.86007	5589.212886036712
0.862196	5788.389297306572
0.864331	6014.197826536597
0.866474	6258.351221978266
0.868626	6502.287426988041
0.870786	6750.832457403068
0.872955	7011.635131994272
0.875132	7283.174345605113
0.877317	7562.8211885550545
0.879511	7853.392536907965
0.881713	8153.019732074303
0.883923	8464.90775808678
0.886142	8786.945929503685
0.888369	9119.143346082206
0.890604	9446.888259308778
0.892847	9784.957950335196
0.895099	10159.577755042552
0.897358	10432.879574207047
0.899626	10860.113087291773
0.901901	11351.437315531652
0.904185	11797.772848735513
0.906476	12233.894986733205
0.908776	12670.796627379968
0.911083	13127.54041559526
0.913398	13635.095114964977
0.915721	14116.543531207846
0.918051	14622.597980436412
0.92039	15139.345031479586
0.922736	15749.382956942083
0.925089	16225.958643603028
0.927451	16610.211064046995
0.929819	16735.918025040795
0.932195	16806.097599455432
0.934579	17097.06659544813
0.93697	18293.52180514702
0.939369	19861.72931676997
0.941774	20730.756639391948
0.944187	21280.29647160824
0.946607	21462.919670901396
0.949035	22230.36123630565
0.951469	23350.122787342545
0.953911	24274.800901807714
0.956359	24294.574233125684
0.958814	25987.913066335204
0.961277	26841.578912164518
0.963746	28073.100557238526
0.966222	29059.911890979914
0.968705	30390.370871467552
0.971194	31220.686989595117
0.97369	32223.097199642096
0.976193	33542.32166656866
0.978702	34794.46840856615
0.981217	35950.350736988345
0.983739	37278.87036712915
0.986268	38563.50472996432
0.988802	39906.5256971493
0.991343	41293.38014514749
0.99389	42679.55182385443
0.996444	44163.50409751542
0.999003	45603.53268623881
1.00157	47045.5693167294
1.00414	48568.21634625328
1.00672	50136.56166018493
1.0093	51737.48810815393
1.01189	53396.884063900005
1.01448	55093.878062137286
1.01708	56838.85950839684
1.01969	58633.77009392051
1.0223	60473.61648883145
1.02492	62360.592683230694
1.02754	64301.83185058405
1.03017	66293.71533147382
1.0328	68329.39166944014
1.03544	70433.80775002425
1.03808	72577.39413906877
1.04073	74789.99244848675
1.04339	77055.90235379791
1.04604	79363.975889929
1.04871	81750.03072344515
1.05138	84195.90150796428
1.05405	86694.78669750775
1.05673	89264.56774551522
1.05941	91858.24522380758
1.0621	94715.17385300381
1.06479	97637.02258954711
1.06749	100381.58102708535
1.07019	103340.17040030511
1.07289	106328.03333549916
1.0756	109390.71946840163
1.07832	112441.14233157232
1.08104	115655.14008050921
1.08376	118953.7125204132
1.08649	122154.35737208764
1.08922	125577.44377501623
1.09195	128799.79335673506
1.09469	132262.51686324496
1.09743	134947.05356025006
1.10018	137591.96305311544
1.10293	140123.0795026217
1.10568	143059.2714486018
1.10844	146149.09651558893
1.1112	145733.11617441845
1.11396	141427.97310177961
1.11673	144311.76093476446
1.1195	152843.02935833368
1.12228	142611.48117385554
1.12505	144165.13216041558
1.12783	166539.8022287195
1.13062	180394.30171350803
1.13341	166325.88160075105
1.1362	179512.42946522645
1.13899	197078.66105806417
1.14178	202546.0396579516
1.14458	199159.58593762582
1.14738	191209.9152840741
1.15019	201422.51620238266
1.153	218847.51235873636
1.1558	219182.48379051054
1.15862	232751.78723942794
1.16143	237164.96230850826
1.16425	236183.2844862828
1.16707	251699.03725280377
1.16989	254868.46507536955
1.17271	262525.6183041121
1.17554	270909.486221483
1.17837	279147.64095289126
1.1812	288258.44441275543
1.18403	295001.97051330976
1.18686	302455.40656886226
1.1897	309059.0750519767
1.19253	317703.7648246316
1.19537	325202.0565729497
1.19822	331403.65336036886
1.20106	340472.0960340944
1.2039	348149.1129485257
1.20675	356561.220359332
1.2096	364380.5062695054
1.21245	371880.4088080313
1.2153	380850.78398765926
1.21815	390010.2849608435
1.221	398483.486012594
1.22385	407078.41312594723
1.22671	416196.011557693
1.22957	425206.59754025383
1.23242	434335.05457568896
1.23528	444054.9842974883
1.23814	453627.04123875627
1.241	463095.7469600894
1.24387	472963.4704548037
1.24673	482713.49570206716
1.24959	492709.1229289869
1.25245	502986.33383572125
1.25532	513223.703702724
1.25818	523923.2966168705
1.26105	534546.6816869889
1.26392	545426.2744494495
1.26678	556280.300808501
1.26965	567132.7860069484
1.27252	577728.6611372642
1.27538	589709.3843331791
1.27825	601070.9876666755
1.28112	612105.100690453
1.28399	622450.4407692371
1.28686	634945.3405106225
1.28973	647133.3935874266
1.2926	657005.5917018187
1.29546	662738.7082555289
1.29833	677988.6471570322
1.3012	692357.2657103231
1.30407	706344.1954199104
1.30694	721326.3004262365
1.30981	734901.0148235193
1.31267	744641.637827685
1.31554	757681.9391828192
1.31841	760032.295936848
1.32128	785141.0262273363
1.32414	797873.6417412567
1.32701	810262.688898692
1.32987	809305.775359152
1.33274	802057.1522313632
1.3356	798137.9823153612
1.33847	655566.976529586
1.34133	582951.0102165897
1.34419	557329.4148227145
1.34705	500436.28415757697
1.34991	513929.85209081473
1.35277	633219.6750859844
1.35563	449047.91483068606
1.35849	394708.4665993607
1.36135	443608.63592493813
1.3642	597726.0809982303
1.36706	616144.1237135103
1.36991	654824.5027396808
1.37277	722033.0112364074
1.37562	694604.5607515327
1.37847	805935.4959442238
1.38132	662852.030070422
1.38417	624060.9459013959
1.38701	550307.721888734
1.38986	708078.1190053588
1.39271	653030.434847671
1.39555	575430.0124933609
1.39839	733816.2292405433
1.40123	730732.509287356
1.40407	825043.0956559379
1.40691	833995.6223875403
1.40974	827912.2463993272
1.41258	868170.1344493856
1.41541	834609.523487819
1.41824	680498.189259897
1.42107	736662.4478421735
1.4239	709482.7906267563
1.42673	948457.6508024829
1.42955	1005794.6891361586
1.43237	866312.2607150739
1.43519	981237.4497709813
1.43801	1063533.6932770947
1.44083	1033040.1699602348
1.44365	1148542.4572514785
1.44646	1170617.8187841019
1.44927	1217617.0289792106
1.45208	1262377.122423984
1.45489	1220091.175157838
1.45769	1431594.0336733488
1.4605	1523755.7474808865
1.4633	1424885.3482475788
1.4661	1540309.6651188224
1.4689	1499928.7594924695
1.47169	1580803.5793874199
1.47449	1587503.489612144
1.47728	1622391.8493819092
1.48007	1654629.580549115
1.48286	1653821.7072596997
1.48564	1727074.0559897276
1.48842	1751190.2930383452
1.4912	1789523.3639352059
1.49398	1827733.3272698156
1.49676	1830135.6527923006
1.49953	1897972.0734439746
1.5023	1894624.4720111003
1.50507	1969829.524764032
1.50784	1989975.8617813012
1.51061	2032661.6106739277
1.51337	2062851.7623290184
1.51613	2099185.38654734
1.51888	2131019.5436509475
1.52164	2165489.703081288
1.52439	2200579.832019425
1.52714	2203385.9505268717
1.52989	2241562.618305424
1.53263	2300420.097839579
1.53538	2341111.16345562
1.53812	2368960.5897449534
1.54086	2391603.238006162
1.54359	2411126.326668422
1.54632	2452423.7539204727
1.54905	2479823.5052388282
1.55178	2515639.165393327
1.5545	2544447.7848432963
1.55723	2573962.1105282055
1.55995	2594814.050204528
1.56266	2621783.9195077717
1.56538	2662969.8594794176
1.56809	2699389.9712153873
1.5708	2719398.42229377
1.57351	2753212.9745958815
1.57621	2790726.1816530274
1.57891	2814624.3156664465
1.58161	2842558.79103974
1.5843	2872460.1220119055
1.587	2896904.710804851
1.58969	2930585.9408178655
1.59238	2963304.231554664
1.59506	2993049.4398582126
1.59774	3023242.74013403
1.60042	3055181.3685934977
1.6031	3084272.474262167
1.60577	3113410.0231830776
1.60844	3144245.2494255137
1.61111	3176808.532244701
1.61378	3207831.19375615
1.61644	3236658.768124253
1.6191	3260043.700835376
1.62176	3263478.9142214227
1.62441	3238888.0557162715
1.62707	3234810.329763814
1.62971	3192362.6448657773
1.63236	3215467.809866707
1.635	3358597.372369594
1.63764	3446033.187063002
1.64028	3458549.493749702
1.64292	3510990.6917092865
1.64555	3521134.927003007
1.64818	3550238.9065108886
1.65081	3587035.2267162027
1.65343	3606980.2397669572
1.65605	3556217.5364143546
1.65867	3646030.976684031
1.66128	3701725.464957228
1.6639	3683557.736395636
1.66651	3343493.459678704
1.66911	3425094.6165258894
1.67172	3800836.410016354
1.67432	3885353.9910859596
1.67692	3896047.2300447114
1.67951	3928049.8805058054
1.68211	3877526.121356889
1.6847	3870508.7905996954
1.68728	4002910.1457502963
1.68987	4041013.9381849454
1.69245	3889034.8803277705
1.69503	3835005.616153592
1.6976	4012393.528358987
1.70018	3859894.420618781
1.70275	3858593.8731257734
1.70531	3923609.0135012893
1.70788	4024161.8176512816
1.71044	4225357.61260759
1.713	4318284.05074587
1.71556	4368764.625299274
1.71811	4395947.82198872
1.72066	4336746.832096954
1.72321	4202725.258032065
1.72575	4203906.899823472
1.7283	4226693.283185519
1.73084	4234027.4411134645
1.73337	4220561.2099597
1.73591	4122331.182230058
1.73844	4343955.252702267
1.74097	4447150.538429404
1.74349	4510125.662967777
1.74602	4561183.245454576
1.74854	4646391.00240286
1.75105	4641289.556933884
1.75357	4413034.593154872
1.75608	4274713.670242649
1.75859	4361688.017002998
1.7611	4354450.128662582
1.7636	4324500.492961965
1.7661	4129888.7783835856
1.7686	4055595.6548845405
1.7711	4284493.4252836425
1.77359	4018550.0369854607
1.77608	3527029.365345977
1.77857	3728375.059592248
1.78105	3808065.5344304484
1.78354	3380267.284331597
1.78602	3204376.6331324824
1.78849	3453447.4338484537
1.79097	3197620.0638088677
1.79344	3255746.799455679
1.79591	3427821.613564241
1.79837	3539273.943961008
1.80084	2774732.944920044
1.8033	2800822.76299785
1.80576	2900882.1964156656
1.80821	2660590.5784692615
1.81067	2511491.741039573
1.81312	3051019.508132723
1.81557	3616024.1752022654
1.81801	3388996.536111088
1.82046	3178612.677050008
1.8229	3696194.971540698
1.82533	3972106.4428615435
1.82777	3513991.794836763
1.8302	3300940.6154279136
1.83263	3315814.449587252
1.83506	3282325.272285709
1.83749	3277880.8905438464
1.83991	3159095.8388064606
1.84233	3381819.166712743
1.84475	3879876.019748158
1.84716	3406865.633148573
1.84957	3391010.3043730874
1.85198	4037254.504875141
1.85439	3902175.522919003
1.8568	3378671.121983071
1.8592	2845061.7396135023
1.8616	2373275.461791558
1.864	2405005.791637169
1.86639	2521126.222938447
1.86878	2313656.9189991155
1.87118	2487728.939940947
1.87356	2842180.799472136
1.87595	3407020.6293586837
1.87833	4171117.0060595563
1.88071	4441435.197449729
1.88309	4190163.446316957
1.88547	3918151.3227561857
1.88784	4013651.656032974
1.89021	3965617.727958771
1.89258	4182301.024223605
1.89494	4505983.368736188
1.89731	4186893.2098885807
1.89967	3664744.4948650976
1.90203	3777236.5514102965
1.90439	3890813.4123375444
1.90674	4509758.872082889
1.90909	5055697.696816927
1.91144	4200948.124758099
1.91379	3585614.7299574367
1.91613	4270088.046674202
1.91848	4664915.2892258195
1.92082	4025374.533386616
1.92315	3609282.7249624273
1.92549	4119204.2862701816
1.92782	4350748.6042022975
1.93015	3963108.201457928
1.93248	4150154.3036959814
1.93481	4386943.796824749
1.93713	3482411.9197993274
1.93945	2612912.438914704
1.94177	3268528.0806820416
1.94409	3749365.1596403806
1.94641	3608284.9952488556
1.94872	3651402.524367074
1.95103	4332265.525054482
1.95334	4493575.171551927
1.95564	3692232.1553497324
1.95795	3476812.315759282
1.96025	3605320.7255223873
1.96255	3861081.028875842
1.96484	4638977.55400549
1.96714	5276950.643562376
1.96943	5217664.885171906
1.97172	5168935.075328255
1.97401	5190347.1997664515
1.97629	5181942.780711293
1.97858	5356980.320492892
1.98086	5295185.64057828
1.98314	5657935.506611552
1.98541	6131879.376482348
1.98769	5770631.370408673
1.98996	5231269.122118922
1.99223	5527093.116657804
1.9945	6200904.593312259
1.99677	6265316.494082303
1.99903	5921049.814176678
2.00129	6008582.219082317
2.00355	6410864.9487953
2.00581	6756915.480684575
2.00806	6851005.386304638
2.01031	6960499.665249588
2.01256	7263050.0150241805
2.01481	7266443.281412229
2.01706	6900718.452635863
2.0193	6925300.257121269
2.02154	7351797.3989619445
2.02378	7506313.212048533
2.02602	7390140.852644688
2.02825	7219330.306495311
2.03049	7106240.781101622
2.03272	7308159.209463362
2.03494	7580519.971926828
2.03717	7663848.163591248
2.03939	7694995.062778639
2.04162	7710704.718092393
2.04384	7710668.50085955
2.04605	7588312.6074629165
2.04827	7286261.333655974
2.05048	7267121.124749775
2.05269	7547346.552382793
2.0549	7712445.707104451
2.05711	7725454.221115535
2.05931	7618347.001332231
2.06151	7569376.638917937
2.06371	7651250.563944835
2.06591	7728599.230390008
2.06811	7792937.497390647
2.0703	7864836.104354287
2.07249	7934480.743622903
2.07468	7981115.603178961
2.07686	8007459.288808337
2.07905	8030768.433964232
2.08123	8047741.917545097
2.08341	8040267.324343887
2.08559	8018270.156803235
2.08776	8030230.407574929
2.08994	8057954.831493857
2.09211	8074323.947344724
2.09428	8101793.303745209
2.09645	8121118.474104013
2.09861	8117225.956750957
2.10077	8126581.780415747
2.10293	8159597.08536408
2.10509	8179884.390048925
2.10725	8157631.382661237
2.1094	8081915.706619031
2.11155	7967258.243674196
2.1137	7926369.735568863
2.11585	8011861.794742365
2.11799	8127500.083667823
2.12013	8220726.57295565
2.12227	8272174.876279657
2.12441	8288103.062827327
2.12655	8295939.693199743
2.12868	8302197.054146975
2.13081	8309988.760083237
2.13294	8328391.023044195
2.13507	8351593.622337866
2.13719	8366593.474047453
2.13931	8371649.873884763
2.14143	8371062.851328646
2.14355	8375185.061088593
2.14567	8379383.261429013
2.14778	8360215.471884111
2.14989	8323427.376555959
2.152	8234863.097605518
2.1541	8073588.107743425
2.15621	8072296.999219954
2.15831	8250319.285787463
2.16041	8332855.83545979
2.16251	8370027.91787546
2.1646	8422538.171174882
2.1667	8458119.49388817
2.16879	8471796.946987351
2.17087	8448010.242710518
2.17296	8405336.991691707
2.17504	8409155.742689779
2.17713	8459898.626212217
2.1792	8502043.871618465
2.18128	8519601.44327665
2.18336	8523634.199983757
2.18543	8523407.858227225
2.1875	8518751.755530166
2.18957	8517188.222443275
2.19163	8520555.547403455
2.1937	8505961.162516102
2.19576	8417728.328064635
2.19782	8185104.621129208
2.19987	7993390.504809888
2.20193	8021562.585856665
2.20398	8187294.081827453
2.20603	8372267.4617011845
2.20808	8495836.090298634
2.21012	8547329.129109781
2.21217	8527957.884923369
2.21421	8407431.706361836
2.21625	8255821.465108575
2.21828	8224799.984633674
2.22032	8278856.426660796
2.22235	8237927.765089177
2.22438	8045271.035498226
2.22641	7847162.60289144
2.22843	7801271.359496855
2.23046	7847682.867996996
2.23248	7954640.728047084
2.2345	8135945.911550203
2.23651	8168232.550938178
2.23853	7863056.518133382
2.24054	7453233.933513158
2.24255	7381546.172001662
2.24456	7579162.280755891
2.24657	7590574.198299553
2.24857	7530860.164280699
2.25057	7487429.117761895
2.25257	7340393.893351845
2.25457	7028958.632393566
2.25656	7060442.114270651
2.25856	7436649.389091501
2.26055	7594540.541746309
2.26254	7526463.602327692
2.26453	7525903.126705269
2.26651	7651462.839189664
2.2685	7806949.5230755815
2.27048	7882010.651666605
2.27246	7903885.147667763
2.27443	7737256.036033481
2.27641	7550265.212748978
2.27838	7691568.039240938
2.28036	8036126.410473833
2.28233	8016598.296678831
2.28429	7349206.0491598165
2.28626	6581428.193745979
2.28823	6571008.339428327
2.29019	6985480.735814866
2.29215	6993049.674731234
2.29411	6740635.81290822
2.29607	6633720.2861573165
2.29802	6802339.530078543
2.29998	7049284.700575207
2.30193	7387838.412298549
2.30388	7714349.590765377
2.30583	8017591.79912609
2.30778	8204911.861639741
2.30972	8284359.401625436
2.31167	8231216.889350197
2.31361	7774707.514668963
2.31555	6929959.644144854
2.31749	6511702.020832092
2.31943	6745491.699356622
2.32137	6961602.365407373
2.32331	6848263.562175586
2.32524	6727569.098644212
2.32718	6838714.733909997
2.32911	6923704.404978853
2.33104	6997355.756543799
2.33297	7022411.58859808
2.3349	6985845.72664883
2.33683	6965296.900568959
2.33876	7069376.302691147
2.34068	7150055.163100871
2.34261	7113388.347284626
2.34453	6853434.425530983
2.34646	6338374.191814606
2.34838	6140839.718257084
2.3503	6316617.095282852
2.35223	6672919.927077132
2.35415	6761896.234892987
2.35607	6632409.830808894
2.35799	6626613.5825007325
2.35991	6833459.013695112
2.36183	7250177.963583337
2.36375	7773760.942903901
2.36566	7951457.08844496
2.36758	7252399.096946223
2.3695	6221739.006888446
2.37142	5655616.920814427
2.37334	5519785.12777279
2.37526	5669958.891804809
2.37718	6033177.768383571
2.3791	6601692.774283338
2.38101	7002938.111515092
2.38293	7167437.837222934
2.38485	7003139.914121192
2.38677	6932524.293432356
2.3887	7311777.704001074
2.39062	8013167.300507491
2.39254	8357223.516575763
2.39446	8217221.372609115
2.39639	7580761.451135823
2.39831	6880174.878134408
2.40024	6445410.783140771
2.40216	6414468.010864129
2.40409	6714122.841046522
2.40602	7271882.974076996
2.40795	7675558.224964373
2.40989	7746493.808786438
2.41182	7505481.218494431
2.41376	6907616.351917765
2.4157	6333219.257650037
2.41764	6103150.586777919
2.41958	6338692.790230188
2.42152	6674901.302028092
2.42347	6919416.790924736
2.42542	6743864.407274584
2.42737	6569556.089224627
2.42932	6713480.752766483
2.43128	7109053.628280726
2.43324	7157832.617156748
