#wavelength	surface flux
0.6450077295303345	45.09647855489279
0.6472567915916443	48.633916216092906
0.6494921445846558	52.40491642503276
0.6517150402069092	56.362487770680744
0.6539263725280762	60.63357649840302
0.6561272740364075	65.12130646411734
0.6583186388015747	69.95223881106857
0.6605015397071838	75.05372163717905
0.6626768708229065	80.42804522025988
0.6648455858230591	86.19297573624642
0.6670085787773132	92.27877298981804
0.6691668033599854	98.74726452166013
0.6713210344314575	105.24151950133552
0.6734722256660461	112.85944802299201
0.6756211519241333	120.5665440054443
0.6777685880661011	128.72963516773362
0.6799154281616211	137.38731178784812
0.6820623278617859	146.5610462869491
0.6842101216316223	156.2670601724895
0.6863595843315125	166.57297242489014
0.688511312007904	177.41630028057426
0.6906660795211792	188.81898521375248
0.6928245425224304	200.5119797861655
0.6949873566627502	214.17680136902052
0.6971551775932312	228.09005367802507
0.6993286609649658	242.06976370712016
0.7015084028244019	258.1789923115241
0.7036949396133423	274.69052263257805
0.7058889269828796	292.20962791647617
0.7080909013748169	310.36785140509994
0.710301399230957	329.7127989344131
0.712520956993103	350.8006696626938
0.7147500514984131	372.5758408523244
0.7169892191886902	392.20726528821666
0.7192389369010925	420.53426904758624
0.7214996814727783	446.3059403485839
0.723771870136261	474.0298523255832
0.7260559797286987	504.3224204265024
0.7283523678779602	535.4095983711454
0.7306615710258484	566.4121024824998
0.7329838871955872	603.8386298361149
0.7353196740150452	637.1188869506794
0.7376693487167358	679.1879998546445
0.7400332689285278	722.5407976015135
0.7424117922782898	766.3381239131469
0.7448052167892456	813.744026785024
0.7472138404846191	864.7122007475862
0.7496379613876343	919.456872976802
0.7520779371261597	975.9247098873504
0.7545340061187744	1036.6716245047314
0.7570064663887024	1100.719983207182
0.7594954967498779	1168.2605953771356
0.7620013952255249	1239.085651792101
0.7645244002342224	1304.1093131134712
0.7670646905899048	1274.6408458889086
0.7696225643157959	1385.5531199970792
0.7721980810165405	1564.6113382766832
0.7747915983200073	1670.442537047362
0.7774031162261963	1774.0304348968946
0.7800329327583313	1869.7105732244747
0.7826811671257019	1998.80924549403
0.7853479981422424	2121.572164068729
0.7880334854125977	2249.8398301857037
0.7907378077507019	2387.5409101440814
0.7934610247612	2530.630646993445
0.7962033748626709	2682.911799283782
0.7989648580551147	2851.871129906263
0.801745593547821	3025.2355362315325
0.8045456409454346	3211.8007405488347
0.8073651194572449	3407.593458296503
0.8102040886878967	3582.0394296107647
0.8130625486373901	3812.524107613691
0.8159406185150146	4055.1739152817026
0.8188382983207703	4244.357044284704
0.8217556476593018	4564.012220961046
0.8246926665306091	4833.2078874842155
0.8276493549346924	5121.392746726221
0.8306257724761963	5438.180281439967
0.8336219191551208	5784.803511787051
0.8366377949714661	6127.36075229844
0.8396733403205872	6486.327889952998
0.8427285552024841	6895.129393989093
0.8458034992218018	7293.694376115714
0.8488980531692505	7735.849964275611
0.8520121574401855	8203.320118257372
0.8551458716392517	8693.670166081281
0.8582990765571594	9213.097172493077
0.8614717125892639	9754.703113171563
0.8646637797355652	10321.157887167057
0.8678751587867737	10940.314843783748
0.8711057901382446	11583.64008851368
0.8743556141853333	12262.111225836632
0.87762451171875	12985.337161591055
0.8809124231338501	13739.532393072766
0.8842192888259888	14534.238012438462
0.8875449895858765	15379.710245601505
0.8908893465995789	16103.394243843963
0.894252359867096	17050.38515946842
0.8976338505744934	17222.13141250578
0.9010337591171265	18892.37639022374
0.9044519662857056	20246.32329542078
0.9078882932662964	21375.302618192258
0.9113426208496094	22654.978651929458
0.914814829826355	23794.553170308318
0.9183048605918884	24997.43376885601
0.9218124747276306	26446.658953141487
0.925337553024292	27437.86120209203
0.9288799166679382	28242.324338562732
0.9324395060539246	27120.905246856462
0.9360161423683167	29406.350287217287
0.9396095871925354	33917.10166848458
0.943219780921936	36342.18921611894
0.9468464851379395	33389.45176660953
0.9504896402359009	35665.09178024194
0.9541489481925964	40596.0817546288
0.9578243494033813	43131.735846722986
0.9615156054496765	44799.28299426365
0.9652225375175476	47705.08408114464
0.9689450263977051	52369.9047747803
0.9726828336715698	52999.022345807
0.9764357805252075	57238.032019900056
0.9802037477493286	59772.69037580193
0.983986496925354	64133.53952230441
0.9877838492393494	67352.50562133227
0.9915955662727356	71197.86384963052
0.9954215884208679	75082.64314505494
0.9992615580558777	78885.00655178857
1.0031154155731201	82626.57236537155
1.0069829225540161	86639.37823876232
1.0108637809753418	90867.73934131346
1.0147579908370972	95241.92751451313
1.018665075302124	99731.98930647894
1.022585153579712	104495.41232222777
1.0265177488327026	109376.49636735985
1.0304628610610962	114472.77596921544
1.0344202518463135	119767.65510642625
1.0383895635604858	125236.24600297431
1.0423706769943237	130941.97078475224
1.0463634729385376	136836.31546286866
1.0503677129745483	142911.6538737106
1.0543830394744873	149352.69875937546
1.058409333229065	155870.0050374311
1.0624464750289917	163096.35228445765
1.0664942264556885	170209.84966929315
1.0705522298812866	177799.73665736584
1.0746204853057861	185700.83253851184
1.0786986351013184	192949.74301248274
1.0827864408493042	201662.21332094996
1.086883783340454	209401.84196664678
1.0909905433654785	217720.96386053308
1.0951062440872192	225439.81159972216
1.0992310047149658	225658.40322974048
1.10336434841156	235111.74490666637
1.1075061559677124	251418.9906182589
1.1116561889648438	260006.2673084367
1.115814208984375	209649.1562584057
1.1199802160263062	248636.87153897295
1.124153733253479	215160.6546419879
1.1283347606658936	265967.0295662511
1.1325229406356812	306177.00898201304
1.1367181539535522	293223.43975571
1.1409201622009277	341050.23577532126
1.145128846168518	317354.6363589135
1.1493438482284546	279159.6885009116
1.1535650491714478	367006.89616745
1.1577922105789185	393151.5289387954
1.1620250940322876	401923.4714182208
1.1662636995315552	415592.97607680724
1.170507550239563	405767.8643366338
1.174756646156311	444136.62391120853
1.1790107488632202	469231.79394841887
1.1832695007324219	491839.19436682167
1.1875330209732056	507283.1771213821
1.191800832748413	530995.6205684278
1.1960728168487549	545432.627517682
1.2003488540649414	561338.1388789295
1.2046287059783936	586784.866587301
1.2089121341705322	607304.0366834061
1.2131990194320679	618089.1239671808
1.2174891233444214	648346.5885456258
1.2217823266983032	669231.4851700348
1.2260783910751343	691279.0298519292
1.230377197265625	712080.1878595286
1.2346785068511963	736924.2416440174
1.238982081413269	760251.3493504922
1.2432878017425537	783638.483850051
1.2475954294204712	807103.6382626595
1.2519049644470215	831932.3526737966
1.256216049194336	857173.5171241435
1.2605286836624146	882846.8787278249
1.2648425102233887	909379.5064003293
1.2691574096679688	933256.3398641463
1.2734732627868652	958959.3373521189
1.2777899503707886	990094.8132095909
1.2821072340011597	1010382.7349819832
1.2864248752593994	1040679.2610674144
1.2907428741455078	1066951.8767162762
1.2950609922409058	1050552.7719844112
1.2993791103363037	1100504.7332615198
1.303696870803833	1146284.6244421876
1.3080145120620728	1181612.7853965943
1.3123314380645752	1204686.0589066015
1.3166478872299194	1234796.1378124894
1.3209635019302368	1244446.3130890243
1.3252781629562378	1305862.8127638218
1.3295916318893433	1327403.0827201826
1.3339040279388428	1287911.0195336624
1.3382149934768677	1141126.875976583
1.3425244092941284	937252.063205597
1.3468321561813354	1007371.0932854236
1.3511382341384888	968307.2154247845
1.3554422855377197	982356.4897447352
1.3597444295883179	1088721.8510018867
1.3640443086624146	1013349.2103246913
1.3683418035507202	1102929.4376685312
1.3726370334625244	1350560.4498713939
1.3769296407699585	1383601.2691655273
1.381219506263733	1476098.8361126743
1.3855066299438477	1286707.9619478346
1.3897908926010132	1371756.8864292477
1.3940720558166504	1319145.0077328153
1.3983501195907593	1265643.8963085632
1.4026249647140503	1421143.1913945156
1.4068963527679443	1463440.8623340232
1.4111642837524414	1692180.7579483844
1.4154287576675415	1416833.2091366139
1.419689416885376	1367587.4374096761
1.4239463806152344	1107934.1094274488
1.4281994104385376	1677231.101299789
1.4324485063552856	1649406.486875285
1.436693549156189	1787705.6329813036
1.440934419631958	1727511.8863006816
1.4451709985733032	1794870.6792312092
1.449403166770935	1760899.062154108
1.453631043434143	1784939.1728220067
1.4578542709350586	2295723.3771741185
1.4620729684829712	2207542.4840431903
1.4662868976593018	2292780.485669829
1.4704961776733398	2445981.135629253
1.4747005701065063	2287537.865970147
1.4788999557495117	2537435.6939467094
1.4830944538116455	2452989.1030396246
1.4872838258743286	2656694.95542015
1.491468071937561	2838417.4576760656
1.4956470727920532	2869325.851707653
1.4998208284378052	2879050.783060676
1.5039892196655273	2975115.5386860087
1.5081522464752197	3094981.806783642
1.5123097896575928	3122543.5529251657
1.5164618492126465	3197904.0242132293
1.5206083059310913	3130270.5317343534
1.5247491598129272	3254686.6095738136
1.5288842916488647	3100610.978089832
1.5330137014389038	3447614.289744436
1.5371372699737549	3615936.03409254
1.541254997253418	3648897.835126236
1.545366883277893	3736269.9211633694
1.5494728088378906	3807785.8011644934
1.5535727739334106	3871924.757804397
1.5576666593551636	3916140.22670013
1.561754584312439	3977455.0558495903
1.5658363103866577	4073849.1178543987
1.5699119567871094	4141950.2281123116
1.5739814043045044	4214283.537162028
1.5780447721481323	4281111.941982902
1.582101821899414	4339548.136991504
1.5861525535583496	4394707.515883928
1.5901970863342285	4466463.64783187
1.5942351818084717	4538780.398065821
1.5982669591903687	4604053.262655956
1.6022924184799194	4670171.29766052
1.606311559677124	4730134.093858894
1.6103241443634033	4800874.99817916
1.6143304109573364	4867470.890069183
1.6183301210403442	4933178.141706787
1.6223233938217163	4900972.982322826
1.6263102293014526	4801500.009761634
1.6302905082702637	4841035.476600079
1.634264349937439	4878792.293988095
1.638231635093689	5206110.0589086665
1.6421923637390137	5294998.418740202
1.646146535873413	5321468.814960267
1.6500942707061768	5316211.794839454
1.6540353298187256	5247879.430319895
1.6579699516296387	5259977.5414100075
1.661897897720337	5405486.959879279
1.6658192873001099	4987963.618478438
1.6697341203689575	5057790.70718623
1.6736423969268799	5775580.367816905
1.677544116973877	5749074.545050248
1.6814392805099487	5664098.95193686
1.6853278875350952	5631023.7369634975
1.6892099380493164	6072071.861292164
1.6930854320526123	5304055.352081086
1.696954369544983	5694004.448142667
1.7008168697357178	5049145.164338958
1.7046726942062378	5045594.410686401
1.708522081375122	5712686.493508558
1.712364912033081	6316594.578171914
1.7162011861801147	6443571.431700922
1.7200311422348022	6331392.016206654
1.723854422569275	5632272.079949595
1.7276713848114014	5724158.09326473
1.731481909751892	5689274.782127549
1.7352858781814575	5557333.3673659535
1.7390835285186768	6321352.502030957
1.7428747415542603	6349503.399787459
1.7466596364974976	6905102.571412332
1.7504380941390991	6920526.1784140235
1.7542102336883545	6554906.245637849
1.7579760551452637	6170855.310435089
1.7617355585098267	6337415.050341213
1.7654887437820435	6133960.713609646
1.7692357301712036	6085423.926816243
1.7729763984680176	6253004.846782568
1.776710867881775	5451942.682109319
1.7804391384124756	6418153.4460952785
1.7841613292694092	5887167.803414572
1.7878772020339966	5906094.388729782
1.7915871143341064	4965339.067874365
1.7952908277511597	5968519.234171444
1.7989884614944458	6294216.1032977
1.8026801347732544	6196145.586640837
1.806365728378296	5758213.59105821
1.8100452423095703	4418633.942050264
1.8137187957763672	5809013.537754575
1.817386507987976	7025231.114715476
1.8210482597351074	7074211.179770608
1.8247040510177612	8142623.270761493
1.828354001045227	8026083.581211303
1.8319982290267944	6537303.8847155655
1.8356364965438843	7627804.26595323
1.8392690420150757	7243852.9154059
1.8428958654403687	7648467.811069324
1.8465168476104736	6746192.045230428
1.8501322269439697	6829218.132394964
1.8537418842315674	8180076.703312119
1.8573459386825562	6923113.656003282
1.860944390296936	5214192.530694748
1.864537239074707	5219047.793535067
1.8681244850158691	5391075.227117804
1.871706247329712	5815817.172181751
1.8752825260162354	6376930.673171985
1.8788533210754395	8378496.460428507
1.8824186325073242	7481225.480963732
1.8859784603118896	6516647.144753797
1.8895330429077148	7020066.683604113
1.8930821418762207	7109290.001897486
1.8966259956359863	7856665.342020398
1.9001644849777222	7743139.025918378
1.9036977291107178	7785150.27747534
1.9072256088256836	9181912.162215076
1.9107483625411987	9071766.78244729
1.9142658710479736	8031613.084031456
1.9177782535552979	9295791.088207921
1.9212853908538818	8316979.800175398
1.9247875213623047	6890242.448442544
1.9282845258712769	8552280.26257072
1.9317764043807983	8385956.124802627
1.9352631568908691	9066587.153788263
1.9387450218200684	5837039.232966619
1.942221760749817	6415524.943921639
1.9456936120986938	6899852.407673336
1.9491604566574097	7239978.647992341
1.952622413635254	7811411.712603763
1.956079363822937	5557183.392553943
1.959531545639038	5178916.046264245
1.962978720664978	7832987.785886648
1.966421127319336	9768181.623051735
1.9698586463928223	9352606.259542262
1.9732913970947266	10000419.734498944
1.9767193794250488	9440203.396670561
1.9801424741744995	9922551.285248628
1.9835609197616577	9852010.29612499
1.9869745969772339	9532733.721753467
1.990383505821228	8531689.073459804
1.9937876462936401	9694765.234821573
1.9971871376037598	10252296.258920467
2.000581979751587	9315198.909542287
2.003972291946411	9701990.207482623
2.007357597351074	10827075.896313889
2.0107386112213135	11488613.097091729
2.0141148567199707	11604488.378694655
2.017486572265625	10493496.881774511
2.0208535194396973	11388493.87826035
2.0242159366607666	11977679.534987846
2.027573823928833	11465856.678195165
2.0309269428253174	11088260.799942667
2.034275770187378	12044207.68653763
2.0376198291778564	12407035.939469337
2.040959596633911	12506679.573227989
2.044294595718384	12484917.620133314
2.0476250648498535	11637267.422639025
2.0509510040283203	11487264.655513637
2.054272413253784	12411285.223370384
2.057589530944824	12503428.26320925
2.0609018802642822	12179865.739749402
2.0642096996307373	12333174.738107137
2.0675129890441895	12549077.039631227
2.0708119869232178	12881381.854800755
2.074106216430664	13188076.426444726
2.0773961544036865	13321091.356859496
2.080681324005127	13428781.566307055
2.0839622020721436	13388300.60763743
2.087238311767578	13374808.456702702
2.090510129928589	13481665.627889747
2.0937774181365967	13571280.377025621
2.0970399379730225	13668940.252529608
2.1002981662750244	13670407.616050493
2.1035518646240234	13808108.288877813
2.1068007946014404	13828897.151505753
2.1100454330444336	13463971.521131266
2.1132853031158447	13049498.384731539
2.116520881652832	13371789.858401692
2.1197516918182373	13896649.595286924
2.1229779720306396	14176114.37663205
2.12619948387146	14245531.725357214
2.1294167041778564	14283427.64320813
2.132629156112671	14354244.72451452
2.1358368396759033	14442289.854281288
2.139039993286133	14503371.087833477
2.1422386169433594	14513654.568448506
2.145432472229004	14516318.460436592
2.1486217975616455	14343713.066752635
2.151806354522705	13927572.776281556
2.1549863815307617	13155069.003667083
2.1581614017486572	13927529.468609449
2.16133189201355	14378929.72938548
2.1644976139068604	14709105.28815584
2.167658567428589	14910617.20983749
2.1708147525787354	14846219.890458131
2.173966407775879	14628878.380784746
2.1771130561828613	14864958.47610504
2.1802549362182617	15121054.037570698
2.183391809463501	15178702.847904678
2.1865241527557373	15193315.613144858
2.1896514892578125	15217796.03175632
2.1927738189697266	15244501.317995785
2.1958916187286377	14744493.866550926
2.1990041732788086	13193941.128559379
2.2021119594573975	13100390.471909506
2.2052149772644043	14309362.504238097
2.208312749862671	15323665.160419049
2.2114057540893555	15553265.425314873
2.214493751525879	14850078.057053208
2.217576742172241	14157669.610458173
2.2206547260284424	14628784.1178622
2.2237277030944824	14334508.881919004
2.2267956733703613	13994531.027239135
2.2298583984375	14366429.431246253
2.2329163551330566	14299076.647968242
2.235969066619873	14921905.764228716
2.2390167713165283	14331328.572552323
2.2420592308044434	13029672.126925498
2.2450966835021973	13859675.628909158
2.248128890991211	13373770.756408598
2.2511560916900635	12759968.567054927
2.254178285598755	12040230.551900968
2.257194995880127	12288995.059833514
2.260206699371338	13126622.164692136
2.2632133960723877	13675586.584580306
2.266214609146118	14140966.942548592
2.2692108154296875	13722819.511588497
2.2722020149230957	13856190.46889514
2.2751877307891846	12970545.893118784
2.278168201446533	13117762.08821683
2.2811436653137207	15115568.604995064
2.284113883972168	13342197.21805452
2.287078857421875	11212042.137816017
2.290038824081421	12584730.735869594
2.2929933071136475	11814346.226944894
2.295942783355713	10830454.999436924
2.298887014389038	11180083.467187615
2.301826238632202	13059425.130836675
2.304760217666626	14769693.479099847
2.3076889514923096	15647026.814773262
2.310612440109253	15982640.994534237
2.3135311603546143	14439133.113697542
2.3164443969726562	10921736.565612001
2.319352865219116	11181574.770091109
2.322256088256836	10989978.612421604
2.3251543045043945	9158492.407336487
2.328047275543213	9981126.658239761
2.330935478210449	10698562.778129637
2.3338186740875244	11297147.287517337
2.3366971015930176	12284055.911414415
2.3395702838897705	12653323.928589717
2.3424389362335205	12245521.388056973
2.3453025817871094	11366016.255105093
2.348161458969116	10463897.746232888
2.351015567779541	10706043.960632201
2.353865146636963	11472727.967888169
2.3567099571228027	11807595.371654835
2.3595502376556396	12629101.814328134
2.3623859882354736	14116885.515859801
2.3652172088623047	14222339.42997196
2.368043899536133	10810254.418069234
2.370866537094116	9058480.673807016
2.3736846446990967	8760519.443939151
2.3764986991882324	8819898.62415364
2.3793084621429443	10371589.686636465
2.3821144104003906	12090261.583360711
2.384916305541992	12500777.386533977
2.387714147567749	12827869.58598759
2.3905084133148193	15502855.166664967
2.393299102783203	16470076.50666772
2.3960859775543213	14879214.101363145
2.398869514465332	11654420.215848323
2.4016497135162354	8770396.552849343
2.4044265747070312	9192830.98590165
2.407200336456299	12148291.115342472
2.409970998764038	13817755.124530254
2.4127390384674072	12788725.656661225
2.415503978729248	10705108.301517777
2.418266534805298	9700307.035742551
2.4210267066955566	9364263.455449427
2.4237842559814453	9247774.437407548
2.426539897918701	8799771.677033808
2.429293394088745	9138975.295129012
2.4320452213287354	10600224.853781417
2.4347951412200928	10942500.777826456
2.4375438690185547	11188569.173512818
2.440291166305542	11840336.044230515
2.443037271499634	11937279.909912392
2.445782423019409	12354530.525292266
2.4485268592834473	12504640.910681413
2.451270818710327	12731571.78315194
2.454014539718628	13246091.739680717
2.4567582607269287	12431042.313681222
2.4595019817352295	12444721.690061005
2.4622461795806885	14154591.614660695
2.4649908542633057	15395869.966565443
2.4677364826202393	14367148.56943662
2.4704833030700684	13465710.561406983
2.473231554031372	13584126.062370311
2.4759814739227295	13432865.160538508
2.4787333011627197	11676997.643859254
