#wavelength	surface flux
0.7	981.9082412035903
0.7001166666666666	984.9354828913345
0.7002333527777778	987.9215757942544
0.700350058336574	990.8040764301405
0.7004667833462966	993.7657225850007
0.7005835278101878	996.7866991841873
0.7007002917314895	999.7683565316281
0.7008170751134447	1002.7407572586817
0.7009338779592968	1005.6948948618931
0.7010507002722901	1008.6210229440119
0.7011675420556689	1011.5104610756357
0.701284403312678	1014.4696086104768
0.7014012840465635	1017.4553980614398
0.7015181842605713	1020.398663184933
0.701635103957948	1023.2550295853248
0.701752043141941	1025.908162562855
0.701869001815798	1028.8113739831333
0.7019859799827672	1031.8885975415153
0.7021029776460976	1034.9561099425969
0.7022199948090387	1038.0148526564803
0.7023370314748403	1041.0358196175048
0.7024540876467528	1044.1791891869505
0.702571163328027	1047.4650205462815
0.7026882585219152	1050.6373652639422
0.7028053732316688	1053.7644594663868
0.7029225074605406	1056.7149749811194
0.7030396612117841	1059.6062929551704
0.7031568344886527	1062.3814487288357
0.7032740272944008	1065.55188792387
0.7033912396322832	1068.9531150049977
0.7035084715055552	1072.1869320263697
0.7036257229174727	1075.38000857233
0.7037429938712924	1078.4749981262967
0.7038602843702709	1081.6117554996922
0.7039775944176659	1084.7880508875649
0.7040949240167356	1087.9239076548413
0.7042122731707383	1091.0593408917327
0.7043296418829335	1094.270011151449
0.7044470301565806	1097.4607394571544
0.70456443799494	1100.621360318272
0.7046818654012724	1103.8250527792675
0.7047993123788394	1107.047763574232
0.7049167789309024	1110.1515726989749
0.7050342650607243	1113.338316124271
0.7051517707715678	1116.7275025113101
0.7052692960666963	1120.0730902229573
0.705386840949374	1123.3884931174948
0.7055044054228656	1126.5431937422175
0.7056219894904361	1129.7143203363787
0.7057395931553511	1133.0434943093458
0.705857216420877	1136.3918513595925
0.7059748592902804	1139.7604366831497
0.7060925217668288	1143.0715021215858
0.70621020385379	1146.3747285969123
0.7063279055544321	1149.7564015546893
0.7064456268720246	1153.1098722675313
0.7065633678098366	1156.4184417483884
0.7066811283711383	1159.7235817268713
0.7067989085592001	1163.0274747382655
0.7069167083772933	1166.303901729427
0.7070345278286895	1169.498120260487
0.707152366916661	1172.493841048545
0.7072702256444803	1175.4252898792604
0.7073881040154211	1178.3132865235175
0.7075060020327569	1182.3076262548304
0.7076239196997625	1186.3569401736625
0.7077418570197124	1190.132522929286
0.7078598139958823	1193.7328274530425
0.7079777906315483	1197.1627103371866
0.7080957869299869	1200.5310384010993
0.7082138028944751	1203.9208484396224
0.7083318385282908	1207.577995655273
0.7084498938347124	1211.162305618364
0.708567968817018	1214.6468583871288
0.7086860634784875	1217.9047195217915
0.7088041778224007	1221.0626058595349
0.7089223118520377	1223.7868554154027
0.7090404655706796	1227.0874235211709
0.709158638981608	1231.4943040446135
0.709276832088105	1235.2289442125752
0.7093950448934531	1238.6018638933838
0.7095132774009353	1240.6319988954
0.7096315296138355	1243.4630425478658
0.7097498015354378	1248.6585836790043
0.7098680931690269	1252.918317715366
0.7099864045178884	1256.4881287910857
0.7101047355853081	1260.331586999831
0.7102230863745722	1264.1800767900531
0.7103414568889679	1267.9010230132426
0.7104598471317828	1271.6230468260442
0.7105782571063047	1275.3461385155529
0.7106966868158224	1278.8519464614833
0.710815136263625	1282.3508823625896
0.7109336054530023	1286.1340775270148
0.7110520943872445	1289.9474442686678
0.7111706030696424	1293.7991030499777
0.7112891315034873	1297.5887221241776
0.7114076796920712	1301.3615378087968
0.7115262476386865	1305.1817908616704
0.7116448353466263	1308.8987679980785
0.711763442819184	1312.4454040077867
0.711882070059654	1316.20687297647
0.7120007170713306	1320.0641965094092
0.7121193838575091	1323.8859977315092
0.7122380704214853	1327.6979852086884
0.7123567767665555	1331.488474390677
0.7124755028960166	1335.1913886241196
0.7125942488131658	1338.8444158004806
0.7127130145213015	1342.4582242969489
0.7128318000237216	1346.1916608308468
0.7129506053237256	1350.256901600916
0.7130694304246129	1354.204909855882
0.7131882753296837	1358.0696777387288
0.7133071400422386	1361.8371212507507
0.7134260245655789	1365.288985276496
0.7135449289030065	1367.6512232988223
0.7136638530578235	1371.7064576521864
0.7137827970333332	1377.2224235444266
0.7139017608328388	1381.4190069816784
0.7140207444596443	1385.3882820941656
0.7141397479170543	1389.3356273277466
0.7142587712083737	1393.1244543507503
0.7143778143369084	1396.7506987409256
0.7144968773059646	1401.1581475519868
0.7146159601188489	1405.67724448762
0.7147350627788687	1409.7584316868783
0.7148541852893318	1413.8522500950905
0.7149733276535467	1417.9610756315005
0.7150924898748222	1421.7924793612344
0.715211671956468	1425.6002532846567
0.7153308739017941	1429.9240625446585
0.715450095714111	1434.1935159541226
0.71556933739673	1438.3876693053437
0.7156885989529628	1442.5149534091051
0.7158078803861218	1446.5982052056895
0.7159271816995193	1450.3805268323858
0.7160465028964692	1453.9369273962893
0.7161658439802853	1457.139107503279
0.7162852049542819	1459.9578920338274
0.7164045858217744	1462.6818819576588
0.716523986586078	1466.875147406853
0.7166434072505089	1467.927873323146
0.716762847818384	1463.4790198310081
0.7168823082930204	1469.8050316715426
0.7170017886777359	1480.935010569494
0.7171212889758488	1488.0015802706603
0.7172408091906781	1493.517153069192
0.7173603493255433	1496.0393779644523
0.7174799093837642	1499.499257990912
0.7175994893686615	1503.4248438176912
0.7177190892835562	1508.87472101641
0.7178387091317702	1514.5686607721666
0.7179583489166254	1520.7582207183357
0.7180780086414448	1525.1273843234994
0.7181976883095517	1528.5246006673788
0.7183173879242699	1534.1246547650635
0.718437107488924	1539.3725099536407
0.7185568470068389	1543.7383498333456
0.7186766064813399	1547.1445398522837
0.7187963859157535	1550.0102197104734
0.7189161853134061	1555.8040388815716
0.719036004677625	1561.3092265461048
0.7191558440117378	1565.929003655282
0.7192757033190732	1570.5094345479172
0.7193955826029597	1575.067226109902
0.7195154818667269	1579.1878169595054
0.7196354011137046	1583.3912424201105
0.7197553403472235	1587.8315341071614
0.7198752995706147	1592.608886834451
0.7199952787872098	1597.586538678312
0.720115278000341	1601.8456314831408
0.7202352972133411	1606.1113125990742
0.7203553364295432	1610.4625577790741
0.7204753956522815	1614.8065073263738
0.7205954748848902	1619.1464286141884
0.7207155741307044	1623.8773091715561
0.7208356933930594	1628.7366993980604
0.7209558326752915	1633.8628981267925
0.7210759919807375	1638.3493010078503
0.7211961713127342	1642.464037037318
0.7213163706746197	1645.891213639125
0.7214365900697322	1649.7524303783794
0.7215568295014103	1654.6569526443106
0.721677088972994	1659.9907348018892
0.7217973684878227	1665.5653774399846
0.7219176680492374	1669.3471936026042
0.7220379876605789	1673.6919021230442
0.722158327325189	1679.3431198178712
0.7222786870464099	1684.8330711436772
0.7223990668275843	1690.2380176296192
0.7225194666720555	1695.0737784306466
0.7226398865831676	1699.834255792158
0.7227603265642646	1704.450865973718
0.722880786618692	1708.380332330333
0.7230012667497951	1711.9898821464888
0.7231217669609201	1717.2294959516378
0.7232422872554135	1722.272349497978
0.7233628276366229	1726.9503530001066
0.7234833881078956	1732.1868929998873
0.7236039686725803	1737.5919885772012
0.7237245693340255	1740.617767081819
0.7238451900955812	1744.6914105837843
0.7239658309605971	1750.5142640120605
0.7240864919324239	1756.413526401949
0.7242071730144127	1762.2802512917838
0.724327874209915	1767.145664455728
0.7244485955222832	1772.2810588283328
0.7245693369548704	1777.8168800027431
0.7246900985110294	1782.9485720129724
0.7248108801941148	1787.9677753340206
0.7249316820074803	1793.235630112669
0.7250525039544815	1798.3449111886819
0.7251733460384739	1803.247531172687
0.7252942082628137	1808.13838413734
0.7254150906308574	1812.979923354779
0.7255359931459625	1817.4957541620233
0.7256569158114868	1822.260036134743
0.7257778586307888	1827.3037174391732
0.7258988216072273	1832.7551277564198
0.7260198047441617	1838.2912268805478
0.7261408080449525	1843.7904378118785
0.72626183151296	1849.0189155979817
0.7263828751515454	1853.988168370287
0.7265039389640706	1859.466381514412
0.726625022953898	1864.8390444053398
0.7267461271243904	1869.4823327724564
0.7268672514789111	1874.1771597895956
0.7269883960208241	1878.9134419875186
0.7271095607534942	1884.882708350171
0.7272307456802866	1890.794465962322
0.7273519508045666	1896.1510745784444
0.7274731761297006	1901.180004019139
0.7275944216590555	1905.9939874667848
0.7277156873959987	1910.9438314945703
0.7278369733438982	1915.2647860316133
0.727958279506122	1918.1353889904483
0.7280796058860397	1924.4915215747058
0.7282009524870207	1932.6595152008947
0.7283223193124353	1938.8091179866622
0.7284437063656539	1944.7604364430117
0.7285651136500483	1950.3584491729405
0.7286865411689898	1955.6129750185228
0.7288079889258514	1960.690093890002
0.7289294569240056	1965.2081571451533
0.7290509451668262	1970.1951466253597
0.7291724536576875	1975.831348365371
0.7292939823999636	1981.9177912998882
0.7294155313970303	1988.0954452059866
0.7295371006522632	1993.9906909306926
0.7296586901690385	1999.5881802388185
0.7297802999507332	2004.8663849939326
0.7299019300007252	2008.8941507114862
0.7300235803223919	2012.9633653731073
0.7301452509191123	2018.20903368757
0.7302669417942654	2023.3458724321445
0.7303886529512311	2028.3938298671183
0.7305103843933897	2029.31222093503
0.7306321361241218	2032.7393533564846
0.7307539081468093	2044.3481482315924
0.7308757004648336	2052.57812043542
0.7309975130815778	2058.750674461123
0.7311193460004248	2064.9940293719815
0.7312411992247582	2071.278464416913
0.7313630727579622	2077.6394965380346
0.7314849666034219	2083.4978864246336
0.7316068807645224	2089.0685537705604
0.7317288152446498	2093.473885169533
0.7318507700471907	2098.5202888352524
0.7319727451755319	2104.465502087829
0.732094740633061	2111.521771120899
0.7322167564231665	2118.604108156759
0.7323387925492371	2123.8373291151324
0.7324608490146619	2129.857128310657
0.732582925822831	2136.668396827791
0.7327050229771347	2142.948629833474
0.7328271404809642	2149.073229850972
0.7329492783377112	2154.953332130362
0.7330714365507675	2160.9784018113082
0.7331936151235259	2167.106727201802
0.7333158140593796	2172.6375108349966
0.7334380333617229	2178.308556127177
0.7335602730339499	2184.3620903832007
0.7336825330794556	2190.6433569784813
0.7338048135016354	2196.9854420333045
0.7339271143038857	2202.1233560394044
0.734049435489603	2205.7202812752207
0.7341717770621846	2207.0441927851225
0.7342941390250283	2213.8717160339675
0.7344165213815324	2222.1491980775722
0.734538924135096	2229.1375370198953
0.7346613472891185	2235.921482335359
0.734783790847	2242.501875320138
0.7349062548121412	2247.33289734187
0.7350287391879431	2250.4221025670454
0.7351512439778078	2248.6979011076833
0.7352737691851374	2256.5703106551273
0.735396314813335	2270.7879355367368
0.7355188808658037	2278.2124042751807
0.7356414673459482	2285.5750781467837
0.7357640742571725	2293.227876938687
0.7358867016028818	2299.8340994543864
0.7360093493864824	2305.952472437408
0.7361320176113801	2311.4090118998834
0.736254706280982	2316.569373347571
0.7363774153986956	2321.361348775847
0.7365001449679286	2322.4028410723954
0.7366228949920899	2323.9844313717263
0.7367456654745885	2331.612465090062
0.7368684564188344	2342.720301728048
0.7369912678282374	2356.591394176065
0.7371140997062088	2365.0037373714517
0.7372369520561599	2372.3863910072178
0.7373598248815024	2378.3448434921042
0.7374827181856494	2384.610057798914
0.7376056319720137	2391.032076340452
0.7377285662440091	2397.6056974959497
0.7378515210050496	2403.492832107962
0.7379744962585505	2408.4274579420094
0.738097492007927	2414.3557542184503
0.7382205082565949	2420.497201266449
0.738343545007971	2426.401670036901
0.7384666022654723	2433.344583270167
0.7385896800325165	2441.1681970010104
0.7387127783125219	2448.184249317365
0.7388358971089073	2455.1354261083734
0.7389590364250921	2462.1071640382893
0.7390821962644963	2469.26832951871
0.7392053766305403	2476.51726733611
0.7393285775266454	2483.6082864924833
0.7394517989562333	2490.6930837714776
0.7395750409227259	2497.768851611616
0.7396983034295463	2504.831986981822
0.739821586480118	2511.8355956921487
0.7399448900778645	2518.5708670855956
0.7400682142262109	2525.0100034470715
0.740191558928582	2531.2100201063336
0.7403149241884034	2537.3398941990185
0.7404383100091014	2543.6038644438763
0.7405617163941028	2550.1760625390502
0.7406851433468352	2557.0964185133134
0.7408085908707264	2563.8479288209173
0.7409320589692048	2566.240309870405
0.7410555476456997	2572.852069550833
0.7411790569036406	2584.6260791281006
0.7413025867464579	2591.9983356757234
0.7414261371775823	2598.466776287917
0.7415497082004452	2604.914392224135
0.7416732998184786	2611.6562155646957
0.741796912035115	2618.600317653642
0.7419205448537874	2624.47028872203
0.7420441982779297	2631.2277307247323
0.742167872310976	2639.629745126801
0.7422915669563612	2648.352020876111
0.7424152822175206	2657.0195438331352
0.7425390180978901	2664.495562605133
0.7426627746009065	2671.378973903568
0.7427865517300065	2677.686541906336
0.7429103494886282	2686.3774839093194
0.7430341678802096	2695.079173674839
0.7431580069081896	2703.044680233288
0.7432818665760077	2710.5638076541113
0.7434057468871037	2717.8410016407547
0.7435296478449182	2724.8418717496343
0.7436535694528923	2732.1560488067353
0.7437775117144678	2739.8814433171165
0.7439014746330868	2746.1743753804176
0.7440254582121922	2752.5644138535904
0.7441494624552276	2760.557420920616
0.7442734873656368	2767.151793292458
0.7443975329468645	2772.784341654877
0.7445215992023557	2779.9328350482897
0.7446456861355559	2787.01032407309
0.7447697937499119	2793.9123140646416
0.7448939220488703	2801.7797489933655
0.7450180710358784	2810.0320127961018
0.7451422407143843	2818.7162297376685
0.7452664310878367	2827.1443612441917
0.7453906421596846	2835.3499452137708
0.7455148739333779	2843.486853503924
0.7456391264123667	2851.6122250718963
0.7457633996001021	2859.7233137645517
0.7458876935000356	2867.699949152917
0.7460120081156189	2875.635029635156
0.7461363434503048	2883.7005729482416
0.7462606995075466	2891.4997383104555
0.7463850762907978	2899.0193921544833
0.7465094738035127	2906.5269704187954
0.7466338920491467	2914.4086780264656
0.746758331031155	2923.292683368609
0.7468827907529935	2931.423196086097
0.7470072712181189	2939.22247094459
0.7471317724299886	2947.7880801595234
0.7472562943920602	2956.1223355081047
0.7473808371077922	2964.175806838403
0.7475054005806435	2970.6851998904804
0.7476299848140736	2977.514864183562
0.7477545898115426	2986.2395796830133
0.7478792155765113	2994.749226179138
0.7480038621124406	3003.0696847737845
0.7481285294227926	3009.3125763627268
0.7482532175110298	3017.3840552444694
0.7483779263806148	3027.911665254656
0.7485026560350116	3036.357027700795
0.7486274064776842	3044.425920133327
0.748752177712097	3052.7459295086755
0.7488769697417158	3061.6743378721635
0.749001782570006	3070.970304665761
0.7491266162004343	3079.499031432096
0.7492514706364677	3087.890919683857
0.7493763458815739	3096.087050815656
0.7495012419392209	3104.661961429068
0.7496261588128773	3113.2583070401
0.7497510965060128	3121.598612196983
0.7498760550220971	3130.185386732389
0.7500010343646007	3138.927345402772
0.7501260345369949	3147.2081947366555
0.750251055542751	3155.4764920963094
0.7503760973853414	3163.7259803311745
0.7505011600682389	3172.1627031207086
0.750626243594917	3180.543303463267
0.7507513479688495	3188.5431442800163
0.7508764731935109	3196.7235349743482
0.7510016192723765	3205.0248646417244
0.7511267862089218	3213.750230558348
0.7512519740066232	3222.5502640072577
0.7513771826689577	3231.454914093333
0.7515024121994025	3240.5506909688115
0.7516276626014359	3249.537826425813
0.751752933878536	3257.9886765795727
0.7518782260341824	3266.170302013831
0.7520035390718548	3274.2310576021982
0.7521288729950334	3283.691235883503
0.7522542278071992	3293.0307765665702
0.7523796035118337	3302.211546768115
0.7525050001124189	3311.069310730898
0.7526304176124378	3319.685646997144
0.7527558560153731	3327.74161546655
0.752881315324709	3337.2163564255543
0.7530067955439299	3347.4211443062777
0.7531322966765205	3356.908888175014
0.7532578187259665	3366.2554885440127
0.7533833616957542	3375.436494031859
0.75350892558937	3384.4173502605854
0.7536345104103016	3393.413632374871
0.7537601161620366	3402.5295058444763
0.7538857428480638	3411.3514027077244
0.7540113904718717	3420.070623994285
0.7541370590369503	3429.125673887614
0.7542627485467898	3437.960221193811
0.7543884590048808	3446.573511255578
0.7545141904147151	3456.7013533795825
0.7546399427797842	3466.6846339924523
0.7547657161035808	3476.026690557227
0.754891510389598	3485.239064877854
0.7550173256413296	3494.4476212210825
0.7551431618622698	3503.932168267793
0.7552690190559135	3513.326560555934
0.7553948972257561	3522.64696053118
0.7555207963752938	3532.2117832682056
0.755646716508023	3541.724002213378
0.755772657627441	3551.12850370018
0.7558986197370455	3560.7313931095423
0.756024602840335	3570.342517900959
0.7561506069408084	3579.7576550946287
0.7562766320419653	3589.197944214677
0.7564026781473054	3598.6620961413882
0.75652874526033	3608.4543252239255
0.7566548333845401	3618.136963875365
0.7567809425234375	3627.6766611349226
0.7569070726805247	3637.2552632794914
0.7570332238593047	3646.9084452122097
0.7571593960632813	3656.748822236276
0.7572855892959586	3666.1669604529666
0.7574118035608413	3675.3958812856495
0.7575380388614347	3684.7265469554272
0.7576642952012449	3694.58162428815
0.7577905725837782	3704.9423037777824
0.7579168710125422	3714.929980484961
0.7580431904910444	3724.951837059954
0.7581695310227928	3735.0961553267507
0.7582958926112967	3745.0474256604384
0.7584222752600652	3754.94540911233
0.7585486789726085	3764.8774888713915
0.7586751037524372	3775.0199741311403
0.7588015496030628	3785.303543782669
0.7589280165279966	3795.324733697623
0.7590545045307512	3805.3309166775707
0.7591810136148396	3815.3167383963023
0.7593075437837755	3825.3393878079137
0.7594340950410726	3835.3811102981163
0.7595606673902461	3845.4548655422623
0.7596872608348112	3855.5592804570424
0.7598138753782836	3865.692408411544
0.75994051102418	3875.940701797893
0.7600671677760173	3886.3786072204334
0.7601938456373134	3896.9847023307334
0.7603205446115863	3907.3380318752284
0.7604472647023548	3917.6640421929146
0.7605740059131385	3927.964791988495
0.7607007682474575	3938.301563829068
0.7608275517088319	3948.658240618981
0.7609543563007835	3959.050257343583
0.7610811820268336	3969.4715559369174
0.7612080288905045	3979.9073435399564
0.7613348968953197	3990.3043140249124
0.7614617860448022	4000.5643992865303
0.7615886963424764	4010.6801102865616
0.7617156277918667	4021.216902598891
0.7618425803964988	4031.91838218812
0.7619695541598982	4042.8632768692855
0.7620965490855914	4053.4190581364232
0.7622235651771058	4063.950646449992
0.7623506024379685	4074.911412629634
0.7624776608717082	4085.5460599842177
0.7626047404818536	4095.984722368078
0.7627318412719337	4106.7057724080005
0.762858963245479	4117.448023930577
0.7629861064060198	4128.214511977193
0.7631132707570876	4138.724323321229
0.7632404563022137	4149.296702786362
0.7633676630449308	4160.069231062857
0.7634948909887717	4170.690364393556
0.7636221401372697	4181.311054674494
0.7637494104939593	4192.1709252069295
0.7638767020623748	4202.855880126794
0.7640040148460518	4213.424407339132
0.7641313488485262	4223.9446841700665
0.7642587040733344	4234.442380767066
0.7643860805240132	4244.913365428722
0.7645134782041005	4255.033451399074
0.7646408971171346	4265.0335333466965
0.764768337266654	4274.869333475847
0.7648957986561985	4284.137870988211
