#wavelength	surface flux
0.676892	220.4296940750482
0.678297	229.61975477772714
0.679702	239.16639137415166
0.681109	249.06310273308964
0.682517	259.3277203997869
0.683926	269.99656838109195
0.685337	281.05601257287225
0.686749	292.51494896131794
0.688164	304.41381340092
0.689581	316.7231257686084
0.691	329.4685021553187
0.692422	342.42191227057754
0.693847	356.3824837769768
0.695274	370.92562196898297
0.696705	385.8456756575194
0.698139	401.1997969032916
0.699576	416.98143708984185
0.701017	433.8552630157244
0.702461	451.0368288420969
0.70391	468.99710458342764
0.705362	487.61158992207265
0.706819	506.8286570616451
0.70828	526.7140314161221
0.709745	547.2477026232069
0.711216	569.1077385943939
0.71269	591.4024766016993
0.71417	614.4409132295071
0.715655	637.9806002334814
0.717145	661.0040453811665
0.71864	688.8543688316529
0.72014	716.3706109691565
0.721647	744.1923422053047
0.723158	773.2027082415856
0.724676	803.5578629366624
0.726199	834.8043823205707
0.727728	867.3674763869897
0.729264	900.7341280856019
0.730805	934.8360382043153
0.732353	972.4749565964402
0.733907	1009.6914297567611
0.735468	1047.4142744574194
0.737035	1088.987497370871
0.738609	1132.4207182878713
0.74019	1176.2692717633695
0.741777	1221.195459800624
0.743372	1269.1307574081425
0.744973	1317.8990771349233
0.746582	1369.5295857653691
0.748197	1422.6935766534011
0.74982	1478.62829475761
0.751451	1535.593593289781
0.753088	1595.0956434531688
0.754734	1656.7219709936453
0.756386	1720.4215870838598
0.758047	1785.8824199472067
0.759715	1853.1407254560606
0.76139	1920.6459415872089
0.763074	1983.5900687048997
0.764765	2015.8322871711116
0.766464	1980.1575677520311
0.768172	2120.5239866179127
0.769887	2157.294391644081
0.77161	2341.136779104474
0.773341	2494.1561781087426
0.775081	2603.493701515143
0.776829	2708.9556472649115
0.778585	2811.241276794692
0.780349	2888.682789365824
0.782121	3037.5816914654006
0.783902	3158.2616000701532
0.785691	3280.6152185370324
0.787489	3406.8616151809597
0.789295	3537.981864866304
0.79111	3674.9952644102154
0.792933	3814.7761551294725
0.794764	3919.3017574388414
0.796604	4110.263178280613
0.798453	4273.807375128944
0.80031	4437.518490141618
0.802176	4608.331454781064
0.804051	4786.3283200675705
0.805934	4969.716251904695
0.807826	5160.441772694004
0.809727	5348.876327689939
0.811636	5540.847688804665
0.813554	5750.491038588241
0.81548	5979.535204470679
0.817416	6205.436908155482
0.81936	6446.5523940996645
0.821313	6706.397097865403
0.823274	6930.329306869504
0.825244	7221.071086478096
0.827223	7487.141243815714
0.829211	7785.339615026558
0.831208	8073.451645209969
0.833213	8392.02832154614
0.835227	8709.109629025737
0.837249	9034.731261855433
0.83928	9375.331337258274
0.841321	9737.964784911836
0.843369	10108.068981107552
0.845427	10483.721267585339
0.847493	10877.547348639107
0.849567	11290.110871830788
0.851651	11718.15577318609
0.853742	12155.837357798955
0.855843	12613.542495669859
0.857952	13086.653168791649
0.86007	13570.743098413519
0.862196	14043.333047817916
0.864331	14563.718943886892
0.866474	15130.44514048688
0.868626	15696.672826430378
0.870786	16272.555241548489
0.872955	16876.290847168337
0.875132	17504.656374685215
0.877317	18150.47903125419
0.879511	18821.61123546289
0.881713	19510.06594731405
0.883923	20224.750762710846
0.886142	20966.83427400166
0.888369	21730.167718393095
0.890604	22455.709852601296
0.892847	23219.02536396724
0.895099	24116.446219214606
0.897358	24623.86304745675
0.899626	25634.992176221436
0.901901	26822.14032536149
0.904185	27828.502936046443
0.906476	28828.560010239693
0.908776	29837.39427957359
0.911083	30893.36254321692
0.913398	32020.16441936183
0.915721	33078.16360759656
0.918051	34226.94863385331
0.92039	35357.761757268454
0.922736	36763.10583354425
0.925089	37759.35822302509
0.927451	38648.296857366564
0.929819	39047.57609661197
0.932195	39129.675510146255
0.934579	39178.98459225877
0.93697	41810.34648778931
0.939369	45924.99891679427
0.941774	47930.7682106258
0.944187	49535.2882041216
0.946607	49096.519626731664
0.949035	50713.83748572651
0.951469	53640.43237507163
0.953911	55803.969676837296
0.956359	55212.07325797439
0.958814	59585.53200855271
0.961277	61203.89118953274
0.963746	64192.162821184625
0.966222	66247.08237450701
0.968705	69324.92976651782
0.971194	70953.72265713758
0.97369	73093.57611145116
0.976193	76103.4775379989
0.978702	78907.11495076753
0.981217	81419.45242196626
0.983739	84349.25680098962
0.986268	87035.13009414237
0.988802	89940.45110450733
0.991343	93059.6095010057
0.99389	96038.70340678212
0.996444	99352.15751929839
0.999003	102425.60618782481
1.00157	105481.1639057524
1.00414	108758.62381149436
1.00672	112141.58453224362
1.0093	115563.74637083829
1.01189	119150.88776161212
1.01448	122794.11658673923
1.01708	126528.85252132248
1.01969	130382.6460612011
1.0223	134307.80333846534
1.02492	138338.80562926555
1.02754	142481.8625657294
1.03017	146722.24057644585
1.0328	151038.00317933768
1.03544	155511.31993110524
1.03808	160060.6278249932
1.04073	164742.51556415015
1.04339	169536.5433692754
1.04604	174409.13351606345
1.04871	179436.83441441858
1.05138	184598.76901084714
1.05405	189877.44562006166
1.05673	195282.29943011331
1.05941	200671.16158901082
1.0621	206797.57776725866
1.06479	213086.65284988724
1.06749	218745.88119358817
1.07019	225012.22759559058
1.07289	231287.75561059878
1.0756	237709.68785832584
1.07832	243977.51015320254
1.08104	250770.43481441043
1.08376	257614.24957307905
1.08649	264202.9671808598
1.08922	271295.4670414749
1.09195	277898.77128098975
1.09469	284958.86680161563
1.09743	289019.3602099681
1.10018	293692.77953061496
1.10293	299821.07330125343
1.10568	309410.9208218011
1.10844	316545.57828965434
1.1112	318986.9696293628
1.11396	303483.67589185596
1.11673	309942.03151499346
1.1195	327796.55142890767
1.12228	303278.24498802813
1.12505	299609.22752350004
1.12783	348271.51725842495
1.13062	384852.89204838127
1.13341	365587.20341611304
1.1362	380794.33569180436
1.13899	418539.1751208872
1.14178	428777.15494953434
1.14458	420512.202745414
1.14738	395560.15119263344
1.15019	418235.0495604133
1.153	468264.77013977134
1.1558	464594.2113002479
1.15862	496413.00031444937
1.16143	504699.33085513813
1.16425	488716.73807110655
1.16707	531499.7724765769
1.16989	530480.5936846669
1.17271	548249.4571997522
1.17554	568286.1210647696
1.17837	584485.1777663537
1.1812	601019.4239110746
1.18403	615609.0196875465
1.18686	629367.8054858778
1.1897	642652.874050849
1.19253	660642.7338860715
1.19537	675492.333369914
1.19822	685329.3324964177
1.20106	705819.3417550942
1.2039	721477.9211388002
1.20675	738549.8272918618
1.2096	753997.9848005101
1.21245	767282.8593097541
1.2153	785839.1629916355
1.21815	804723.0713415726
1.221	821059.6037254275
1.22385	837979.0762785971
1.22671	856328.4865737612
1.22957	873986.1713236991
1.23242	891793.5981126187
1.23528	910956.8274882914
1.23814	929875.858871755
1.241	948355.9303206889
1.24387	967721.7069045828
1.24673	986856.6754065077
1.24959	1006377.2774975793
1.25245	1026209.5232754782
1.25532	1046475.0276033483
1.25818	1067116.4180125433
1.26105	1087923.7919113429
1.26392	1109176.6374792147
1.26678	1130545.27190326
1.26965	1150245.6667515945
1.27252	1171206.1954585125
1.27538	1194922.2338530356
1.27825	1217227.4048055501
1.28112	1237351.6508964268
1.28399	1255323.6751127616
1.28686	1282830.0926083177
1.28973	1306115.1033723708
1.2926	1323979.2902919655
1.29546	1325374.008188452
1.29833	1358904.5793211437
1.3012	1392623.145070975
1.30407	1419748.5831684507
1.30694	1450310.9176878901
1.30981	1473451.626539457
1.31267	1489729.1581132591
1.31554	1515632.339046086
1.31841	1517145.9477609738
1.32128	1567836.1857564852
1.32414	1591552.1979081344
1.32701	1621985.6902905253
1.32987	1626011.6510298073
1.33274	1597697.3319447446
1.3356	1591260.3529478344
1.33847	1323968.2484061227
1.34133	1187547.9912342036
1.34419	1100074.7370334747
1.34705	1132778.1368289855
1.34991	1134356.8246677641
1.35277	1390338.7641597665
1.35563	1093742.6755209262
1.35849	980031.1330968514
1.36135	1109449.4771424755
1.3642	1273262.481202719
1.36706	1363403.8590686913
1.36991	1410797.3623357639
1.37277	1552999.7534611425
1.37562	1417732.5016336048
1.37847	1779325.5305126675
1.38132	1569416.9583613612
1.38417	1492313.1310894804
1.38701	1302503.4672867574
1.38986	1575031.2931611105
1.39271	1476961.5147153258
1.39555	1291773.4898397077
1.39839	1595851.419669571
1.40123	1566398.3973534363
1.40407	1816883.5275860033
1.40691	1811155.6422268425
1.40974	1901841.5306193081
1.41258	1899074.7003618504
1.41541	1750345.1256095527
1.41824	1467502.5015772292
1.42107	1577254.6905375144
1.4239	1467955.8707044092
1.42673	1948795.828003087
1.42955	2078666.942263006
1.43237	1870207.6431902542
1.43519	2051779.365673838
1.43801	2189041.813951579
1.44083	2087935.972255738
1.44365	2304913.727486949
1.44646	2326953.3916131393
1.44927	2353046.5965866344
1.45208	2427602.457286117
1.45489	2224644.562679972
1.45769	2780803.8733060113
1.4605	2967125.7593270307
1.4633	2725030.606831199
1.4661	2915541.365629104
1.4689	2894225.699000092
1.47169	3065510.000591806
1.47449	2998602.2273116703
1.47728	3143527.033276262
1.48007	3191923.3666379284
1.48286	3149552.382662107
1.48564	3285997.8240948464
1.48842	3385351.3622406945
1.4912	3463946.5349255325
1.49398	3513471.8187912204
1.49676	3491657.935776824
1.49953	3605891.0089157773
1.5023	3593063.86155576
1.50507	3772340.9664644143
1.50784	3800795.639521882
1.51061	3839491.305249663
1.51337	3923943.210187555
1.51613	3968206.854912854
1.51888	4017641.458070869
1.52164	4081727.727560766
1.52439	4142394.1110731196
1.52714	4070242.808603612
1.52989	4147367.042946006
1.53263	4308483.89470591
1.53538	4422552.085960584
1.53812	4475473.407701213
1.54086	4511737.523098188
1.54359	4547133.05334529
1.54632	4619817.9905177085
1.54905	4682232.066263532
1.55178	4736246.970874267
1.5545	4783449.726864093
1.55723	4828256.154211616
1.55995	4886848.86866596
1.56266	4940975.218505119
1.56538	5000897.478937555
1.56809	5072125.966582979
1.5708	5110393.735716626
1.57351	5167498.762788062
1.57621	5233258.788580262
1.57891	5278657.292411665
1.58161	5332973.538455437
1.5843	5379256.868762029
1.587	5415857.991461594
1.58969	5480743.792735573
1.59238	5539190.341310132
1.59506	5593802.814945791
1.59774	5651327.569629005
1.60042	5709130.120171209
1.6031	5759852.576506654
1.60577	5811798.027915089
1.60844	5866815.925578877
1.61111	5924417.946554533
1.61378	5978286.35300406
1.61644	6030688.966032467
1.6191	6081334.954965676
1.62176	6097074.863348349
1.62441	6050386.360616671
1.62707	6058967.92728568
1.62971	6053592.661427185
1.63236	6078728.086416445
1.635	6277860.196958111
1.63764	6429489.753346454
1.64028	6473209.067166613
1.64292	6540158.25251043
1.64555	6570667.885951608
1.64818	6614161.889160943
1.65081	6676053.586724317
1.65343	6697282.214218178
1.65605	6585931.590526087
1.65867	6744823.643065586
1.66128	6851121.2454958325
1.6639	6843741.3440643735
1.66651	6258015.962660643
1.66911	6381944.039445425
1.67172	7035415.151167002
1.67432	7192342.178188196
1.67692	7203338.72372947
1.67951	7262312.37798233
1.68211	7176130.47947691
1.6847	7162402.161132274
1.68728	7430651.602284239
1.68987	7498439.217594387
1.69245	7204847.109893045
1.69503	7094735.049762569
1.6976	7427530.20644652
1.70018	7137417.6106296955
1.70275	7127369.478522123
1.70531	7240369.847609889
1.70788	7462018.456464376
1.71044	7824078.963618337
1.713	7985411.376414753
1.71556	8071508.5588799175
1.71811	8111615.55926015
1.72066	8012447.415903144
1.72321	7771885.66369079
1.72575	7727617.169520033
1.7283	7764998.080564687
1.73084	7855759.846097623
1.73337	7822704.937281424
1.73591	7731371.505078191
1.73844	8081702.160326054
1.74097	8124889.591120951
1.74349	8192159.292320015
1.74602	8399881.973884653
1.74854	8608964.454725271
1.75105	8556053.218170177
1.75357	8150513.878629496
1.75608	7978669.022101401
1.75859	8119185.3813724825
1.7611	8071510.185381247
1.7636	8013279.163067522
1.7661	7452240.771260457
1.7686	7309252.052048907
1.7711	8038431.718932551
1.77359	7490474.687192091
1.77608	6654683.783837731
1.77857	7166318.743400378
1.78105	7334270.02512709
1.78354	6670415.549978777
1.78602	6491658.754716661
1.78849	6557492.065243897
1.79097	6117955.613896379
1.79344	6776716.508757834
1.79591	7138038.362138661
1.79837	7173965.902117747
1.80084	5939032.87320333
1.8033	6283656.329299628
1.80576	6230593.305368914
1.80821	5405157.499855566
1.81067	5167062.901372064
1.81312	6268198.555173163
1.81557	7830628.025818122
1.81801	7596004.300832792
1.82046	7289203.794049397
1.8229	8046609.947825077
1.82533	8590109.525309335
1.82777	8195878.120451951
1.8302	7725386.184525024
1.83263	7327053.638651477
1.83506	7502078.656991499
1.83749	7736489.753166424
1.83991	7208771.65908566
1.84233	7399311.351897662
1.84475	7879268.777852927
1.84716	6738743.126322366
1.84957	6837869.075546632
1.85198	8337229.181056465
1.85439	8503063.343538482
1.8568	7500177.5969464155
1.8592	6363751.625098603
1.8616	5079226.010105141
1.864	4972776.327940063
1.86639	5475245.242461739
1.86878	5341428.072787589
1.87118	5820935.900252261
1.87356	6068106.52167966
1.87595	7137719.392087291
1.87833	8607793.169465668
1.88071	8766586.186177302
1.88309	8232602.568864791
1.88547	7729128.665180845
1.88784	7831443.886786167
1.89021	7897332.345579821
1.89258	8136828.055684351
1.89494	8536517.186215172
1.89731	8523910.345443267
1.89967	7826405.27655113
1.90203	7760207.3020926425
1.90439	8482305.81384731
1.90674	9823696.071663303
1.90909	10568062.279735018
1.91144	9034116.061310265
1.91379	7846989.633305477
1.91613	9154605.151706802
1.91848	10252814.827335544
1.92082	9148883.452553624
1.92315	7681439.730072829
1.92549	8799708.048169458
1.92782	9759127.925025249
1.93015	9008909.67104083
1.93248	9243783.029409038
1.93481	9703957.97176818
1.93713	7689611.5010314
1.93945	5778565.027402945
1.94177	7171775.52961074
1.94409	8062565.583831272
1.94641	7682758.0348618105
1.94872	7505342.977795283
1.95103	8667417.323033378
1.95334	9150108.826528603
1.95564	7330392.685818615
1.95795	6642996.298124219
1.96025	7020218.566252289
1.96255	7837749.9765786305
1.96484	9582804.934022995
1.96714	10649544.251744008
1.96943	10085580.317723563
1.97172	10190441.130008096
1.97401	10635372.93425989
1.97629	10352517.031309417
1.97858	10534530.539351111
1.98086	10386686.823008474
1.98314	10823244.370501166
1.98541	11823829.288895585
1.98769	11161721.18066898
1.98996	9708111.419482194
1.99223	10022302.630841888
1.9945	11252310.848529715
1.99677	11549295.467137137
1.99903	10985280.097557513
2.00129	10753282.646435937
2.00355	11590299.188882777
2.00581	12456772.790203048
2.00806	12373607.940869473
2.01031	12777334.892760687
2.01256	13715432.672601804
2.01481	13713707.614339197
2.01706	13165082.523601882
2.0193	13425291.502075221
2.02154	14287678.288124546
2.02378	14549751.37670628
2.02602	14185965.51017867
2.02825	13741097.79846527
2.03049	13497505.359063419
2.03272	14089876.97630771
2.03494	14824093.44340991
2.03717	14981716.935336024
2.03939	14963274.488539768
2.04162	15038182.261068424
2.04384	15137960.309960337
2.04605	14893477.724461569
2.04827	14218646.109557053
2.05048	14146861.813055087
2.05269	14744392.118719332
2.0549	15152953.967967812
2.05711	15221120.49755218
2.05931	14919000.275792569
2.06151	14782006.026780108
2.06371	15048491.15421095
2.06591	15303909.360357886
2.06811	15501773.66915798
2.0703	15687655.332702618
2.07249	15860268.784329355
2.07468	15984361.439507522
2.07686	16065703.09945057
2.07905	16142943.298320757
2.08123	16201688.205078006
2.08341	16186408.989456518
2.08559	16110045.480305184
2.08776	16135873.38052318
2.08994	16239123.65234163
2.09211	16305385.38277
2.09428	16382525.982324066
2.09645	16434916.637669582
2.09861	16431216.811339725
2.10077	16473819.785900025
2.10293	16583493.563466996
2.10509	16650974.588094713
2.10725	16597474.124901138
2.1094	16405145.028707761
2.11155	16128869.985261142
2.1137	16050338.928957963
2.11585	16283146.387031104
2.11799	16585227.451012865
2.12013	16825955.706758384
2.12227	16963752.276537575
2.12441	17014274.46403273
2.12655	17039979.971598975
2.12868	17062241.097498424
2.13081	17092819.655481644
2.13294	17150863.358805735
2.13507	17220134.82477035
2.13719	17270838.047115978
2.13931	17298286.11685844
2.14143	17307989.21312975
2.14355	17326165.94401674
2.14567	17349498.68308389
2.14778	17318649.98794697
2.14989	17224451.322113533
2.152	17010840.635759655
2.1541	16696981.060130248
2.15621	16758730.791134609
2.15831	17174247.237983715
2.16041	17369574.06130771
2.16251	17463619.053979043
2.1646	17578374.369138744
2.1667	17663369.23318766
2.16879	17713844.554279108
2.17087	17673043.74978429
2.17296	17590888.77030927
2.17504	17634539.131116115
2.17713	17784201.33237433
2.1792	17891171.22347811
2.18128	17928755.452446245
2.18336	17933808.571318347
2.18543	17952634.531219345
2.1875	17977786.870168887
2.18957	18003508.607497346
2.19163	18039021.31951366
2.1937	18030122.849395465
2.19576	17835017.068024095
2.19782	17273208.59701778
2.19987	16771532.43133804
2.20193	16798089.504710447
2.20398	17233322.020304486
2.20603	17769197.064279877
2.20808	18134071.287734233
2.21012	18293368.686314676
2.21217	18264863.67955369
2.21421	17969554.293988734
2.21625	17573084.552959997
2.21828	17487275.482116893
2.22032	17653707.157621346
2.22235	17635836.324408732
2.22438	17332542.87308535
2.22641	17086965.68096356
2.22843	17153871.793407205
2.23046	17285319.511521373
2.23248	17353475.852834247
2.2345	17555556.98639801
2.23651	17671042.262037627
2.23853	17247652.46741711
2.24054	16477476.74436714
2.24255	16369690.578433052
2.24456	16890163.344107248
2.24657	16939543.11796133
2.24857	16566736.795454437
2.25057	16171100.294523625
2.25257	15787575.482847316
2.25457	15220349.151971644
2.25656	15404889.660071697
2.25856	16266044.855459241
2.26055	16672961.92804073
2.26254	16680897.62670395
2.26453	16853397.675954107
2.26651	17102982.60775882
2.2685	17246794.173669506
2.27048	17315731.562123854
2.27246	17408509.12397857
2.27443	17145475.853130814
2.27641	16821831.011251967
2.27838	17173231.51173683
2.28036	17931814.65292514
2.28233	17804948.170928348
2.28429	16145164.047893677
2.28626	14354348.197383525
2.28823	14437802.50019798
2.29019	15446345.991976097
2.29215	15378395.454571389
2.29411	14732650.195895951
2.29607	14569910.211578734
2.29802	15149881.053704195
2.29998	15938202.385570934
2.30193	16827242.19551496
2.30388	17477987.164774105
2.30583	17922988.693130452
2.30778	18045128.738026988
2.30972	18132632.786364123
2.31167	18220410.994089846
2.31361	17352119.462964572
2.31555	15343133.43328451
2.31749	14318964.723463971
2.31943	14853085.270344086
2.32137	15236848.612607578
2.32331	14782119.862974295
2.32524	14454315.424359232
2.32718	14818076.275431976
2.32911	15093707.333097037
2.33104	15355342.882267859
2.33297	15633236.643591207
2.3349	15871207.226199731
2.33683	15905467.781620093
2.33876	15859814.507263053
2.34068	15696592.82685392
2.34261	15491231.186319588
2.34453	14989228.482254356
2.34646	13940547.78904719
2.34838	13699530.537399445
2.3503	14248707.397910846
2.35223	15113344.916500118
2.35415	15214830.035149522
2.35607	14834977.048077837
2.35799	14813317.584651183
2.35991	15294181.70601399
2.36183	16215801.751872946
2.36375	17419561.942336958
2.36566	17782916.093190968
2.36758	16122128.159725934
2.3695	13818877.61433638
2.37142	12665324.681246972
2.37334	12323237.284716563
2.37526	12518928.60107187
2.37718	13156282.045057649
2.3791	14333081.272225035
2.38101	15299840.222626308
2.38293	15893685.974773463
2.38485	15606664.35133066
2.38677	15489956.121356307
2.3887	16524979.85818736
2.39062	18327985.801707596
2.39254	19138483.24457152
2.39446	18814975.439872857
2.39639	17441155.683981918
2.39831	15800598.608586637
2.40024	14400151.874837412
2.40216	13762198.426409703
2.40409	14151830.943700042
2.40602	15479052.561823502
2.40795	16643767.82150696
2.40989	17032434.398326974
2.41182	16586428.963538298
2.41376	15195133.705986787
2.4157	13707959.87498327
2.41764	12862909.865361365
2.41958	13121942.900914032
2.42152	13750511.23346329
2.42347	14403593.837808685
