#wavelength	surface flux
0.6450077295303345	1309.7824165313127
0.6472567915916443	1391.315225617934
0.6494921445846558	1476.5909886686022
0.6517150402069092	1565.797799414897
0.6539263725280762	1658.8379643224025
0.6561272740364075	1754.9250968695633
0.6583186388015747	1853.4533858534323
0.6605015397071838	1967.8778232999537
0.6626768708229065	2080.2170895524137
0.6648455858230591	2197.9178699649215
0.6670085787773132	2320.9420119396827
0.6691668033599854	2448.9214986755255
0.6713210344314575	2527.732411415469
0.6734722256660461	2725.480234127894
0.6756211519241333	2872.9076617525443
0.6777685880661011	3024.1641194240933
0.6799154281616211	3187.532253665648
0.6820623278617859	3353.087330994386
0.6842101216316223	3523.69798589679
0.6863595843315125	3702.569226550001
0.688511312007904	3871.2534543499532
0.6906660795211792	4030.23838491846
0.6928245425224304	4264.464347208516
0.6949873566627502	4513.465943005649
0.6971551775932312	4751.597738647675
0.6993286609649658	4967.136426847105
0.7015084028244019	5257.800514804056
0.7036949396133423	5537.72590244459
0.7058889269828796	5819.608928280122
0.7080909013748169	6108.760734125909
0.710301399230957	6411.795780152191
0.712520956993103	6733.490113863886
0.7147500514984131	7065.659079267401
0.7169892191886902	7389.285924302454
0.7192389369010925	7783.785161331627
0.7214996814727783	8164.017619068739
0.723771870136261	8568.377672851417
0.7260559797286987	8994.172021769207
0.7283523678779602	9434.992170549935
0.7306615710258484	9884.781797283113
0.7329838871955872	10374.480857593655
0.7353196740150452	10799.935105889877
0.7376693487167358	11354.719811118182
0.7400332689285278	11889.769977968554
0.7424117922782898	12434.130664151857
0.7448052167892456	13022.47682965641
0.7472138404846191	13699.91241339326
0.7496379613876343	14410.294613972603
0.7520779371261597	15094.18849443451
0.7545340061187744	15840.20297171864
0.7570064663887024	16578.497484471573
0.7594954967498779	17267.49300269099
0.7620013952255249	17731.22739949321
0.7645244002342224	16052.138073620932
0.7670646905899048	9301.115129364358
0.7696225643157959	11269.861627605793
0.7721980810165405	19545.989104701068
0.7747915983200073	22739.775378154834
0.7774031162261963	24194.290575894316
0.7800329327583313	23329.48760101289
0.7826811671257019	26802.795441042654
0.7853479981422424	28158.778770683977
0.7880334854125977	29536.836319725808
0.7907378077507019	30982.610275461593
0.7934610247612	32030.713433734916
0.7962033748626709	33387.92646647574
0.7989648580551147	35687.025586565935
0.801745593547821	37401.674601285806
0.8045456409454346	39253.31080331982
0.8073651194572449	41172.748138284005
0.8102040886878967	43052.116884078525
0.8130625486373901	45184.64870777985
0.8159406185150146	47422.393740269596
0.8188382983207703	49559.518747547685
0.8217556476593018	52106.94587195204
0.8246926665306091	54581.57802656231
0.8276493549346924	57173.73506113984
0.8306257724761963	59954.761343969876
0.8336219191551208	62890.3754241985
0.8366377949714661	65870.378639596
0.8396733403205872	68962.240915349
0.8427285552024841	72326.0520184559
0.8458034992218018	75688.08520620319
0.8488980531692505	79305.73220354086
0.8520121574401855	83072.56554873999
0.8551458716392517	86913.95221715597
0.8582990765571594	90995.2935188896
0.8614717125892639	95161.27360903317
0.8646637797355652	99417.16302701173
0.8678751587867737	104206.40757356837
0.8711057901382446	109155.38157334372
0.8743556141853333	114316.51592096774
0.87762451171875	119716.61776192873
0.8809124231338501	125291.69792841289
0.8842192888259888	131024.79257079137
0.8875449895858765	137132.72828588603
0.8908893465995789	142825.52141913187
0.894252359867096	149424.43010465702
0.8976338505744934	154104.0948810201
0.9010337591171265	163085.7099188207
0.9044519662857056	171050.98230790716
0.9078882932662964	178697.55095429602
0.9113426208496094	186867.87930318218
0.914814829826355	194863.84127158698
0.9183048605918884	203187.53913301695
0.9218124747276306	212276.5040419755
0.925337553024292	219803.63411012103
0.9288799166679382	226045.90344909404
0.9324395060539246	227589.2893515892
0.9360161423683167	238373.9587803923
0.9396095871925354	260190.33187904477
0.943219780921936	273594.0876750229
0.9468464851379395	272214.5431004435
0.9504896402359009	283741.01165655645
0.9541489481925964	302964.49316654645
0.9578243494033813	318907.27736782806
0.9615156054496765	328919.85960798553
0.9652225375175476	345690.7877803318
0.9689450263977051	365756.5567384336
0.9726828336715698	375433.89629927836
0.9764357805252075	395621.3145038605
0.9802037477493286	410839.3075711774
0.983986496925354	429780.3680299307
0.9877838492393494	447262.820287862
0.9915955662727356	466560.06004164595
0.9954215884208679	485883.20254872664
0.9992615580558777	505023.72578074073
1.0031154155731201	524094.55894921214
1.0069829225540161	544535.9033375036
1.0108637809753418	565740.3066234697
1.0147579908370972	587405.624190132
1.018665075302124	609666.0941210104
1.022585153579712	632800.1454610123
1.0265177488327026	656492.8183983263
1.0304628610610962	680922.6826866716
1.0344202518463135	706046.0503299885
1.0383895635604858	731900.6866013166
1.0423706769943237	758495.2836956462
1.0463634729385376	785714.7827279547
1.0503677129745483	813571.3680938748
1.0543830394744873	842777.9533367223
1.058409333229065	872275.7720831538
1.0624464750289917	904897.8511180648
1.0664942264556885	937119.3067240296
1.0705522298812866	969749.6921487415
1.0746204853057861	1003602.9010586103
1.0786986351013184	1036640.8211699057
1.0827864408493042	1072636.3245569177
1.086883783340454	1107286.4955839596
1.0909905433654785	1142228.7189406788
1.0951062440872192	1175213.9927853916
1.0992310047149658	1190398.7342082828
1.10336434841156	1228277.1804346186
1.1075061559677124	1280911.8397446983
1.1116561889648438	1314266.544656911
1.115814208984375	1158536.783578902
1.1199802160263062	1303937.1295791424
1.124153733253479	1203510.8153889095
1.1283347606658936	1404269.7489269304
1.1325229406356812	1513239.827140577
1.1367181539535522	1508729.1610233448
1.1409201622009277	1639826.9120665903
1.145128846168518	1599263.9395296357
1.1493438482284546	1517477.819540743
1.1535650491714478	1764608.0050515924
1.1577922105789185	1841523.3531693441
1.1620250940322876	1867804.1043038855
1.1662636995315552	1924660.692361554
1.170507550239563	1939118.4303961697
1.174756646156311	2040737.8166103023
1.1790107488632202	2118979.3351238985
1.1832695007324219	2189895.3455592953
1.1875330209732056	2240934.483312181
1.191800832748413	2318019.24906294
1.1960728168487549	2375849.640193254
1.2003488540649414	2439634.228200764
1.2046287059783936	2511137.629670862
1.2089121341705322	2579344.4671233874
1.2131990194320679	2634554.82509962
1.2174891233444214	2716987.013522304
1.2217823266983032	2785139.54910622
1.2260783910751343	2856353.4158583605
1.230377197265625	2925950.0917205215
1.2346785068511963	3003642.4972414672
1.238982081413269	3078198.082597048
1.2432878017425537	3152119.7270017206
1.2475954294204712	3227044.551463387
1.2519049644470215	3305477.3172357474
1.256216049194336	3384265.227859882
1.2605286836624146	3463389.9733252437
1.2648425102233887	3543193.2464340953
1.2691574096679688	3619847.049523211
1.2734732627868652	3700144.745255991
1.2777899503707886	3789688.7349145673
1.2821072340011597	3856222.9447705727
1.2864248752593994	3946568.76135571
1.2907428741455078	4025936.6752075707
1.2950609922409058	4033987.90614837
1.2993791103363037	4150827.126601938
1.303696870803833	4280340.935687463
1.3080145120620728	4374349.553136929
1.3123314380645752	4451460.502558178
1.3166478872299194	4533837.835851879
1.3209635019302368	4613783.943223673
1.3252781629562378	4721404.134726877
1.3295916318893433	4793234.484714617
1.3339040279388428	4691926.958024199
1.3382149934768677	4231048.101265746
1.3425244092941284	3652955.0982801295
1.3468321561813354	3626790.0703924797
1.3511382341384888	3793367.73989374
1.3554422855377197	3748425.3161654053
1.3597444295883179	3981785.2594712996
1.3640443086624146	3975097.027403027
1.3683418035507202	4215083.860529888
1.3726370334625244	4890021.791632407
1.3769296407699585	5009849.660193299
1.381219506263733	5144757.772657628
1.3855066299438477	4476777.630710917
1.3897908926010132	4803273.461971713
1.3940720558166504	4620445.994300423
1.3983501195907593	4797785.117281919
1.4026249647140503	5283579.242106114
1.4068963527679443	5376463.802815565
1.4111642837524414	5728902.191155702
1.4154287576675415	5029345.773261258
1.419689416885376	4873535.595649884
1.4239463806152344	4426731.198403028
1.4281994104385376	5911864.682388562
1.4324485063552856	5608107.129095991
1.436693549156189	6215375.9812101945
1.440934419631958	6029997.050000684
1.4451709985733032	6378356.058861549
1.449403166770935	6313950.330522837
1.453631043434143	6124981.3073795475
1.4578542709350586	7206796.641825544
1.4620729684829712	7149423.6267995685
1.4662868976593018	7385421.2545256885
1.4704961776733398	7743565.790245047
1.4747005701065063	7540723.372110906
1.4788999557495117	8044763.565313695
1.4830944538116455	7891061.617310095
1.4872838258743286	8270027.177587918
1.491468071937561	8629629.799133943
1.4956470727920532	8684830.526474986
1.4998208284378052	8748856.268693553
1.5039892196655273	8973093.416299269
1.5081522464752197	9149273.890476048
1.5123097896575928	9270001.178519549
1.5164618492126465	9449100.20439065
1.5206083059310913	9501777.515903054
1.5247491598129272	9627492.23730556
1.5288842916488647	9350608.237885434
1.5330137014389038	9956611.139402648
1.5371372699737549	10260921.729515435
1.541254997253418	10367216.24737643
1.545366883277893	10511544.948897269
1.5494728088378906	10666547.716880804
1.5535727739334106	10814133.666721566
1.5576666593551636	10928057.530662939
1.561754584312439	11042103.950800069
1.5658363103866577	11225508.949978653
1.5699119567871094	11363706.339353386
1.5739814043045044	11507231.038289396
1.5780447721481323	11645898.06319795
1.582101821899414	11771467.934993183
1.5861525535583496	11863128.889856363
1.5901970863342285	12011397.412415402
1.5942351818084717	12150785.097348737
1.5982669591903687	12287118.354371717
1.6022924184799194	12424974.11036029
1.606311559677124	12543418.892223183
1.6103241443634033	12667105.423230901
1.6143304109573364	12799260.01933147
1.6183301210403442	12929318.417543814
1.6223233938217163	12969363.544536388
1.6263102293014526	12907033.176210454
1.6302905082702637	12992385.255123751
1.634264349937439	13142035.439479113
1.638231635093689	13518619.372672869
1.6421923637390137	13645487.64199555
1.646146535873413	13719024.843531264
1.6500942707061768	13835754.43129793
1.6540353298187256	13849552.518583972
1.6579699516296387	13858894.76069005
1.661897897720337	14130281.234655997
1.6658192873001099	13515962.741508536
1.6697341203689575	13704039.546211388
1.6736423969268799	14592723.329580266
1.677544116973877	14643963.98872925
1.6814392805099487	14639030.409298321
1.6853278875350952	14664191.748722414
1.6892099380493164	15113812.079614984
1.6930854320526123	14443508.67620152
1.696954369544983	14940331.238608334
1.7008168697357178	14496521.33783744
1.7046726942062378	14677674.378358122
1.708522081375122	15228529.819880445
1.712364912033081	15750346.317190757
1.7162011861801147	15896925.675510384
1.7200311422348022	15856704.721016677
1.723854422569275	15359809.52753545
1.7276713848114014	15388865.95484889
1.731481909751892	15477332.38960547
1.7352858781814575	15017057.191655288
1.7390835285186768	15679842.141346648
1.7428747415542603	15607541.033600233
1.7466596364974976	16481474.131027391
1.7504380941390991	16680354.455574224
1.7542102336883545	16078548.174534997
1.7579760551452637	15984752.999819236
1.7617355585098267	16079947.51786413
1.7654887437820435	15408562.47186007
1.7692357301712036	14945467.329294616
1.7729763984680176	15548725.195501182
1.776710867881775	13911580.557735182
1.7804391384124756	15515053.704722036
1.7841613292694092	14599409.912682805
1.7878772020339966	14339164.732481636
1.7915871143341064	12658432.03465137
1.7952908277511597	14593338.365344718
1.7989884614944458	14745162.336747656
1.8026801347732544	14086998.170628762
1.806365728378296	13439700.960292142
1.8100452423095703	11207055.619311927
1.8137187957763672	14707675.979778832
1.817386507987976	16513563.34658663
1.8210482597351074	16262793.323831636
1.8247040510177612	17963215.25661108
1.828354001045227	17754303.162498288
1.8319982290267944	15858882.11338585
1.8356364965438843	17140718.257180564
1.8392690420150757	16163876.129164726
1.8428958654403687	16877593.80418717
1.8465168476104736	15154286.870755129
1.8501322269439697	15422057.651532223
1.8537418842315674	18014684.83373088
1.8573459386825562	15647629.539686428
1.860944390296936	12254166.460043045
1.864537239074707	12730068.722485833
1.8681244850158691	12470409.878528241
1.871706247329712	13409930.724154877
1.8752825260162354	14555364.003229722
1.8788533210754395	18094846.414277706
1.8824186325073242	17003777.595857132
1.8859784603118896	15446514.939724382
1.8895330429077148	16382280.309880165
1.8930821418762207	16498071.832685845
1.8966259956359863	17415447.71200547
1.9001644849777222	16803512.186337844
1.9036977291107178	16816248.875100575
1.9072256088256836	19798074.0202394
1.9107483625411987	19539648.128926754
1.9142658710479736	17532455.738025192
1.9177782535552979	19982696.532436043
1.9212853908538818	17890070.404510505
1.9247875213623047	16169531.589077638
1.9282845258712769	19347092.46751217
1.9317764043807983	18752031.985945437
1.9352631568908691	19146323.388619386
1.9387450218200684	13298633.779429294
1.942221760749817	14993709.524848903
1.9456936120986938	15299398.739334863
1.9491604566574097	15708489.615375899
1.952622413635254	18114965.169865903
1.956079363822937	13682565.922073068
1.959531545639038	14111230.972219566
1.962978720664978	17510084.109120723
1.966421127319336	20564219.517086055
1.9698586463928223	19700444.901638985
1.9732913970947266	20611424.32032277
1.9767193794250488	19995632.91263242
1.9801424741744995	20375010.323060248
1.9835609197616577	20445101.936248306
1.9869745969772339	20393735.652439356
1.990383505821228	17943116.794892874
1.9937876462936401	20116649.145901456
1.9971871376037598	21144770.11570037
2.000581979751587	19629534.47489067
2.003972291946411	20654653.56342085
2.007357597351074	22326611.786642224
2.0107386112213135	23026015.83815565
2.0141148567199707	23760543.90139654
2.017486572265625	22497008.574158266
2.0208535194396973	23571610.045128025
2.0242159366607666	24361788.01740625
2.027573823928833	23611873.895711325
2.0309269428253174	23193846.41745857
2.034275770187378	24630819.097816158
2.0376198291778564	25045387.373194482
2.040959596633911	25136978.619663857
2.044294595718384	25117398.329861503
2.0476250648498535	24280101.863518067
2.0509510040283203	24070439.934080865
2.054272413253784	25013002.070715856
2.057589530944824	25170708.204773176
2.0609018802642822	24496135.022319473
2.0642096996307373	25125478.28745263
2.0675129890441895	25667522.97711189
2.0708119869232178	26022005.20129108
2.074106216430664	26291982.174006965
2.0773961544036865	26445922.710012
2.080681324005127	26672217.7122266
2.0839622020721436	26661440.242622413
2.087238311767578	26572911.854745008
2.090510129928589	26794722.2384818
2.0937774181365967	26943700.763558365
2.0970399379730225	27044942.612632662
2.1002981662750244	27047840.642635997
2.1035518646240234	27250359.29651978
2.1068007946014404	27310800.122089125
2.1100454330444336	26902632.144859288
2.1132853031158447	26555610.369584735
2.116520881652832	27022393.70736226
2.1197516918182373	27587093.052710187
2.1229779720306396	27827235.391278803
2.12619948387146	27904145.699941758
2.1294167041778564	27966166.307037625
2.132629156112671	28087434.4471517
2.1358368396759033	28233477.53908814
2.139039993286133	28311686.8368483
2.1422386169433594	28332897.026653495
2.145432472229004	28405549.207404546
2.1486217975616455	28391880.95842162
2.151806354522705	28176487.943768892
2.1549863815307617	27764144.89193391
2.1581614017486572	28276729.823190644
2.16133189201355	28606949.915159862
2.1644976139068604	28761544.59164422
2.167658567428589	28924011.88734978
2.1708147525787354	28923327.65548596
2.173966407775879	28833922.1663058
2.1771130561828613	29113270.995622817
2.1802549362182617	29313600.322299305
2.183391809463501	29381756.464849345
2.1865241527557373	29403509.145293713
2.1896514892578125	29427407.210862953
2.1927738189697266	29508961.444671847
2.1958916187286377	29279530.836800072
2.1990041732788086	28378913.217054635
2.2021119594573975	28326997.253075443
2.2052149772644043	29106789.52126834
2.208312749862671	29770001.038889304
2.2114057540893555	29947527.826043587
2.214493751525879	29529342.118878674
2.217576742172241	29109799.078860253
2.2206547260284424	29337298.079517517
2.2237277030944824	29031059.678148437
2.2267956733703613	28752820.61593807
2.2298583984375	29227430.740903374
2.2329163551330566	29446898.37526694
2.235969066619873	29676114.29586091
2.2390167713165283	29119238.711721536
2.2420592308044434	28377354.545572452
2.2450966835021973	29096285.543991562
2.248128890991211	28654515.008659
2.2511560916900635	27879409.00544912
2.254178285598755	26359205.2157615
2.257194995880127	26790739.48472583
2.260206699371338	28565450.077118948
2.2632133960723877	29129121.44893717
2.266214609146118	29520811.85788185
2.2692108154296875	29341172.290360786
2.2722020149230957	29445146.71551087
2.2751877307891846	29120975.475958087
2.278168201446533	29247524.708644275
2.2811436653137207	30383847.673521206
2.284113883972168	27907184.0507453
2.287078857421875	24602033.72029696
2.290038824081421	26341848.055620834
2.2929933071136475	25864097.143444877
2.295942783355713	25429878.689008553
2.298887014389038	27000196.5509544
2.301826238632202	29185129.243760925
2.304760217666626	30280646.4635486
2.3076889514923096	30679030.61690782
2.310612440109253	30968854.06200549
2.3135311603546143	29614588.578213334
2.3164443969726562	26036928.14996147
2.319352865219116	26171438.59520283
2.322256088256836	26307481.642209686
2.3251543045043945	25366138.900706973
2.328047275543213	26561131.130348437
2.330935478210449	26896346.775715895
2.3338186740875244	27088517.122131433
2.3366971015930176	28021393.85012192
2.3395702838897705	28451430.063328758
2.3424389362335205	28250515.268203504
2.3453025817871094	26308951.19639479
2.348161458969116	24517096.075703867
2.351015567779541	25867367.444631945
2.353865146636963	26579091.81342621
2.3567099571228027	25353017.630442582
2.3595502376556396	25608008.176338043
2.3623859882354736	27763414.55793711
2.3652172088623047	28657399.810571805
2.368043899536133	24705314.952494077
2.370866537094116	22539191.57810774
2.3736846446990967	22640561.26751075
2.3764986991882324	23081530.757789932
2.3793084621429443	23902987.426563364
2.3821144104003906	25487860.902194645
2.384916305541992	26986120.152289238
2.387714147567749	27643903.946502034
2.3905084133148193	30569964.623417016
2.393299102783203	31902208.67168402
2.3960859775543213	30719118.44862692
2.398869514465332	27885075.07318656
2.4016497135162354	25376579.589651953
2.4044265747070312	25514651.723211024
2.407200336456299	27141319.87599721
2.409970998764038	28130735.857129246
2.4127390384674072	27109851.380830683
2.415503978729248	24213179.144602545
2.418266534805298	23916450.18624919
2.4210267066955566	25365985.506396186
2.4237842559814453	26029600.569504853
2.426539897918701	25023326.97006771
2.429293394088745	23966944.214937195
2.4320452213287354	24779115.246785603
2.4347951412200928	24750445.203522176
2.4375438690185547	24029404.14053785
2.440291166305542	23958534.0286064
2.443037271499634	24784211.833842196
2.445782423019409	26580554.509329837
2.4485268592834473	26927157.81582927
2.451270818710327	25998703.023713503
2.454014539718628	25661400.726923265
2.4567582607269287	25072150.15783237
2.4595019817352295	25378748.71773539
2.4622461795806885	27957495.497463048
2.4649908542633057	29356053.321210172
2.4677364826202393	27084614.739431735
2.4704833030700684	25288061.139136065
2.473231554031372	25156802.552351248
2.4759814739227295	25583522.13092192
