#wavelength	surface flux
0.7	12.166915320990153
0.7001166666666666	12.22318168233016
0.7002333527777778	12.27653230777423
0.700350058336574	12.322582086149003
0.7004667833462966	12.371355446779642
0.7005835278101878	12.422168274078823
0.7007002917314895	12.470642657045516
0.7008170751134447	12.518829609562987
0.7009338779592968	12.567550332334976
0.7010507002722901	12.616522544816542
0.7011675420556689	12.665820368829596
0.701284403312678	12.715020386361536
0.7014012840465635	12.76415067894055
0.7015181842605713	12.809944497112884
0.701635103957948	12.854865537944908
0.701752043141941	12.897741779339222
0.701869001815798	12.949243651570377
0.7019859799827672	13.006745027152324
0.7021029776460976	13.05211804725503
0.7022199948090387	13.096923735974856
0.7023370314748403	13.146968220857815
0.7024540876467528	13.201747985121719
0.702571163328027	13.262040871111493
0.7026882585219152	13.316228904152837
0.7028053732316688	13.368238645801878
0.7029225074605406	13.416324502995352
0.7030396612117841	13.461784424882007
0.7031568344886527	13.502104691303735
0.7032740272944008	13.556495150017183
0.7033912396322832	13.619096488447942
0.7035084715055552	13.675847834797038
0.7036257229174727	13.730894410849386
0.7037429938712924	13.781534172118175
0.7038602843702709	13.834888384040903
0.7039775944176659	13.890810773650557
0.7040949240167356	13.944999158980506
0.7042122731707383	13.998803876981691
0.7043296418829335	14.052779049687683
0.7044470301565806	14.105880249560089
0.70456443799494	14.157669139479504
0.7046818654012724	14.212480490233487
0.7047993123788394	14.268610389908803
0.7049167789309024	14.317890224741289
0.7050342650607243	14.370458843890377
0.7051517707715678	14.431103349679614
0.7052692960666963	14.489860610066343
0.705386840949374	14.54730690851278
0.7055044054228656	14.602347528835507
0.7056219894904361	14.657761113945444
0.7057395931553511	14.71608951658473
0.705857216420877	14.773598058517964
0.7059748592902804	14.830240199105948
0.7060925217668288	14.886981003170812
0.70621020385379	14.94388971886929
0.7063279055544321	15.002221764825052
0.7064456268720246	15.060141662722955
0.7065633678098366	15.117404511263642
0.7066811283711383	15.173894939920684
0.7067989085592001	15.230041641876102
0.7069167083772933	15.286617554969611
0.7070345278286895	15.340328873391632
0.707152366916661	15.387105493486347
0.7072702256444803	15.427010633693174
0.7073881040154211	15.462255529314954
0.7075060020327569	15.544784888797954
0.7076239196997625	15.62879152734493
0.7077418570197124	15.697707075198029
0.7078598139958823	15.76225860840913
0.7079777906315483	15.822566928538901
0.7080957869299869	15.882202680316894
0.7082138028944751	15.94217806816288
0.7083318385282908	16.005848485364368
0.7084498938347124	16.0683785220275
0.708567968817018	16.12934631305136
0.7086860634784875	16.18193103058999
0.7088041778224007	16.230755563774174
0.7089223118520377	16.26200522203858
0.7090404655706796	16.31614029503403
0.709158638981608	16.41421845814735
0.709276832088105	16.485454605464327
0.7093950448934531	16.542241553454883
0.7095132774009353	16.54542097585539
0.7096315296138355	16.579147194563404
0.7097498015354378	16.70336405872337
0.7098680931690269	16.791633809546706
0.7099864045178884	16.8533982834035
0.7101047355853081	16.924745518208415
0.7102230863745722	16.99682518528191
0.7103414568889679	17.06676149399937
0.7104598471317828	17.135909708610267
0.7105782571063047	17.204286993289212
0.7106966868158224	17.2618839174767
0.710815136263625	17.31950400840363
0.7109336054530023	17.393796380650922
0.7110520943872445	17.466447612785693
0.7111706030696424	17.537003180261106
0.7112891315034873	17.605612893849127
0.7114076796920712	17.673644737285095
0.7115262476386865	17.742503046409883
0.7116448353466263	17.810160299510997
0.711763442819184	17.87583392882477
0.711882070059654	17.945322037869552
0.7120007170713306	18.016499349354348
0.7121193838575091	18.084908251661567
0.7122380704214853	18.15348959928781
0.7123567767665555	18.22242345286221
0.7124755028960166	18.284725470063908
0.7125942488131658	18.34323412465253
0.7127130145213015	18.406899865202888
0.7128318000237216	18.47371278792722
0.7129506053237256	18.548401269527805
0.7130694304246129	18.620920985207366
0.7131882753296837	18.69190075441969
0.7133071400422386	18.758856064727553
0.7134260245655789	18.813022148750594
0.7135449289030065	18.82309235127276
0.7136638530578235	18.899088345908147
0.7137827970333332	19.031963795254914
0.7139017608328388	19.115168362392808
0.7140207444596443	19.190394080843074
0.7141397479170543	19.26757161823605
0.7142587712083737	19.33781352706328
0.7143778143369084	19.4009423810413
0.7144968773059646	19.487019848726916
0.7146159601188489	19.576106940316624
0.7147350627788687	19.650613009113293
0.7148541852893318	19.725454727356475
0.7149733276535467	19.800696354100314
0.7150924898748222	19.865534863169295
0.715211671956468	19.929964258965835
0.7153308739017941	20.018211933742105
0.715450095714111	20.104373077901688
0.71556933739673	20.187648640925595
0.7156885989529628	20.264873007965235
0.7158078803861218	20.339938831545552
0.7159271816995193	20.413998545155422
0.7160465028964692	20.47225721640528
0.7161658439802853	20.505759488818523
0.7162852049542819	20.518158839876737
0.7164045858217744	20.525529115853896
0.716523986586078	20.61882714281087
0.7166434072505089	20.594581966718
0.716762847818384	20.364433242967685
0.7168823082930204	20.538948597362598
0.7170017886777359	20.89339582502439
0.7171212889758488	21.063532800871354
0.7172408091906781	21.167139849292518
0.7173603493255433	21.142367994863417
0.7174799093837642	21.169806530864015
0.7175994893686615	21.223162566032496
0.7177190892835562	21.356279376589644
0.7178387091317702	21.505163427593594
0.7179583489166254	21.68627344031893
0.7180780086414448	21.78149882611237
0.7181976883095517	21.830860019566902
0.7183173879242699	21.960420559380086
0.718437107488924	22.074476852295167
0.7185568470068389	22.150464458416778
0.7186766064813399	22.17873058013195
0.7187963859157535	22.180107934906605
0.7189161853134061	22.34275613349138
0.719036004677625	22.49121916077837
0.7191558440117378	22.59493513190633
0.7192757033190732	22.68775397554015
0.7193955826029597	22.774221103993543
0.7195154818667269	22.84968209828979
0.7196354011137046	22.9285485987838
0.7197553403472235	23.01653679585998
0.7198752995706147	23.109552855094375
0.7199952787872098	23.20555820517692
0.720115278000341	23.28378105603463
0.7202352972133411	23.362276502315797
0.7203553364295432	23.443158352457257
0.7204753956522815	23.51733714993207
0.7205954748848902	23.587548845781914
0.7207155741307044	23.69013578264547
0.7208356933930594	23.79492505011863
0.7209558326752915	23.901903214251938
0.7210759919807375	23.985976188034883
0.7211961713127342	24.056737857266477
0.7213163706746197	24.089603624155906
0.7214365900697322	24.15020782728766
0.7215568295014103	24.277069937718625
0.721677088972994	24.395540791564144
0.7217973684878227	24.509319587711023
0.7219176680492374	24.552757656082484
0.7220379876605789	24.62523391594326
0.722158327325189	24.764063981042792
0.7222786870464099	24.890063754673385
0.7223990668275843	25.009276214851994
0.7225194666720555	25.106820214306396
0.7226398865831676	25.200401536760737
0.7227603265642646	25.286305582021942
0.722880786618692	25.346012210831734
0.7230012667497951	25.393557159864105
0.7231217669609201	25.507262619318524
0.7232422872554135	25.61366905257054
0.7233628276366229	25.706552426394836
0.7234833881078956	25.810993580580327
0.7236039686725803	25.916655528601417
0.7237245693340255	25.906465767416837
0.7238451900955812	25.959682650173292
0.7239658309605971	26.118766347102216
0.7240864919324239	26.272487843005468
0.7242071730144127	26.421204070892873
0.724327874209915	26.52402005966402
0.7244485955222832	26.631975557499228
0.7245693369548704	26.747552974431464
0.7246900985110294	26.85052639318591
0.7248108801941148	26.950243699926382
0.7249316820074803	27.060317691064025
0.7250525039544815	27.165784903912577
0.7251733460384739	27.26525049378991
0.7252942082628137	27.355858217726322
0.7254150906308574	27.443348236129378
0.7255359931459625	27.526494583577662
0.7256569158114868	27.615569191904264
0.7257778586307888	27.71131102296086
0.7258988216072273	27.828816776851124
0.7260198047441617	27.950354630963787
0.7261408080449525	28.067513266901845
0.72626183151296	28.16913914029332
0.7263828751515454	28.25589110077773
0.7265039389640706	28.37820459235628
0.726625022953898	28.497578473200093
0.7267461271243904	28.58311633862858
0.7268672514789111	28.668849032867247
0.7269883960208241	28.754740690492834
0.7271095607534942	28.89586263037605
0.7272307456802866	29.033745606489465
0.7273519508045666	29.144845128405517
0.7274731761297006	29.24411955783534
0.7275944216590555	29.335632440129352
0.7277156873959987	29.416733910637582
0.7278369733438982	29.46124065306746
0.727958279506122	29.42340772019032
0.7280796058860397	29.58872830313709
0.7282009524870207	29.8596576898133
0.7283223193124353	30.01557277844649
0.7284437063656539	30.15662685602285
0.7285651136500483	30.27124090860043
0.7286865411689898	30.37712548304785
0.7288079889258514	30.476560950415823
0.7289294569240056	30.534259900463063
0.7290509451668262	30.619902945562828
0.7291724536576875	30.74424720180172
0.7292939823999636	30.887929523137682
0.7294155313970303	31.035065505580167
0.7295371006522632	31.166979858613157
0.7296586901690385	31.286862834471005
0.7297802999507332	31.393845824244124
0.7299019300007252	31.460303712154264
0.7300235803223919	31.52108929615765
0.7301452509191123	31.590843580317326
0.7302669417942654	31.663443826346164
0.7303886529512311	31.7383746516861
0.7305103843933897	31.60581323668524
0.7306321361241218	31.607835822988093
0.7307539081468093	32.04479016241166
0.7308757004648336	32.309146393366206
0.7309975130815778	32.46839475602052
0.7311193460004248	32.6232746777199
0.7312411992247582	32.77468932212627
0.7313630727579622	32.91947304743262
0.7314849666034219	33.03904510328849
0.7316068807645224	33.14427677776747
0.7317288152446498	33.192829120984406
0.7318507700471907	33.28026919913875
0.7319727451755319	33.42224613873398
0.732094740633061	33.605918059823665
0.7322167564231665	33.78878907315265
0.7323387925492371	33.891136210934555
0.7324608490146619	34.019615391409275
0.732582925822831	34.17438918050913
0.7327050229771347	34.31508446702956
0.7328271404809642	34.45016745216949
0.7329492783377112	34.57357457100736
0.7330714365507675	34.703625894159075
0.7331936151235259	34.83840261690938
0.7333158140593796	34.94715298988444
0.7334380333617229	35.06242177550908
0.7335602730339499	35.195280194744655
0.7336825330794556	35.33492795349498
0.7338048135016354	35.4764567848942
0.7339271143038857	35.58383579784198
0.734049435489603	35.647484636306565
0.7341717770621846	35.64663293782461
0.7342941390250283	35.83263123076968
0.7344165213815324	36.06319452439789
0.734538924135096	36.2201416459085
0.7346613472891185	36.37269148060735
0.734783790847	36.520862132670466
0.7349062548121412	36.581685287790876
0.7350287391879431	36.55983537668595
0.7351512439778078	36.3117216218889
0.7352737691851374	36.52591404157618
0.735396314813335	37.0457709028379
0.7355188808658037	37.25274306195747
0.7356414673459482	37.441801430907304
0.7357640742571725	37.61475985883311
0.7358867016028818	37.75380217247562
0.7360093493864824	37.8773224652329
0.7361320176113801	37.98295684397869
0.736254706280982	38.07284854641577
0.7363774153986956	38.143166982994615
0.7365001449679286	38.13159075755081
0.7366228949920899	38.126387078864504
0.7367456654745885	38.22957793699214
0.7368684564188344	38.514034097416946
0.7369912678282374	38.94242002635524
0.7371140997062088	39.159236519482405
0.7372369520561599	39.340017701036665
0.7373598248815024	39.47462684518569
0.7374827181856494	39.61200306075927
0.7376056319720137	39.75054411012818
0.7377285662440091	39.88512352943177
0.7378515210050496	39.99022057048206
0.7379744962585505	40.054419960434295
0.738097492007927	40.24438547358764
0.7382205082565949	40.45109857450384
0.738343545007971	40.57692412744601
0.7384666022654723	40.73843591976403
0.7385896800325165	40.930211110091705
0.7387127783125219	41.09341773914541
0.7388358971089073	41.24967650470008
0.7389590364250921	41.395371854499956
0.7390821962644963	41.55060536525859
0.7392053766305403	41.71042902080414
0.7393285775266454	41.86638120164778
0.7394517989562333	42.02239751428025
0.7395750409227259	42.17849242702107
0.7396983034295463	42.336789820334175
0.739821586480118	42.494140463249465
0.7399448900778645	42.64432777788219
0.7400682142262109	42.797029373233784
0.740191558928582	42.95176780588031
0.7403149241884034	43.073766842108476
0.7404383100091014	43.19372190972595
0.7405617163941028	43.31445807268048
0.7406851433468352	43.474519945579424
0.7408085908707264	43.63925431640611
0.7409320589692048	43.62977599397821
0.7410555476456997	43.77115495270334
0.7411790569036406	44.09710561581508
0.7413025867464579	44.28554596208693
0.7414261371775823	44.456429722476784
0.7415497082004452	44.66648394306148
0.7416732998184786	44.84645826641604
0.741796912035115	45.005796978356244
0.7419205448537874	45.093302366778545
0.7420441982779297	45.22127550019317
0.742167872310976	45.425314972648735
0.7422915669563612	45.64458897749907
0.7424152822175206	45.861466911155915
0.7425390180978901	46.02326312931342
0.7426627746009065	46.15294236138219
0.7427865517300065	46.251412007835256
0.7429103494886282	46.4760651026411
0.7430341678802096	46.70238936049139
0.7431580069081896	46.892681407211775
0.7432818665760077	47.069385288716326
0.7434057468871037	47.238476749093444
0.7435296478449182	47.39414120854074
0.7436535694528923	47.55724502813812
0.7437775117144678	47.730113609636376
0.7439014746330868	47.852455886536504
0.7440254582121922	47.98584782658399
0.7441494624552276	48.20532724245943
0.7442734873656368	48.35829213136694
0.7443975329468645	48.46550743364666
0.7445215992023557	48.63684931452798
0.7446456861355559	48.83910599634886
0.7447697937499119	49.092175528868765
0.7448939220488703	49.298643780577606
0.7450180710358784	49.49103283670014
0.7451422407143843	49.68867850758155
0.7452664310878367	49.88096159602658
0.7453906421596846	50.068584748931144
0.7455148739333779	50.24973527555552
0.7456391264123667	50.43039235330976
0.7457633996001021	50.61109317772623
0.7458876935000356	50.7933246840236
0.7460120081156189	50.97660328620613
0.7461363434503048	51.163563650065484
0.7462606995075466	51.34440938225197
0.7463850762907978	51.51883899057126
0.7465094738035127	51.68543080035682
0.7466338920491467	51.86395188452187
0.746758331031155	52.07716256802834
0.7468827907529935	52.267625869380645
0.7470072712181189	52.44852852204303
0.7471317724299886	52.65971105691321
0.7472562943920602	52.858128932465576
0.7473808371077922	53.04106414656399
0.7475054005806435	53.18972858679362
0.7476299848140736	53.35467175110634
0.7477545898115426	53.59061229064794
0.7478792155765113	53.80467456655092
0.7480038621124406	54.004486068895815
0.7481285294227926	54.1505259681228
0.7482532175110298	54.34027623374301
0.7483779263806148	54.58873779282017
0.7485026560350116	54.78667624779659
0.7486274064776842	54.97438166927226
0.748752177712097	55.164279779871244
0.7488769697417158	55.383024945039935
0.749001782570006	55.61929196578525
0.7491266162004343	55.82653905395047
0.7492514706364677	56.029637961732014
0.7493763458815739	56.22680624755952
0.7495012419392209	56.4302703469637
0.7496261588128773	56.63340147934649
0.7497510965060128	56.8296549773008
0.7498760550220971	57.03623303826719
0.7500010343646007	57.24939034850682
0.7501260345369949	57.45371916305378
0.750251055542751	57.66092807978786
0.7503760973853414	57.872295359746495
0.7505011600682389	58.07495412473163
0.750626243594917	58.27464296094605
0.7507513479688495	58.470834215182535
0.7508764731935109	58.68867720146513
0.7510016192723765	58.92011832248287
0.7511267862089218	59.13676313344796
0.7512519740066232	59.350418994988964
0.7513771826689577	59.55984847392598
0.7515024121994025	59.778144323226954
0.7516276626014359	59.99684033778703
0.751752933878536	60.20991262782375
0.7518782260341824	60.41373350560208
0.7520035390718548	60.613113189857906
0.7521288729950334	60.85084337506701
0.7522542278071992	61.081356923579854
0.7523796035118337	61.30238975364508
0.7525050001124189	61.522782269212136
0.7526304176124378	61.73811525409221
0.7527558560153731	61.93797585012317
0.752881315324709	62.17023315151042
0.7530067955439299	62.419163378837936
0.7531322966765205	62.65175080189979
0.7532578187259665	62.881998192679795
0.7533833616957542	63.109498021597325
0.75350892558937	63.33817296699518
0.7536345104103016	63.5670401470808
0.7537601161620366	63.79589370301737
0.7538857428480638	64.02218559358226
0.7540113904718717	64.24739355761228
0.7541370590369503	64.47352069188085
0.7542627485467898	64.69311467696762
0.7543884590048808	64.90615317627073
0.7545141904147151	65.15920093305422
0.7546399427797842	65.41175721676991
0.7547657161035808	65.65452674006688
0.754891510389598	65.89325188869208
0.7550173256413296	66.12974509634485
0.7551431618622698	66.3616362638582
0.7552690190559135	66.59503359050606
0.7553948972257561	66.82967853320916
0.7555207963752938	67.07753826344579
0.755646716508023	67.32446353660451
0.755772657627441	67.56883142210923
0.7558986197370455	67.8089667077233
0.756024602840335	68.04928868411824
0.7561506069408084	68.29513891499725
0.7562766320419653	68.54189041175171
0.7564026781473054	68.7891481836435
0.75652874526033	69.03232638110777
0.7566548333845401	69.27798289296793
0.7567809425234375	69.52684872148166
0.7569070726805247	69.77339428905539
0.7570332238593047	70.02141644468672
0.7571593960632813	70.27467183350859
0.7572855892959586	70.52790190099597
0.7574118035608413	70.78034264972018
0.7575380388614347	71.02507488686605
0.7576642952012449	71.27868906120854
0.7577905725837782	71.54086711921578
0.7579168710125422	71.79643194189072
0.7580431904910444	72.05292916887969
0.7581695310227928	72.31221593110922
0.7582958926112967	72.56945329552448
0.7584222752600652	72.82735613958222
0.7585486789726085	73.09132091705467
0.7586751037524372	73.35624731950662
0.7588015496030628	73.62177015923153
0.7589280165279966	73.88130173178159
0.7590545045307512	74.1415310767326
0.7591810136148396	74.4026683501485
0.7593075437837755	74.67016163540475
0.7594340950410726	74.9375981631599
0.7595606673902461	75.20178134949441
0.7596872608348112	75.46701707730438
0.7598138753782836	75.73377465209077
0.75994051102418	76.0088899221764
0.7600671677760173	76.28574824019438
0.7601938456373134	76.56415611925502
0.7603205446115863	76.84253279581365
0.7604472647023548	77.11858839083492
0.7605740059131385	77.39071609306941
0.7607007682474575	77.66276638890048
0.7608275517088319	77.93553467894293
0.7609543563007835	78.210885589232
0.7610811820268336	78.49128521578014
0.7612080288905045	78.77413669946213
0.7613348968953197	79.05099451531594
0.7614617860448022	79.32545948803461
0.7615886963424764	79.5973998505193
0.7617156277918667	79.88429700960502
0.7618425803964988	80.17378922077607
0.7619695541598982	80.46548839174113
0.7620965490855914	80.75358393447654
0.7622235651771058	81.04176703139265
0.7623506024379685	81.33522940193541
0.7624776608717082	81.62565939023716
0.7626047404818536	81.91424125810656
0.7627318412719337	82.20451572114966
0.762858963245479	82.49865400701147
0.7629861064060198	82.79725252383426
0.7631132707570876	83.09146292018252
0.7632404563022137	83.38511599091893
0.7633676630449308	83.67868522524046
0.7634948909887717	83.97352115971033
0.7636221401372697	84.26910500980256
0.7637494104939593	84.5660852676532
0.7638767020623748	84.86522312202234
0.7640040148460518	85.16601653500695
0.7641313488485262	85.47346563347789
0.7642587040733344	85.7761636038141
0.7643860805240132	86.07329498336307
0.7645134782041005	86.38269020589195
0.7646408971171346	86.69134774214571
0.764768337266654	86.99521598797187
0.7648957986561985	87.28962223227599
0.7650232812893079	87.58552786033451
0.7651507851695227	87.90205186388923
0.7652783103003843	88.22198174361372
