#wavelength	surface flux
0.8	8535.670535864992
0.8002000000000001	8567.822829211556
0.8004000500000003	8597.673878173833
0.8006001500125003	8632.294202909847
0.8008003000500035	8662.657055873737
0.8010005001250161	8695.714643663367
0.8012007502500472	8729.536573104255
0.8014010504376099	8762.11784444806
0.8016014007002193	8793.529475473853
0.8018018010503944	8822.853495513253
0.8020022515006572	8859.08267160645
0.8022027520635323	8894.205350200742
0.8024033027515483	8926.40315163737
0.8026039035772362	8955.572691657257
0.8028045545531306	8987.828120597276
0.8030052556917691	9018.328296435602
0.803206007005692	9060.280468457639
0.8034068085074435	9095.735727051764
0.8036076602095705	9128.425839390553
0.8038085621246229	9163.341569217826
0.8040095142651542	9197.254753095522
0.8042105166437206	9229.881071534355
0.8044115692728815	9261.888972875255
0.8046126721651998	9290.912348749389
0.8048138253332411	9329.443499964078
0.8050150287895745	9365.726148166834
0.805216282546772	9401.488440151754
0.8054175866174087	9435.315651789699
0.8056189410140631	9470.092990418085
0.8058203457493168	9505.622906893952
0.8060218008357541	9540.575371684668
0.8062233062859632	9572.32532260681
0.8064248621125346	9611.241214957709
0.806626468328063	9648.3211369617
0.8068281249451449	9682.313431368424
0.8070298319763813	9718.737515218834
0.8072315894343755	9751.75096355656
0.8074333973317341	9782.411782061161
0.8076352556810671	9826.270052631568
0.8078371644949874	9864.461911284461
0.8080391237861113	9900.34895064574
0.8082411335670578	9937.146276368456
0.8084431938504498	9972.385820735193
0.8086453046489125	10009.433879698927
0.8088474659750746	10044.136474205114
0.8090496778415686	10079.187898365395
0.809251940261029	10112.82926359571
0.8094542532460944	10133.480060662894
0.8096566168094059	10170.427324190132
0.8098590309636085	10227.04463430813
0.8100614957213493	10265.002645956736
0.8102640110952797	10298.702718234426
0.8104665770980536	10342.242241342534
0.8106691937423283	10370.91802655509
0.8108718610407639	10346.544450359837
0.8110745790060241	10353.087659093835
0.8112773476507757	10466.256693206227
0.8114801669876885	10500.971404696453
0.8116830370294355	10533.405376445471
0.8118859577886929	10602.995164110616
0.8120889292781401	10648.540447101706
0.8122919515104597	10689.101150758926
0.8124950244983374	10730.754912836468
0.8126981482544621	10769.115777982148
0.8129013227915257	10806.502845866446
0.8131045481222237	10846.466595578157
0.8133078242592543	10880.781489237792
0.8135111512153191	10894.416077384298
0.813714529003123	10939.528284384924
0.8139179576353739	11000.13951517656
0.8141214371247829	11037.473243469258
0.8143249674840641	11053.713898521699
0.814528548725935	11025.749336659172
0.8147321808631167	11099.654531121483
0.8149358639083326	11185.823615552596
0.8151395978743097	11194.686647151539
0.8153433827737784	11259.239192898702
0.8155472186194719	11327.232061045379
0.8157511054241268	11370.174070092547
0.815955043200483	11410.49496638216
0.8161590319612831	11454.55041145868
0.8163630717192736	11494.348053999965
0.8165671624872033	11536.12130031011
0.8167713042778252	11581.000027163043
0.8169754971038948	11624.907453283666
0.8171797409781707	11666.687294332616
0.8173840359134155	11707.568224664772
0.8175883819223938	11747.999119748349
0.8177927790178745	11790.917314736915
0.8179972272126291	11827.437185088645
0.8182017265194322	11823.65493333264
0.8184062769510622	11717.492608625436
0.8186108785203001	11910.195691427809
0.8188155312399301	12003.432832621418
0.8190202351227402	12041.954041231145
0.819224990181521	12094.00087269047
0.8194297964290664	12133.21931291884
0.8196346538781738	12163.72078066614
0.8198395625416434	12212.035432736398
0.8200445224322789	12256.687101472187
0.820249533562887	12311.350419267194
0.8204545959462778	12355.878675644617
0.8206597095952644	12401.099481810126
0.8208648745226633	12444.550112592076
0.8210700907412941	12487.772107305938
0.8212753582639793	12535.872846264077
0.8214806771035456	12579.291291643904
0.8216860472728215	12624.248900614655
0.8218914687846397	12673.774850335818
0.822096941651836	12719.734697061493
0.822302465887249	12765.177691510016
0.8225080415037209	12811.637638621474
0.8227136685140968	12828.298525578832
0.8229193469312254	12749.949361053834
0.8231250767679583	12812.964333770036
0.8233308580371503	12947.548038353934
0.8235366907516598	12984.632328839529
0.8237425749243477	13007.485804352487
0.8239485105680789	13101.765190555885
0.824154497695721	13180.325968742123
0.824360536320145	13231.38560422477
0.8245666264542252	13278.969939342785
0.8247727681108388	13325.673970729877
0.8249789613028664	13364.141595826506
0.8251852060431922	13416.629642664264
0.825391502344703	13470.912841833051
0.8255978502202894	13520.24016607334
0.8258042496828445	13568.508468435302
0.8260107007452654	13615.67778691992
0.8262172034204517	13654.461188626363
0.8264237577213068	13641.457770387371
0.8266303636607373	13592.764369149392
0.8268370212516525	13775.365857179579
0.8270437305069654	13861.046630444174
0.8272504914395923	13908.998844896058
0.8274573040624523	13958.49538832078
0.8276641683884679	14004.654200611865
0.8278710844305652	14051.684552827704
0.8280780522016729	14108.833274549495
0.8282850717147234	14160.787170193384
0.8284921429826521	14210.907192892648
0.8286992660183978	14256.253958761228
0.8289064408349024	14296.088318837772
0.8291136674451112	14343.652733232051
0.8293209458619727	14405.485535243914
0.8295282760984382	14461.597224790637
0.829735658167463	14506.268941262972
0.8299430920820048	14560.178995893852
0.8301505778550254	14618.20378924121
0.8303581154994891	14673.34363885148
0.8305657050283641	14723.482281219824
0.8307733464546212	14771.932567969438
0.8309810397912352	14807.51873493242
0.8311887850511829	14853.503907425173
0.8313965822474458	14843.472546898234
0.8316044313930077	14901.248625753422
0.8318123325008561	15023.977869709617
0.8320202855839813	15095.178946377431
0.8322282906553774	15149.786407415664
0.8324363477280413	15201.68801540544
0.8326444568149735	15251.32248359308
0.8328526179291771	15307.687908072781
0.8330608310836596	15362.52561268681
0.8332690962914304	15412.702916529002
0.8334774135655034	15467.613475127151
0.833685782918895	15525.674730838791
0.8338942043646247	15577.408464644957
0.834102677915716	15632.577837933992
0.834311203585195	15689.378203276963
0.8345197813860912	15744.263460676417
0.8347284113314379	15802.049659311839
0.8349370934342709	15858.497784499847
0.8351458277076294	15914.740676053456
0.8353546141645565	15971.149227747072
0.8355634528180977	16024.50352629062
0.8357723436813022	16078.864586718835
0.8359812867672226	16128.665241018489
0.8361902820889144	16182.514200628038
0.8363993296594368	16247.889826372659
0.8366084294918518	16297.08104863617
0.8368175815992247	16368.075065176256
0.8370267859946247	16422.13390849139
0.8372360426911234	16469.07392528616
0.8374453517017962	16535.938541166845
0.8376547130397217	16592.10493140157
0.8378641267179816	16654.888554433484
0.8380735927496613	16716.8438610881
0.8382831111478488	16762.787733510766
0.8384926819256358	16790.69439398845
0.8387023050961173	16854.98718381819
0.8389119806723914	16939.315677717485
0.8391217086675596	17007.13793554628
0.8393314890947265	17072.598180214805
0.8395413219670003	17132.894968207685
0.8397512072974922	17188.81832366842
0.8399611450993165	17238.11341836298
0.8401711353855914	17253.33121982464
0.8403811781694378	17333.90527634376
0.8405912734639802	17427.588506138476
0.8408014212823464	17492.157698894734
0.8410116216376671	17552.950263582185
0.8412218745430766	17613.291232703243
0.8414321800117124	17680.093050400053
0.8416425380567154	17741.846860315418
0.8418529486912297	17802.303288663767
0.8420634119284025	17864.171098645147
0.8422739277813847	17927.28420981443
0.8424844962633302	17989.418698308527
0.842695117387396	18047.020160686247
0.8429057911667428	18102.900120810922
0.8431165176145345	18170.043491989865
0.8433272967439382	18240.110956857185
0.8435381285681244	18305.184622925703
0.8437490131002665	18370.055102842773
0.8439599503535415	18427.11175543612
0.84417094034113	18467.131881374422
0.8443819830762154	18541.644855460265
0.8445930785719846	18578.248330060764
0.8448042268416277	18677.032789587214
0.8450154278983382	18755.776571505274
0.8452266817553128	18816.550991467346
0.8454379884257517	18881.386890141493
0.8456493479228583	18947.729750240003
0.845860760259839	19018.956010635604
0.846072225449904	19079.562011956183
0.8462837435062666	19105.613993473846
0.8464953144421433	19095.53491528572
0.8467069382707537	19189.071564781778
0.8469186150053215	19332.714584016612
0.847130344659073	19412.193447541507
0.8473421272452377	19478.14715543396
0.8475539627770492	19534.02416766164
0.8477658512677435	19612.354465194734
0.8479777927305605	19679.7330462729
0.8481897871787432	19736.74840944101
0.848401834625538	19814.494810518874
0.8486139350841944	19890.972779018943
0.8488260885679657	19949.037380002177
0.8490382950901076	19995.459362759975
0.8492505546638802	20078.884961206546
0.8494628673025462	20158.888061906324
0.8496752330193721	20234.6299865158
0.8498876518276269	20306.90233316366
0.8501001237405839	20373.654591687027
0.8503126487715191	20443.327164135007
0.850525226933712	20515.49986705444
0.8507378582404455	20587.651682004394
0.8509505427050057	20655.781084728605
0.8511632803406821	20729.01030019754
0.8513760711607672	20799.563386065558
0.8515889151785576	20870.08828936876
0.8518018124073523	20941.736559479035
0.8520147628604541	21008.99662057548
0.8522277665511693	21072.594828952075
0.8524408234928071	21158.117798363986
0.8526539336986805	21231.99760368365
0.8528670971821053	21303.927563754256
0.8530803139564007	21372.87354228478
0.8532935840348901	21438.437021305996
0.8535069074308987	21511.87326780195
0.8537202841577566	21591.678568149153
0.8539337142287962	21661.293196712006
0.8541471976573534	21708.935545255674
0.8543607344567677	21801.461117258892
0.8545743246403821	21892.42593741699
0.8547879682215422	21968.535504494557
0.8550016652135977	22040.023691924318
0.8552154156299011	22113.931340145795
0.8554292194838088	22193.6370322687
0.8556430767886797	22268.523665995028
0.855856987557877	22349.71697688188
0.8560709518047664	22426.00648796962
0.8562849695427177	22499.239780263335
0.8564990407851035	22576.303764687804
0.8567131655452999	22656.153685432408
0.8569273438366862	22734.876084683212
0.8571415756726455	22810.408321296098
0.8573558610665638	22876.963571396776
0.8575702000318304	22960.70104859201
0.8577845925818384	23042.27160190107
0.857999038729984	23124.740249663042
0.8582135384896665	23202.237890446653
0.858428091874289	23271.127213664036
0.8586426988972576	23347.722862111434
0.8588573595719821	23431.00823449839
0.8590720739118751	23512.23407211912
0.8592868419303532	23590.26010020043
0.8595016636408359	23671.28729221703
0.8597165390567462	23754.042776553706
0.8599314681915105	23832.35243059013
0.8601464510585584	23912.830326253075
0.860361487671323	23995.59628079984
0.8605765780432408	24078.111620453765
0.8607917221877518	24158.051822126614
0.8610069201182988	24240.897107300683
0.8612221718483286	24323.939124698903
0.8614374773912907	24406.379981367674
0.8616528367606385	24490.704705897115
0.8618682499698288	24565.249028792
0.8620837170323213	24644.790095073102
0.8622992379615795	24729.332090309857
0.8625148127710699	24807.132260821563
0.8627304414742627	24890.374694990936
0.8629461240846313	24983.747829986016
0.8631618606156526	25067.432447045045
0.8633776510808066	25150.715355012493
0.8635934954935769	25238.024097144244
0.8638093938674504	25325.205783500616
0.8640253462159173	25392.297688609928
0.8642413525524714	25447.12794176189
0.8644574128906095	25568.29195539208
0.8646735272438323	25639.91223975835
0.8648896956256433	25701.383093826735
0.8651059180495498	25817.830165905827
0.8653221945290621	25927.630291807072
0.8655385250776946	26010.90934263435
0.8657549097089641	26103.101977925613
0.8659713484363913	26195.0701703048
0.8661878412735006	26285.53384129047
0.866404388233819	26375.14623731531
0.8666209893308775	26460.638133586057
0.8668376445782103	26553.495887847494
0.8670543539893549	26642.276939067855
0.8672711175778525	26724.119262444652
0.8674879353572469	26804.580781956553
0.8677048073410862	26897.88875242747
0.8679217335429217	26989.581199692908
0.8681387139763074	27079.572885675145
0.8683557486548015	27165.21481896655
0.8685728375919655	27261.583470640682
0.8687899808013633	27355.793792028766
0.8690071782965637	27449.320761481064
0.869224430091138	27541.32872363987
0.8694417361986609	27634.958598980236
0.8696590966327107	27723.951634390054
0.869876511406869	27802.852812031735
0.8700939805347206	27892.946917679878
0.8703115040298544	27999.403411917046
0.870529081905862	28101.220560583835
0.8707467141763385	28199.501757821086
0.8709644008548827	28292.385459550722
0.8711821419550964	28384.73322328606
0.8713999374905854	28478.51723010333
0.871617787474958	28574.44737614441
0.8718356919218269	28665.09142016487
0.8720536508448075	28762.039482711778
0.8722716642575187	28863.225614411906
0.8724897321735832	28959.056111427657
0.8727078546066265	29054.380160208846
0.8729260315702784	29152.717681776503
0.873144263078171	29251.385766324096
0.8733625491439405	29351.35583483403
0.8735808897812266	29448.223567988658
0.8737992850036719	29529.817669511787
0.874017734824923	29600.70571332328
0.8742362392586293	29730.884820142437
0.874454798318444	29832.81318514089
0.8746734120180236	29936.806680286332
0.8748920803710283	30034.21183463244
0.875110803391121	30135.270661217404
0.8753295810919689	30237.676178977636
0.875548413487242	30341.142086622815
0.8757673005906139	30442.872638979698
0.8759862424157616	30540.771702877017
0.8762052389763657	30635.30771596935
0.8764242902861098	30742.94775032106
0.8766433963586814	30839.923581209754
0.8768625572077712	30948.176039652262
0.8770817728470732	31049.15243507866
0.8773010432902849	31153.612967352572
0.8775203685511077	31259.119099645628
0.8777397486432454	31362.412372202067
0.8779591835804065	31465.577828082867
0.8781786733763015	31569.100783301452
0.8783982180446457	31671.74880840326
0.878617817599157	31772.803657281736
0.8788374720535569	31880.902990236755
0.8790571814215703	31986.944496764463
0.8792769457169257	32092.832492691457
0.879496764953355	32201.727989205647
0.8797166391445934	32310.370426613088
0.8799365683043796	32413.562432633615
0.8801565524464557	32517.89512931599
0.8803765915845676	32624.867903673894
0.8805966857324639	32732.48680766256
0.880816834903897	32835.69068207767
0.881037039112623	32935.388136385394
0.8812572983724012	33047.86233875578
0.8814776126969944	33156.27045497023
0.8816979821001687	33274.51042064173
0.8819184065956938	33385.69852056651
0.8821388861973429	33492.92614999435
0.8823594209188923	33604.43100751195
0.882580010774122	33713.85773444757
0.8828006557768155	33827.53964231999
0.8830213559407598	33935.55183517124
0.8832421112797452	34043.52126463529
0.8834629218075651	34125.354122099656
0.8836837875380171	34191.76584096155
0.8839047084849018	34334.471619434655
0.884125684662023	34492.07224017594
0.8843467160831886	34608.99783147414
0.8845678027622095	34721.172473998966
0.8847889447129001	34836.05130615582
0.8850101419490785	34951.57025100109
0.8852313944845657	35067.29963349332
0.885452702333187	35181.078943961824
0.8856740655087704	35288.7366386002
0.8858954840251476	35380.10211432407
0.8861169578961539	35498.99846602897
0.886338487135628	35636.171171666916
0.886560071757412	35755.66585867731
0.8867817117753515	35874.17649300895
0.8870034072032955	35991.85789794924
0.8872251580550963	36105.65013828929
0.8874469643446101	36220.05154346473
0.8876688260856963	36336.68965641892
0.8878907432922178	36460.674917002034
0.8881127159780409	36576.45978841292
0.8883347441570356	36681.188778014766
0.8885568278430749	36798.637179268946
0.8887789670500358	36931.62849080968
0.8890011617917983	37054.66280476218
0.8892234120822464	37180.312962926684
0.8894457179352669	37299.87253402392
0.8896680793647509	37416.567475996875
0.8898904963845921	37516.70273244782
0.8901129690086883	37640.677896379
0.8903354972509405	37781.70181490983
0.8905580811252535	37904.19819459594
0.8907807206455347	37923.72772333322
0.8910034158256963	37739.10082600794
0.8912261666796527	38091.42025867224
0.8914489732213227	38368.7802548128
0.8916718354646282	38419.45669921672
0.8918947534234944	38497.438477368676
0.8921177271118502	38576.25284183232
0.8923407565436284	38407.423984626155
0.8925638417327644	38771.68004597169
0.8927869826931977	39117.358012803816
0.8930101794388711	39258.014431233
0.8932334319837308	39178.90956730545
0.8934567403417267	39092.385318995504
0.8936801045268123	39562.676990627064
0.8939035245529441	39754.35381920679
0.8941270004340824	39847.795247035996
0.894350532184191	39829.633496788905
0.8945741198172371	40031.82502211563
0.8947977633471915	40288.30431613631
0.8950214627880284	40431.636578831916
0.8952452181537254	40547.75231192678
0.8954690294582639	40672.238903978556
0.8956928967156286	40817.57136754383
0.8959168199398075	40916.95253120064
0.8961407991447926	41010.21964367486
0.8963648343445789	41074.41366683912
0.896588925553165	41042.02279052469
0.8968130727845534	41314.682526087185
0.8970372760527496	41330.79591158845
0.8972615353717629	40322.61003513136
0.8974858507556059	40245.11644851377
0.8977102222182949	41752.305165171274
0.8979346497738496	42159.36501039208
0.8981591334362931	42291.75068381731
0.8983836732196523	42423.12930200689
0.8986082691379572	42528.779014348824
0.8988329212052417	41890.3680071457
0.8990576294355432	40897.11086066239
0.8992823938429022	42011.28464837346
0.8995072144413631	42916.12724850962
0.8997320912449734	43222.89034622675
0.8999570242677847	43376.58407253422
0.9001820135238516	43490.87985491331
0.9004070590272328	43437.9577698166
0.9006321607919896	43130.707165086766
0.9008573188321878	43481.364412724455
0.9010825331618959	43616.431695488805
0.9013078037951865	44119.014666400406
0.9015331307461353	44330.886740958726
0.9017585140288219	44483.025826623074
0.9019839536573292	44644.76342131837
0.9022094496457435	44793.85266631124
0.9024350020081551	44926.17317196284
0.9026606107586572	45062.93336008559
0.902886275911347	45201.32799620595
0.9031119974803249	45295.99361059549
0.9033377754796951	45459.57630276541
0.903563609923565	45643.21996020526
0.903789500826046	45761.18464603722
0.9040154482012526	45820.50144102239
0.904241452063303	46057.039591079076
0.9044675124263188	46177.93496995658
0.9046936293044254	46277.657575060155
0.9049198027117517	46464.723753513776
0.9051460326624297	46644.50565991961
0.9053723191705955	46819.64128715972
0.9055986622503881	46977.70434271019
0.9058250619159507	47124.95873795623
0.9060515181814298	47260.741135566175
0.9062780310609752	47327.153995724606
0.9065046005687405	47458.60265420614
0.906731226718883	47670.56857230366
0.9069579095255627	47841.00966820065
0.907184649002944	47976.57591442402
0.907411445165195	48152.1523359692
0.9076382980264862	48264.09384239374
0.907865207600993	48386.578985773725
0.9080921739028933	48583.08039370286
0.9083191969463691	48740.28502735137
0.9085462767456058	48822.09532704439
0.9087734133147922	48878.92166717693
0.9090006066681211	49180.995374488986
0.909227856819788	49378.74921141541
0.9094551637839932	49513.22406624849
0.9096825275749393	49687.06103823697
0.9099099482068329	49752.8383017849
0.9101374256938848	49904.66847355836
0.9103649600503083	50016.93263703992
0.9105925512903209	50280.59281211262
0.9108201994281437	50459.374777508834
0.9110479044780008	50610.16340833555
0.9112756664541204	50787.23560467618
0.911503485370734	50958.387689006486
0.9117313612420768	51123.360358792685
0.9119592940823873	51295.084162796324
0.912187283905908	51466.06074218397
0.9124153307268845	51628.53391830225
0.9126434345595664	51784.71941960131
0.9128715954182063	51938.339568807416
0.9130998133170609	52090.93158234272
0.9133280882703902	52207.4894431142
0.913556420292458	52383.1066082174
0.9137848093975312	52566.7086951703
0.9140132555998806	52761.015850463635
