#wavelength	surface flux
0.8	11205.662059067334
0.8002000000000001	11246.07042018275
0.8004000500000003	11286.236456087427
0.8006001500125003	11330.29810261344
0.8008003000500035	11369.756140915675
0.8010005001250161	11413.549871565474
0.8012007502500472	11459.755074926137
0.8014010504376099	11502.534651289163
0.8016014007002193	11542.811680586161
0.8018018010503944	11583.687877076527
0.8020022515006572	11628.85620150686
0.8022027520635323	11676.392633251537
0.8024033027515483	11721.359702496618
0.8026039035772362	11761.936153875517
0.8028045545531306	11805.603586264651
0.8030052556917691	11847.48586238797
0.803206007005692	11896.540436857395
0.8034068085074435	11943.257709801535
0.8036076602095705	11986.596653114566
0.8038085621246229	12032.444730061483
0.8040095142651542	12076.976357257348
0.8042105166437206	12119.84114658591
0.8044115692728815	12162.395918028717
0.8046126721651998	12202.350359338785
0.8048138253332411	12253.375398674398
0.8050150287895745	12301.02935669324
0.805216282546772	12347.99987415335
0.8054175866174087	12392.428839599332
0.8056189410140631	12438.105751368534
0.8058203457493168	12484.817273546474
0.8060218008357541	12531.29465646965
0.8062233062859632	12574.174738455262
0.8064248621125346	12623.8322182603
0.806626468328063	12671.465919596814
0.8068281249451449	12714.373340874063
0.8070298319763813	12762.712337173398
0.8072315894343755	12809.736836514901
0.8074333973317341	12852.950119976093
0.8076352556810671	12905.503990101435
0.8078371644949874	12957.030525503724
0.8080391237861113	13005.08639137389
0.8082411335670578	13048.910783366171
0.8084431938504498	13097.89472463012
0.8086453046489125	13148.398864885457
0.8088474659750746	13194.013015851893
0.8090496778415686	13241.127339186718
0.809251940261029	13286.35720565156
0.8094542532460944	13321.932214633773
0.8096566168094059	13367.916220390165
0.8098590309636085	13434.462912333049
0.8100614957213493	13485.135532971137
0.8102640110952797	13531.226491587826
0.8104665770980536	13584.431360710068
0.8106691937423283	13625.740900694322
0.8108718610407639	13621.700411422265
0.8110745790060241	13641.291462594381
0.8112773476507757	13747.106367052795
0.8114801669876885	13770.64225116526
0.8116830370294355	13808.369286920106
0.8118859577886929	13924.654479137482
0.8120889292781401	13989.151731044754
0.8122919515104597	14040.85606100004
0.8124950244983374	14094.384160440997
0.8126981482544621	14146.380873808426
0.8129013227915257	14197.08972080345
0.8131045481222237	14237.78775933731
0.8133078242592543	14263.553712755876
0.8135111512153191	14263.594171576773
0.813714529003123	14334.298910489257
0.8139179576353739	14434.866734774396
0.8141214371247829	14459.337588349601
0.8143249674840641	14466.53055922133
0.814528548725935	14468.800635240254
0.8147321808631167	14587.618923414935
0.8149358639083326	14698.27667465093
0.8151395978743097	14722.692607393423
0.8153433827737784	14800.483725629236
0.8155472186194719	14870.981264919488
0.8157511054241268	14928.781179049425
0.815955043200483	14966.14019848326
0.8161590319612831	15031.409148550396
0.8163630717192736	15068.576677104234
0.8165671624872033	15141.2023827009
0.8167713042778252	15216.293895991166
0.8169754971038948	15262.627122759237
0.8171797409781707	15279.542286916747
0.8173840359134155	15370.525951668978
0.8175883819223938	15439.80892558751
0.8177927790178745	15492.530966644636
0.8179972272126291	15525.423667115985
0.8182017265194322	15563.032933984508
0.8184062769510622	15512.551593584918
0.8186108785203001	15685.801114710644
0.8188155312399301	15780.089037199587
0.8190202351227402	15832.298904242956
0.819224990181521	15892.688519471121
0.8194297964290664	15949.602688398763
0.8196346538781738	15995.636543018756
0.8198395625416434	16038.119718086264
0.8200445224322789	16070.774477367246
0.820249533562887	16173.77208515754
0.8204545959462778	16241.524214466466
0.8206597095952644	16299.746920378104
0.8208648745226633	16358.541052632167
0.8210700907412941	16416.608699268676
0.8212753582639793	16477.539966048498
0.8214806771035456	16537.633467566004
0.8216860472728215	16598.656361288526
0.8218914687846397	16659.090975769355
0.822096941651836	16718.69329264327
0.822302465887249	16774.086860632786
0.8225080415037209	16826.600000461392
0.8227136685140968	16842.406843611447
0.8229193469312254	16714.136883339575
0.8231250767679583	16767.3234182588
0.8233308580371503	16926.603582869386
0.8235366907516598	17009.928394569703
0.8237425749243477	17094.663484896137
0.8239485105680789	17226.69046222153
0.824154497695721	17315.734470824216
0.824360536320145	17383.29677237642
0.8245666264542252	17450.04754883763
0.8247727681108388	17518.63077058949
0.8249789613028664	17570.691714893386
0.8251852060431922	17643.621442833137
0.825391502344703	17713.90940649715
0.8255978502202894	17778.069307125606
0.8258042496828445	17841.433122573653
0.8260107007452654	17898.209429860464
0.8262172034204517	17939.56578589504
0.8264237577213068	17972.65808962295
0.8266303636607373	17974.161168732742
0.8268370212516525	18139.17369424743
0.8270437305069654	18231.013893673793
0.8272504914395923	18290.761419635146
0.8274573040624523	18349.04935772888
0.8276641683884679	18416.661921006664
0.8278710844305652	18481.585203294402
0.8280780522016729	18546.495095340764
0.8282850717147234	18600.029946955015
0.8284921429826521	18671.22095183953
0.8286992660183978	18735.341944524065
0.8289064408349024	18747.385392478176
0.8291136674451112	18815.843443007012
0.8293209458619727	18933.323391900565
0.8295282760984382	19005.27555145413
0.829735658167463	19046.202130336693
0.8299430920820048	19114.056607980354
0.8301505778550254	19210.004012403842
0.8303581154994891	19293.09613278353
0.8305657050283641	19360.23729548018
0.8307733464546212	19427.1379193562
0.8309810397912352	19486.846490613392
0.8311887850511829	19543.56584755336
0.8313965822474458	19526.93919219837
0.8316044313930077	19629.745600848353
0.8318123325008561	19751.775969175887
0.8320202855839813	19835.620474799387
0.8322282906553774	19907.078629105647
0.8324363477280413	19958.333066009618
0.8326444568149735	20057.41004361465
0.8328526179291771	20134.024250775812
0.8330608310836596	20178.017887818816
0.8332690962914304	20221.633847344514
0.8334774135655034	20320.438424113603
0.833685782918895	20399.97488365168
0.8338942043646247	20480.654618088454
0.834102677915716	20559.96968250849
0.834311203585195	20629.659836850078
0.8345197813860912	20703.475086865732
0.8347284113314379	20782.710960243876
0.8349370934342709	20856.942996162834
0.8351458277076294	20928.87316406099
0.8353546141645565	20997.747006440848
0.8355634528180977	21044.912953348456
0.8357723436813022	21135.494312153893
0.8359812867672226	21217.214935948927
0.8361902820889144	21286.62215078065
0.8363993296594368	21341.70913068035
0.8366084294918518	21436.132551535404
0.8368175815992247	21529.114185409016
0.8370267859946247	21600.58064807925
0.8372360426911234	21672.131288918154
0.8374453517017962	21739.60961211672
0.8376547130397217	21791.111638961294
0.8378641267179816	21898.798954066675
0.8380735927496613	21990.58330661033
0.8382831111478488	22058.045871717375
0.8384926819256358	22102.77715691043
0.8387023050961173	22174.568531930425
0.8389119806723914	22280.281469227833
0.8391217086675596	22380.071718755247
0.8393314890947265	22463.916827287387
0.8395413219670003	22527.347834165066
0.8397512072974922	22607.542672134747
0.8399611450993165	22671.229364564722
0.8401711353855914	22704.41938701998
0.8403811781694378	22823.98566389072
0.8405912734639802	22920.66133848664
0.8408014212823464	22975.134756309504
0.8410116216376671	23084.468551202044
0.8412218745430766	23175.120092339002
0.8414321800117124	23261.203217678114
0.8416425380567154	23336.836467156572
0.8418529486912297	23412.416871932553
0.8420634119284025	23490.043243316482
0.8422739277813847	23584.1544569678
0.8424844962633302	23672.20730986296
0.842695117387396	23746.946323295717
0.8429057911667428	23818.542801587737
0.8431165176145345	23908.857626226996
0.8433272967439382	24003.006028759755
0.8435381285681244	24085.38963942552
0.8437490131002665	24171.156027058973
0.8439599503535415	24255.152790412172
0.84417094034113	24324.21301074193
0.8443819830762154	24412.658391030393
0.8445930785719846	24477.60214079472
0.8448042268416277	24589.587045204084
0.8450154278983382	24678.87292902901
0.8452266817553128	24762.324734753125
0.8454379884257517	24836.962015287634
0.8456493479228583	24909.319223806782
0.845860760259839	25025.829078210056
0.846072225449904	25116.419488174568
0.8462837435062666	25175.482007909926
0.8464953144421433	25200.457983266748
0.8467069382707537	25306.182578978307
0.8469186150053215	25454.05690920734
0.847130344659073	25549.40301304836
0.8473421272452377	25637.920546246132
0.8475539627770492	25718.598810988784
0.8477658512677435	25814.33898848888
0.8479777927305605	25906.47078301849
0.8481897871787432	25989.719957826397
0.848401834625538	26085.43953746496
0.8486139350841944	26178.75259309579
0.8488260885679657	26249.56720650006
0.8490382950901076	26313.965268381482
0.8492505546638802	26436.843054417157
0.8494628673025462	26538.96761334459
0.8496752330193721	26635.423133206896
0.8498876518276269	26729.971697333724
0.8501001237405839	26820.11604091726
0.8503126487715191	26912.34487591438
0.850525226933712	27006.707518039868
0.8507378582404455	27099.809916301
0.8509505427050057	27193.639132027027
0.8511632803406821	27289.87012615208
0.8513760711607672	27381.434490804753
0.8515889151785576	27473.144230043225
0.8518018124073523	27564.273182484172
0.8520147628604541	27657.338721191285
0.8522277665511693	27744.580896741663
0.8524408234928071	27854.397368907597
0.8526539336986805	27952.529980680516
0.8528670971821053	28048.475084014208
0.8530803139564007	28137.535031223793
0.8532935840348901	28228.082754598243
0.8535069074308987	28327.087094505947
0.8537202841577566	28427.356067200926
0.8539337142287962	28520.551764497835
0.8541471976573534	28599.49084116933
0.8543607344567677	28710.631307462743
0.8545743246403821	28820.832579371632
0.8547879682215422	28920.189433334126
0.8550016652135977	29015.445887316593
0.8552154156299011	29115.77047439013
0.8554292194838088	29217.48568391739
0.8556430767886797	29315.105529228204
0.855856987557877	29422.302158057588
0.8560709518047664	29525.546191356363
0.8562849695427177	29627.575915839367
0.8564990407851035	29729.981830216544
0.8567131655452999	29832.765345073803
0.8569273438366862	29935.92321062036
0.8571415756726455	30037.01266630048
0.8573558610665638	30130.807897956634
0.8575702000318304	30237.577535846278
0.8577845925818384	30345.23788491632
0.857999038729984	30450.46460267716
0.8582135384896665	30551.400694320313
0.858428091874289	30643.71029858589
0.8586426988972576	30746.817570137566
0.8588573595719821	30853.04617445915
0.8590720739118751	30957.450345928606
0.8592868419303532	31061.74195944669
0.8595016636408359	31171.297712234635
0.8597165390567462	31278.402275418113
0.8599314681915105	31381.010931172455
0.8601464510585584	31486.97811671739
0.860361487671323	31595.95935248362
0.8605765780432408	31704.61059361771
0.8607917221877518	31808.724257642287
0.8610069201182988	31910.62689119817
0.8612221718483286	31985.905411127012
0.8614374773912907	32035.557467380848
0.8616528367606385	32153.691115522623
0.8618682499698288	32214.625962844755
0.8620837170323213	32312.95804561402
0.8622992379615795	32451.777901150006
0.8625148127710699	32487.92179747208
0.8627304414742627	32592.63437113643
0.8629461240846313	32787.2220007763
0.8631618606156526	32853.83609573384
0.8633776510808066	32967.43091948383
0.8635934954935769	33101.50268524136
0.8638093938674504	33231.419429041714
0.8640253462159173	33331.21800978903
0.8642413525524714	33378.01893195248
0.8644574128906095	33576.72727601114
0.8646735272438323	33684.43633729228
0.8648896956256433	33771.3105399084
0.8651059180495498	33954.792181741366
0.8653221945290621	34071.45721994175
0.8655385250776946	34199.55772874746
0.8657549097089641	34329.64148522764
0.8659713484363913	34454.03660110023
0.8661878412735006	34570.23029923687
0.866404388233819	34674.62079998102
0.8666209893308775	34788.62245263739
0.8668376445782103	34935.79948620956
0.8670543539893549	35053.63095421663
0.8672711175778525	35151.41533703763
0.8674879353572469	35256.11262322345
0.8677048073410862	35383.37101925855
0.8679217335429217	35515.35566179791
0.8681387139763074	35630.872181505496
0.8683557486548015	35715.60690422102
0.8685728375919655	35843.07280266613
0.8687899808013633	36001.87578487666
0.8690071782965637	36136.83715215348
0.869224430091138	36258.917725495696
0.8694417361986609	36348.510842262825
0.8696590966327107	36431.16092974057
0.869876511406869	36566.400916648396
0.8700939805347206	36697.41225084441
0.8703115040298544	36857.20339386446
0.870529081905862	36978.39644300629
0.8707467141763385	37079.83761305786
0.8709644008548827	37185.84251700767
0.8711821419550964	37315.44774918255
0.8713999374905854	37444.54935812913
0.871617787474958	37615.49798112367
0.8718356919218269	37734.88830494395
0.8720536508448075	37815.9075093782
0.8722716642575187	37926.73972931579
0.8724897321735832	38079.65961666537
0.8727078546066265	38229.00913135992
0.8729260315702784	38368.70740147693
0.873144263078171	38505.53724818719
0.8733625491439405	38635.27715311933
0.8735808897812266	38729.04934240786
0.8737992850036719	38854.521502625576
0.874017734824923	38955.264869237006
0.8742362392586293	39139.359912933316
0.874454798318444	39266.42787281967
0.8746734120180236	39389.34544543447
0.8748920803710283	39538.7758080247
0.875110803391121	39663.20660618925
0.8753295810919689	39797.09981563195
0.875548413487242	39942.15982955567
0.8757673005906139	40081.50607144965
0.8759862424157616	40211.214031239804
0.8762052389763657	40340.94672749211
0.8764242902861098	40461.238462558336
0.8766433963586814	40608.824034411206
0.8768625572077712	40711.13712766248
0.8770817728470732	40818.43661684289
0.8773010432902849	40993.08591550153
0.8775203685511077	41157.262022602124
0.8777397486432454	41302.173686859525
0.8779591835804065	41431.48732846821
0.8781786733763015	41568.0004897425
0.8783982180446457	41711.30747108552
0.878617817599157	41837.527109366674
0.8788374720535569	41959.73475591713
0.8790571814215703	42094.863117754336
0.8792769457169257	42234.7680781574
0.879496764953355	42402.572524476964
0.8797166391445934	42558.857950626414
0.8799365683043796	42694.66807643798
0.8801565524464557	42810.31044658326
0.8803765915845676	42944.045025815314
0.8805966857324639	43097.88087291593
0.880816834903897	43225.71193359014
0.881037039112623	43379.70460199748
0.8812572983724012	43513.49471885933
0.8814776126969944	43636.79090020758
0.8816979821001687	43801.932067011934
0.8819184065956938	43975.51472199309
0.8821388861973429	44114.43593655015
0.8823594209188923	44231.81438843797
0.882580010774122	44385.357474265125
0.8828006557768155	44548.78985966835
0.8830213559407598	44692.78451651568
0.8832421112797452	44845.896223690164
0.8834629218075651	44962.48322345877
0.8836837875380171	45082.5349813603
0.8839047084849018	45259.793373543675
0.884125684662023	45448.088661705086
0.8843467160831886	45602.061380216444
0.8845678027622095	45741.40732501476
0.8847889447129001	45857.92802861018
0.8850101419490785	46020.01198442977
0.8852313944845657	46169.63076574629
0.885452702333187	46343.57226078974
0.8856740655087704	46491.24692754869
0.8858954840251476	46598.39906077069
0.8861169578961539	46747.756585375755
0.886338487135628	46943.88939611124
0.886560071757412	47112.31287699575
0.8867817117753515	47269.571649387326
0.8870034072032955	47416.65556603292
0.8872251580550963	47545.947158008974
0.8874469643446101	47709.97243852829
0.8876688260856963	47868.66378438445
0.8878907432922178	48035.663604984045
0.8881127159780409	48189.166563797415
0.8883347441570356	48320.09399211285
0.8885568278430749	48441.39165768545
0.8887789670500358	48628.51843813216
0.8890011617917983	48806.55955119077
0.8892234120822464	48989.805274735
0.8894457179352669	49153.02252919917
0.8896680793647509	49292.969930568586
0.8898904963845921	49425.99819784276
0.8901129690086883	49593.279829869076
0.8903354972509405	49776.78864906663
0.8905580811252535	49943.74569701986
0.8907807206455347	50006.11232448367
0.8910034158256963	49873.23133799344
0.8912261666796527	50219.91917953061
0.8914489732213227	50546.19326098016
0.8916718354646282	50673.456088215185
0.8918947534234944	50779.86104294677
0.8921177271118502	50873.1053336911
0.8923407565436284	50864.40230906788
0.8925638417327644	51158.28559847691
0.8927869826931977	51494.05288486365
0.8930101794388711	51678.285232667215
0.8932334319837308	51664.26331654608
0.8934567403417267	51749.37562922503
0.8936801045268123	52091.68349389974
0.8939035245529441	52275.10966035382
0.8941270004340824	52447.105738351995
0.894350532184191	52531.66976200814
0.8945741198172371	52795.21001760849
0.8947977633471915	53070.666686975565
0.8950214627880284	53237.32790892351
0.8952452181537254	53351.23059282244
0.8954690294582639	53474.933423074675
0.8956928967156286	53708.85972070018
0.8959168199398075	53858.68892511947
0.8961407991447926	54044.71132253521
0.8963648343445789	54069.61663312742
0.896588925553165	53693.0599133272
0.8968130727845534	54004.616455496536
0.8970372760527496	54499.150950386764
0.8972615353717629	53766.34667435572
0.8974858507556059	53685.75064815071
0.8977102222182949	55102.69957028147
0.8979346497738496	55540.48529506335
0.8981591334362931	55689.66726935874
0.8983836732196523	55823.882724670424
0.8986082691379572	56013.60424176924
0.8988329212052417	55566.04933215959
0.8990576294355432	54749.760046199364
0.8992823938429022	55438.51671739902
0.8995072144413631	56255.30249677957
0.8997320912449734	56893.976767388864
0.8999570242677847	57126.14916325625
0.9001820135238516	57246.10383750405
0.9004070590272328	57298.11359670769
0.9006321607919896	57125.76513127144
0.9008573188321878	57437.47445047682
0.9010825331618959	57585.86236680655
0.9013078037951865	58099.065011328996
0.9015331307461353	58350.67946812479
0.9017585140288219	58580.70187222093
0.9019839536573292	58783.807907128124
0.9022094496457435	59019.721394577275
0.9024350020081551	59199.00459552264
0.9026606107586572	59348.97167842492
0.902886275911347	59514.07740921634
0.9031119974803249	59677.344057974864
0.9033377754796951	59855.25530257771
0.903563609923565	60123.54343344763
0.903789500826046	60335.546256357295
0.9040154482012526	60476.12272021321
0.904241452063303	60704.4650048998
0.9044675124263188	60866.83772381116
0.9046936293044254	61015.975894577066
0.9049198027117517	61208.30875771481
0.9051460326624297	61455.816658024494
0.9053723191705955	61695.30048503246
0.9055986622503881	61884.390053825984
0.9058250619159507	62098.70688124223
0.9060515181814298	62285.02983396977
0.9062780310609752	62413.49802946791
0.9065046005687405	62588.056783138694
0.906731226718883	62828.0993377388
0.9069579095255627	63039.62099804347
0.907184649002944	63193.61643054634
0.907411445165195	63394.79255049524
0.9076382980264862	63625.75383411227
0.907865207600993	63811.72906960095
0.9080921739028933	63945.71721726542
0.9083191969463691	64119.98315314365
0.9085462767456058	64343.15902371013
0.9087734133147922	64450.68290035782
0.9090006066681211	64745.81001664867
0.909227856819788	65024.10787717871
0.9094551637839932	65249.33875589971
0.9096825275749393	65419.457087865696
0.9099099482068329	65562.77156309668
0.9101374256938848	65749.54468361162
0.9103649600503083	65979.00735457786
0.9105925512903209	66162.60337150787
0.9108201994281437	65897.16941617952
0.9110479044780008	66304.78291313502
0.9112756664541204	66893.88047001355
0.911503485370734	67157.64312019259
0.9117313612420768	67258.27079998305
0.9119592940823873	67497.16831098823
0.912187283905908	67780.07010333377
0.9124153307268845	68013.64989563146
0.9126434345595664	68229.9966200376
0.9128715954182063	68412.02935576461
0.9130998133170609	68560.34236009783
0.9133280882703902	68712.29477665559
0.913556420292458	68971.32912418868
0.9137848093975312	69165.62579281631
0.9140132555998806	69470.32611933994
0.9142417589137806	69709.2932727039
