#wavelength	surface flux
0.7	249.50046014370614
0.7001166666666666	250.36609764550306
0.7002333527777778	251.21457353838298
0.700350058336574	252.019944155776
0.7004667833462966	252.8432291152414
0.7005835278101878	253.67994976064287
0.7007002917314895	254.5114269426688
0.7008170751134447	255.34509426163717
0.7009338779592968	256.1960467246687
0.7010507002722901	257.0424200477468
0.7011675420556689	257.88277644066113
0.701284403312678	258.7382128501889
0.7014012840465635	259.59925660665624
0.7015181842605713	260.4351012121717
0.701635103957948	261.2628825766482
0.701752043141941	262.0716812853218
0.701869001815798	262.94239873510463
0.7019859799827672	263.85620883413657
0.7021029776460976	264.70888529722964
0.7022199948090387	265.55610444290767
0.7023370314748403	266.41679071418633
0.7024540876467528	267.28972632385336
0.702571163328027	268.17690337954946
0.7026882585219152	269.03542361957693
0.7028053732316688	269.8856559330548
0.7029225074605406	270.75645283003087
0.7030396612117841	271.6341756631627
0.7031568344886527	272.5252957463666
0.7032740272944008	273.44731937376366
0.7033912396322832	274.3874329966762
0.7035084715055552	275.2869088863646
0.7036257229174727	276.17852362376516
0.7037429938712924	277.0535039009856
0.7038602843702709	277.95091600785605
0.7039775944176659	278.8695552910202
0.7040949240167356	279.76484488276975
0.7042122731707383	280.65945623467445
0.7043296418829335	281.5946419733558
0.7044470301565806	282.5272006483125
0.70456443799494	283.4557507361781
0.7046818654012724	284.39625560936804
0.7047993123788394	285.3420439725219
0.7049167789309024	286.2480597889894
0.7050342650607243	287.16064516259024
0.7051517707715678	288.0895454912207
0.7052692960666963	289.0246819186724
0.705386840949374	289.9642074067642
0.7055044054228656	290.9084985454549
0.7056219894904361	291.85551098152064
0.7057395931553511	292.8113029277276
0.705857216420877	293.7787001359478
0.7059748592902804	294.75834478857035
0.7060925217668288	295.70978472136215
0.70621020385379	296.65722169512384
0.7063279055544321	297.64219548070594
0.7064456268720246	298.6111789480728
0.7065633678098366	299.55479416732817
0.7066811283711383	300.50189178104335
0.7067989085592001	301.45064890056466
0.7069167083772933	302.4583591270008
0.7070345278286895	303.45784420753034
0.707152366916661	304.4359189608869
0.7072702256444803	305.3777498287441
0.7073881040154211	306.2950392573681
0.7075060020327569	307.3265686195189
0.7076239196997625	308.36571160727567
0.7077418570197124	309.38394618763306
0.7078598139958823	310.3964862677479
0.7079777906315483	311.4034937760126
0.7080957869299869	312.40006411459035
0.7082138028944751	313.4007780104175
0.7083318385282908	314.4502649849251
0.7084498938347124	315.4918734153974
0.708567968817018	316.52265154111177
0.7086860634784875	317.5127805731503
0.7088041778224007	318.4853676273086
0.7089223118520377	319.38960659536536
0.7090404655706796	320.37564253631825
0.709158638981608	321.51861817589844
0.709276832088105	322.6001890374917
0.7093950448934531	323.6487760503288
0.7095132774009353	324.58321848190525
0.7096315296138355	325.58252098933326
0.7097498015354378	326.77374882724484
0.7098680931690269	327.89613353514807
0.7099864045178884	328.96779912371767
0.7101047355853081	330.03472386104556
0.7102230863745722	331.09842788862386
0.7103414568889679	332.150919002105
0.7104598471317828	333.21367507422474
0.7105782571063047	334.2864796177399
0.7106966868158224	335.3304647595691
0.710815136263625	336.3782931368631
0.7109336054530023	337.49586976206007
0.7110520943872445	338.60136078951615
0.7111706030696424	339.6913929134987
0.7112891315034873	340.81680604420933
0.7114076796920712	341.95089275943144
0.7115262476386865	343.0400438086214
0.7116448353466263	344.1291633983033
0.711763442819184	345.21811409819765
0.711882070059654	346.33037766926685
0.7120007170713306	347.4530425075487
0.7121193838575091	348.561182831746
0.7122380704214853	349.67812466605915
0.7123567767665555	350.8135022732527
0.7124755028960166	351.9352569674114
0.7125942488131658	353.0492902489805
0.7127130145213015	354.16273444718706
0.7128318000237216	355.27791626552863
0.7129506053237256	356.39763798980533
0.7130694304246129	357.5291700803727
0.7131882753296837	358.6691615842051
0.7133071400422386	359.84700632541575
0.7134260245655789	361.0054414674042
0.7135449289030065	362.07938942644455
0.7136638530578235	363.25401349279207
0.7137827970333332	364.515523130196
0.7139017608328388	365.6813960855576
0.7140207444596443	366.8366614129983
0.7141397479170543	368.0177150111942
0.7142587712083737	369.18346805811444
0.7143778143369084	370.3335248635301
0.7144968773059646	371.5546387570299
0.7146159601188489	372.7861641262969
0.7147350627788687	373.9789688898277
0.7148541852893318	375.1649827058665
0.7149733276535467	376.34281607783464
0.7150924898748222	377.5129100641058
0.715211671956468	378.6912994858939
0.7153308739017941	379.9655969151847
0.715450095714111	381.2203985194469
0.71556933739673	382.44820975332465
0.7156885989529628	383.5685416302353
0.7158078803861218	384.66272063349663
0.7159271816995193	385.9116794477565
0.7160465028964692	387.10980479740294
0.7161658439802853	388.22819107623343
0.7162852049542819	389.19243781228084
0.7164045858217744	390.0847807631299
0.716523986586078	390.72215508185786
0.7166434072505089	391.3268520564468
0.716762847818384	391.87423068177196
0.7168823082930204	393.0971751042121
0.7170017886777359	394.63271990915507
0.7171212889758488	396.6588740596561
0.7172408091906781	398.4671427673482
0.7173603493255433	399.8547432397423
0.7174799093837642	400.9093779861382
0.7175994893686615	401.798830110508
0.7177190892835562	403.44036395272474
0.7178387091317702	405.1015520368242
0.7179583489166254	406.7967922002758
0.7180780086414448	408.28706575114495
0.7181976883095517	409.6679809217665
0.7183173879242699	410.8595800001887
0.718437107488924	411.99648563965707
0.7185568470068389	413.01966754918993
0.7186766064813399	414.07797420481694
0.7187963859157535	415.15615049282803
0.7189161853134061	417.0690571825855
0.719036004677625	418.89009053008675
0.7191558440117378	420.43632771739334
0.7192757033190732	421.73533856542593
0.7193955826029597	422.89019015924924
0.7195154818667269	424.22133638805906
0.7196354011137046	425.6122157736872
0.7197553403472235	427.1293427335498
0.7198752995706147	428.5374361206848
0.7199952787872098	429.8809363656439
0.720115278000341	431.18416396509497
0.7202352972133411	432.47523135454287
0.7203553364295432	433.7407823542449
0.7204753956522815	435.021438239293
0.7205954748848902	436.3111320587091
0.7207155741307044	437.76571047038186
0.7208356933930594	439.273404668378
0.7209558326752915	440.8911776694738
0.7210759919807375	442.3707358168849
0.7211961713127342	443.77003852984114
0.7213163706746197	445.15102814641307
0.7214365900697322	446.5722092110741
0.7215568295014103	448.08637194186736
0.721677088972994	449.5602305264919
0.7217973684878227	451.0116189707271
0.7219176680492374	452.2657069820672
0.7220379876605789	453.61260586332054
0.722158327325189	455.1700398941313
0.7222786870464099	456.72043794529026
0.7223990668275843	458.2672300264433
0.7225194666720555	459.6426999572157
0.7226398865831676	461.0644608716144
0.7227603265642646	462.582182490642
0.722880786618692	463.9089073887307
0.7230012667497951	465.1456723703908
0.7231217669609201	466.73610909513366
0.7232422872554135	468.2048825188581
0.7233628276366229	469.4482909901586
0.7234833881078956	470.86833220823974
0.7236039686725803	472.35716870110775
0.7237245693340255	473.5494154395659
0.7238451900955812	474.9922336524165
0.7239658309605971	476.85328065551266
0.7240864919324239	478.5144638054227
0.7242071730144127	480.0954080698471
0.724327874209915	481.6540957985381
0.7244485955222832	483.09141566514944
0.7245693369548704	484.3484244593437
0.7246900985110294	485.91431288020317
0.7248108801941148	487.5941445626933
0.7249316820074803	489.36129830825604
0.7250525039544815	491.001606478976
0.7251733460384739	492.4767261338916
0.7252942082628137	493.8274976855513
0.7254150906308574	495.1515686689454
0.7255359931459625	496.5342742025821
0.7256569158114868	498.1529071618749
0.7257778586307888	500.0369161236536
0.7258988216072273	501.5474343294117
0.7260198047441617	503.0054584663803
0.7261408080449525	504.62222973005163
0.72626183151296	505.9662526257093
0.7263828751515454	507.0490931362711
0.7265039389640706	509.0201969388323
0.726625022953898	511.0254424889413
0.7267461271243904	512.5989549313579
0.7268672514789111	514.2224931511166
0.7269883960208241	515.886172474468
0.7271095607534942	517.5830624394381
0.7272307456802866	519.3078933161332
0.7273519508045666	521.1041185220306
0.7274731761297006	522.7407338153848
0.7275944216590555	524.2726041211116
0.7277156873959987	525.7532053500837
0.7278369733438982	527.2113282394957
0.727958279506122	528.6235314005559
0.7280796058860397	530.526929160555
0.7282009524870207	532.6853386937061
0.7283223193124353	534.508560291804
0.7284437063656539	536.2931772798996
0.7285651136500483	538.0089269224786
0.7286865411689898	539.6069099687402
0.7288079889258514	541.1269891805405
0.7289294569240056	542.2130503734201
0.7290509451668262	543.5273082102044
0.7291724536576875	545.1575678422685
0.7292939823999636	546.9564627134221
0.7294155313970303	548.8117078498523
0.7295371006522632	550.712967912079
0.7296586901690385	552.4987803757748
0.7297802999507332	554.1608028519295
0.7299019300007252	556.0387643434715
0.7300235803223919	557.8084652967696
0.7301452509191123	558.9534228110529
0.7302669417942654	560.3544391723823
0.7303886529512311	561.9649883818967
0.7305103843933897	562.7177311025547
0.7306321361241218	564.0816953268373
0.7307539081468093	567.3963455447465
0.7308757004648336	569.9852336581043
0.7309975130815778	572.1322473430704
0.7311193460004248	573.7414553648049
0.7312411992247582	575.4711793943627
0.7313630727579622	577.4585959171319
0.7314849666034219	579.3807184267641
0.7316068807645224	581.2494380610315
0.7317288152446498	582.6971500106398
0.7318507700471907	584.1625944219805
0.7319727451755319	585.6528115647653
0.732094740633061	587.8745651086278
0.7322167564231665	590.2057728189399
0.7323387925492371	591.9007545815067
0.7324608490146619	593.8106745371301
0.732582925822831	595.9368689424805
0.7327050229771347	597.8340179733642
0.7328271404809642	599.6371263241678
0.7329492783377112	601.2408372695668
0.7330714365507675	603.1061236158342
0.7331936151235259	605.1572867873864
0.7333158140593796	607.0208648629907
0.7334380333617229	608.7968200909703
0.7335602730339499	610.4013406299263
0.7336825330794556	612.454551739923
0.7338048135016354	614.7121903261889
0.7339271143038857	616.6822582560744
0.734049435489603	618.4751698255933
0.7341717770621846	620.0066602955865
0.7342941390250283	621.8821155941579
0.7344165213815324	623.8349720626069
0.734538924135096	625.6217044070089
0.7346613472891185	627.6035988572987
0.734783790847	629.7798581188296
0.7349062548121412	631.4457350307042
0.7350287391879431	632.8991755883212
0.7351512439778078	633.9131196756824
0.7352737691851374	636.2068952031193
0.735396314813335	639.3469570337792
0.7355188808658037	641.4241903344745
0.7356414673459482	643.5500675255632
0.7357640742571725	645.8352994929115
0.7358867016028818	647.8459339429926
0.7360093493864824	649.7474648533523
0.7361320176113801	651.704103687195
0.736254706280982	653.6064844809908
0.7363774153986956	655.4413404185583
0.7365001449679286	657.0887978756799
0.7366228949920899	658.7266515436924
0.7367456654745885	660.5063721874853
0.7368684564188344	662.9174120342615
0.7369912678282374	665.8297859569298
0.7371140997062088	668.1325318591489
0.7372369520561599	670.3141983793813
0.7373598248815024	672.3224029022093
0.7374827181856494	674.356623642011
0.7376056319720137	676.4102240099203
0.7377285662440091	678.6009080301083
0.7378515210050496	680.6832032122485
0.7379744962585505	682.6150332059394
0.738097492007927	684.5957215112778
0.7382205082565949	686.5866295651407
0.738343545007971	688.5638241304149
0.7384666022654723	690.6150991525233
0.7385896800325165	692.729240980759
0.7387127783125219	695.1212867162996
0.7388358971089073	697.4612679763052
0.7389590364250921	699.6124132404785
0.7390821962644963	701.7327128047272
0.7392053766305403	703.8413833643477
0.7393285775266454	706.028665314795
0.7394517989562333	708.226996691034
0.7395750409227259	710.4404296496816
0.7396983034295463	712.651848432922
0.739821586480118	714.8546499597851
0.7399448900778645	717.0183296930487
0.7400682142262109	719.2049192769535
0.740191558928582	721.4100937414395
0.7403149241884034	723.5157922653827
0.7404383100091014	725.645413777972
0.7405617163941028	727.8440367294914
0.7406851433468352	730.1297644115809
0.7408085908707264	732.4304417103709
0.7409320589692048	734.4047133918775
0.7410555476456997	736.6737185627696
0.7411790569036406	739.3032517300662
0.7413025867464579	741.5902126812913
0.7414261371775823	743.7809721357017
0.7415497082004452	745.87314568612
0.7416732998184786	748.1125896309925
0.741796912035115	750.4532281865537
0.7419205448537874	752.6610341471182
0.7420441982779297	754.902459494645
0.742167872310976	757.2101814805858
0.7422915669563612	759.7193003932845
0.7424152822175206	762.2648263858807
0.7425390180978901	764.5655824436901
0.7426627746009065	766.7844950589433
0.7427865517300065	768.9238854898992
0.7429103494886282	771.538432822447
0.7430341678802096	774.1575400900015
0.7431580069081896	776.6360316863535
0.7432818665760077	779.0295517422861
0.7434057468871037	781.3794584017886
0.7435296478449182	783.7254935160573
0.7436535694528923	786.0624470666203
0.7437775117144678	788.3873478178764
0.7439014746330868	790.6322919706749
0.7440254582121922	792.9009024152116
0.7441494624552276	795.3289799427711
0.7442734873656368	797.746749871843
0.7443975329468645	800.1575546598124
0.7445215992023557	802.5637298055443
0.7446456861355559	804.9807000502439
0.7447697937499119	807.416088326059
0.7448939220488703	809.9231694657377
0.7450180710358784	812.4555075447264
0.7451422407143843	814.9994736337926
0.7452664310878367	817.5146887647337
0.7453906421596846	820.0049523670825
0.7455148739333779	822.5695784449236
0.7456391264123667	825.1390361348583
0.7457633996001021	827.7053953270238
0.7458876935000356	830.1749510362519
0.7460120081156189	832.6119287637548
0.7461363434503048	835.12038813836
0.7462606995075466	837.6764161723196
0.7463850762907978	840.2823260266272
0.7465094738035127	842.8566757453807
0.7466338920491467	845.4441749626923
0.746758331031155	848.0777412521335
0.7468827907529935	850.6865023478457
0.7470072712181189	853.2878171403145
0.7471317724299886	855.9673798434036
0.7472562943920602	858.6371989074431
0.7473808371077922	861.295110543971
0.7475054005806435	863.7868291551958
0.7476299848140736	866.2976555620603
0.7477545898115426	868.9634968746601
0.7478792155765113	871.5811940916611
0.7480038621124406	874.1665393945484
0.7481285294227926	876.5980975372149
0.7482532175110298	879.2067589556862
0.7483779263806148	882.0531983439894
0.7485026560350116	884.7399698540482
0.7486274064776842	887.418972678754
0.748752177712097	890.1915810070659
0.7488769697417158	892.9847617004291
0.749001782570006	895.7897898536357
0.7491266162004343	898.5183227830396
0.7492514706364677	901.2531222575674
0.7493763458815739	903.996665020116
0.7495012419392209	906.7943701226742
0.7496261588128773	909.5775491121088
0.7497510965060128	912.2571941432373
0.7498760550220971	914.9776146246709
0.7500010343646007	917.7245361986176
0.7501260345369949	920.4853217411752
0.750251055542751	923.221052491846
0.7503760973853414	925.9202689195021
0.7505011600682389	928.6923625917893
0.750626243594917	931.488824749512
0.7507513479688495	934.3113304945185
0.7508764731935109	937.1426596832368
0.7510016192723765	939.9799535354263
0.7511267862089218	942.8312798004332
0.7512519740066232	945.6803647163284
0.7513771826689577	948.5260971136637
0.7515024121994025	951.3372584200665
0.7516276626014359	954.1740543203371
0.751752933878536	957.1276727865594
0.7518782260341824	960.0045342376018
0.7520035390718548	962.8374484552359
0.7521288729950334	965.7417100934297
0.7522542278071992	968.6612773119152
0.7523796035118337	971.6007747880662
0.7525050001124189	974.5349669324826
0.7526304176124378	977.452933524444
0.7527558560153731	980.3226920378985
0.752881315324709	983.2529594984113
0.7530067955439299	986.2182232551949
0.7531322966765205	989.2174044454142
0.7532578187259665	992.2140065171884
0.7533833616957542	995.2075020619039
0.75350892558937	998.1442944268861
0.7536345104103016	1001.0927486198606
0.7537601161620366	1004.0942499865101
0.7538857428480638	1007.0658798865601
0.7540113904718717	1010.0305537698638
0.7541370590369503	1013.0627262348609
0.7542627485467898	1016.0825184910565
0.7543884590048808	1019.0898868077387
0.7545141904147151	1022.2435515180674
0.7546399427797842	1025.3712563113295
0.7547657161035808	1028.4109072845042
0.754891510389598	1031.4895113687023
0.7550173256413296	1034.5767340607322
0.7551431618622698	1037.6250111632394
0.7552690190559135	1040.715434254378
0.7553948972257561	1043.8406675467545
0.7555207963752938	1046.9200074327007
0.755646716508023	1050.0269595864345
0.755772657627441	1053.1837064517772
0.7558986197370455	1056.285448212084
0.756024602840335	1059.3752002668382
0.7561506069408084	1062.4773861100819
0.7562766320419653	1065.6408714043182
0.7564026781473054	1068.8425533201441
0.75652874526033	1071.974998443097
0.7566548333845401	1075.1143770917834
0.7567809425234375	1078.2626118947123
0.7569070726805247	1081.498111052765
0.7570332238593047	1084.7305691511401
0.7571593960632813	1087.9103542839882
0.7572855892959586	1091.0846206537058
0.7574118035608413	1094.2579121224842
0.7575380388614347	1097.4449759111017
0.7576642952012449	1100.640095922407
0.7577905725837782	1103.843001531405
0.7579168710125422	1107.0825662491297
0.7580431904910444	1110.3612017915023
0.7581695310227928	1113.708946211941
0.7582958926112967	1117.0013659480442
0.7584222752600652	1120.274927608376
0.7585486789726085	1123.541332908947
0.7586751037524372	1126.817270539108
0.7588015496030628	1130.099779226332
0.7589280165279966	1133.3733450765533
0.7590545045307512	1136.6145855625457
0.7591810136148396	1139.812946744065
0.7593075437837755	1143.101842550137
0.7594340950410726	1146.4180293572304
0.7595606673902461	1149.7641981568943
0.7596872608348112	1153.1045472449066
0.7598138753782836	1156.4339358215934
0.75994051102418	1159.6936490019568
0.7600671677760173	1163.0115635255083
0.7601938456373134	1166.3811059798454
0.7603205446115863	1169.7657984736672
0.7604472647023548	1173.1126159190044
0.7605740059131385	1176.3941088846368
0.7607007682474575	1179.6674185968645
0.7608275517088319	1182.9478456220638
0.7609543563007835	1186.2606062745797
0.7610811820268336	1189.627324142298
0.7612080288905045	1193.0134405232243
0.7613348968953197	1196.2344353551819
0.7614617860448022	1199.4972521448851
0.7615886963424764	1202.8041215557073
0.7617156277918667	1206.14838807939
0.7618425803964988	1209.492677114749
0.7619695541598982	1212.8293238082267
0.7620965490855914	1216.1034453774782
0.7622235651771058	1219.3741886475536
0.7623506024379685	1222.7156030224482
0.7624776608717082	1226.004755783408
0.7626047404818536	1229.2593686181342
0.7627318412719337	1232.4761581768714
0.762858963245479	1235.6409569418224
0.7629861064060198	1238.745554407562
0.7631132707570876	1241.8371175980471
0.7632404563022137	1244.9314058049408
0.7633676630449308	1248.0345123714744
0.7634948909887717	1251.1264668851811
0.7636221401372697	1254.1946590197701
0.7637494104939593	1257.166971496493
0.7638767020623748	1260.1130516968622
0.7640040148460518	1263.0373473503587
0.7641313488485262	1265.8194820513545
0.7642587040733344	1268.53306896245
0.7643860805240132	1271.1663895975557
0.7645134782041005	1273.7580953454487
0.7646408971171346	1276.3057589018556
0.764768337266654	1278.7706587899488
0.7648957986561985	1281.1994671223345
0.7650232812893079	1283.5882864683347
0.7651507851695227	1285.8506969652733
0.7652783103003843	1288.0014599991778
0.7654058566854343	1290.0607230110704
0.7655334243282153	1291.6746955129636
