#wavelength	surface flux
0.001	1.7650802345427116e-94
0.00101	1.826095353761472e-94
0.0010201000000000001	1.8877206241724207e-94
0.0010303010000000002	1.9499621472874787e-94
0.00104060401	2.012826085633686e-94
0.0010510100501000001	2.0763186633633566e-94
0.0010615201506010002	2.1404461668703242e-94
0.00107213535210701	2.2052149454123598e-94
0.0010828567056280802	2.2706314117398165e-94
0.0010936852726843608	2.3367020427305474e-94
0.0011046221254112046	2.4034333800311874e-94
0.0011156683466653167	2.4708320307048325e-94
0.0011268250301319698	2.538904667885214e-94
0.0011380932804332896	2.6076580314374e-94
0.0011494742132376226	2.677098928625108e-94
0.0011609689553699987	2.7472342347846916e-94
0.0011725786449236987	2.818070894005872e-94
0.0011843044313729356	2.889615919819264e-94
0.001196147475686665	2.96187639589079e-94
0.0012081089504435317	2.98538261891792e-94
0.0012201900399479671	2.98538261891792e-94
0.0012323919403474468	2.98538261891792e-94
0.0012447158597509213	2.98538261891792e-94
0.0012571630183484304	2.98538261891792e-94
0.0012697346485319148	2.98538261891792e-94
0.0012824319950172339	2.98538261891792e-94
0.0012952563149674064	2.98538261891792e-94
0.0013082088781170805	2.98538261891792e-94
0.001321290966898251	2.98538261891792e-94
0.0013345038765672336	2.98538261891792e-94
0.001347848915332906	2.98538261891792e-94
0.0013613274044862352	2.98538261891792e-94
0.0013749406785310975	2.98538261891792e-94
0.0013886900853164084	2.98538261891792e-94
0.0014025769861695724	2.98538261891792e-94
0.0014166027560312683	2.98538261891792e-94
0.001430768783591581	2.98538261891792e-94
0.0014450764714274969	2.98538261891792e-94
0.0014595272361417717	2.98538261891792e-94
0.0014741225085031894	2.98538261891792e-94
0.0014888637335882214	2.98538261891792e-94
0.0015037523709241036	2.98538261891792e-94
0.0015187898946333446	2.98538261891792e-94
0.001533977793579678	2.98538261891792e-94
0.001549317571515475	2.98538261891792e-94
0.0015648107472306296	2.98538261891792e-94
0.001580458854702936	2.98538261891792e-94
0.0015962634432499655	2.98538261891792e-94
0.001612226077682465	2.98538261891792e-94
0.0016283483384592896	2.98538261891792e-94
0.0016446318218438828	2.98538261891792e-94
0.0016610781400623216	2.98538261891792e-94
0.0016776889214629447	2.98538261891792e-94
0.0016944658106775741	2.98538261891792e-94
0.00171141046878435	2.98538261891792e-94
0.0017285245734721935	2.98538261891792e-94
0.0017458098192069155	2.98538261891792e-94
0.0017632679173989845	2.98538261891792e-94
0.0017809005965729746	2.98538261891792e-94
0.0017987096025387042	2.98538261891792e-94
0.0018166966985640914	2.98538261891792e-94
0.0018348636655497322	2.98538261891792e-94
0.0018532123022052297	2.98538261891792e-94
0.001871744425227282	2.98538261891792e-94
0.0018904618694795547	2.98538261891792e-94
0.0019093664881743501	2.98538261891792e-94
0.0019284601530560937	2.98538261891792e-94
0.0019477447545866546	2.98538261891792e-94
0.001967222202132521	2.98538261891792e-94
0.0019868944241538465	2.98538261891792e-94
0.0020067633683953853	2.98538261891792e-94
0.002026831002079339	2.98538261891792e-94
0.0020470993121001323	2.98538261891792e-94
0.0020675703052211334	2.98538261891792e-94
0.002088246008273345	2.98538261891792e-94
0.0021091284683560784	2.98538261891792e-94
0.0021302197530396394	2.98538261891792e-94
0.002151521950570036	2.98538261891792e-94
0.002173037170075736	2.98538261891792e-94
0.0021947675417764933	2.98538261891792e-94
0.0022167152171942584	2.98538261891792e-94
0.002238882369366201	2.98538261891792e-94
0.0022612711930598633	2.98538261891792e-94
0.0022838839049904615	2.98538261891792e-94
0.0023067227440403664	2.98538261891792e-94
0.00232978997148077	2.98538261891792e-94
0.0023530878711955777	2.98538261891792e-94
0.0023766187499075337	2.98538261891792e-94
0.0024003849374066087	2.98538261891792e-94
0.002424388786780675	2.98538261891792e-94
0.0024486326746484817	2.98538261891792e-94
0.0024731190013949664	2.98538261891792e-94
0.0024978501914089163	2.98538261891792e-94
0.0025228286933230053	2.98538261891792e-94
0.0025480569802562355	2.98538261891792e-94
0.0025735375500587983	2.98538261891792e-94
0.0025992729255593858	2.98538261891792e-94
0.00262526565481498	2.98538261891792e-94
0.0026515183113631296	2.98538261891792e-94
0.002678033494476761	2.98538261891792e-94
0.0027048138294215283	2.98538261891792e-94
0.002731861967715744	2.98538261891792e-94
0.002759180587392901	2.98538261891792e-94
0.0027867723932668304	2.98538261891792e-94
0.002814640117199499	2.98538261891792e-94
0.0028427865183714937	2.98538261891792e-94
0.002871214383555209	2.98538261891792e-94
0.0028999265273907606	2.98538261891792e-94
0.002928925792664668	2.98538261891792e-94
0.002958215050591315	2.98538261891792e-94
0.002987797201097228	2.98538261891792e-94
0.0030176751731082006	2.98538261891792e-94
0.0030478519248392827	2.98538261891792e-94
0.0030783304440876753	2.98538261891792e-94
0.0031091137485285522	2.98538261891792e-94
0.0031402048860138376	2.98538261891792e-94
0.0031716069348739764	2.98538261891792e-94
0.003203323004222716	2.98538261891792e-94
0.003235356234264943	2.98538261891792e-94
0.003267709796607593	2.98538261891792e-94
0.0033003868945736684	2.98538261891792e-94
0.003333390763519405	2.98538261891792e-94
0.0033667246711545995	2.98538261891792e-94
0.0034003919178661455	2.98538261891792e-94
0.0034343958370448065	2.98538261891792e-94
0.0034687397954152547	2.98538261891792e-94
0.0035034271933694077	2.98538261891792e-94
0.0035384614653031017	2.98538261891792e-94
0.0035738460799561327	2.98538261891792e-94
0.003609584540755694	2.98538261891792e-94
0.003645680386163251	2.98538261891792e-94
0.0036821371900248832	2.98538261891792e-94
0.0037189585619251324	2.98538261891792e-94
0.0037561481475443838	2.98538261891792e-94
0.0037937096290198277	2.98538261891792e-94
0.003831646725310026	2.98538261891792e-94
0.003869963192563126	2.98538261891792e-94
0.003908662824488757	2.98538261891792e-94
0.003947749452733645	2.98538261891792e-94
0.003987226947260982	2.98538261891792e-94
0.004027099216733592	2.98538261891792e-94
0.004067370208900928	2.98538261891792e-94
0.004108043910989938	2.98538261891792e-94
0.004149124350099836	2.98538261891792e-94
0.004190615593600834	2.98538261891792e-94
0.004232521749536843	2.98538261891792e-94
0.004274846967032212	2.98538261891792e-94
0.004317595436702534	2.98538261891792e-94
0.004360771391069559	2.98538261891792e-94
0.0044043791049802545	2.98538261891792e-94
0.004448422896030057	2.98538261891792e-94
0.0044929071249903575	2.98538261891792e-94
0.004537836196240262	2.98538261891792e-94
0.004583214558202664	2.98538261891792e-94
0.004629046703784691	2.98538261891792e-94
0.0046753371708225374	2.98538261891792e-94
0.004722090542530763	2.98538261891792e-94
0.004769311447956071	2.98538261891792e-94
0.004817004562435632	2.98538261891792e-94
0.004865174608059988	2.98538261891792e-94
0.004913826354140587	2.98538261891792e-94
0.004962964617681994	2.98538261891792e-94
0.005012594263858814	2.98538261891792e-94
0.005062720206497402	2.98538261891792e-94
0.0051133474085623765	2.98538261891792e-94
0.005164480882648	2.98538261891792e-94
0.0052161256914744795	2.98538261891792e-94
0.005268286948389224	2.98538261891792e-94
0.0053209698178731165	2.98538261891792e-94
0.005374179516051849	2.98538261891792e-94
0.005427921311212366	2.98538261891792e-94
0.0054822005243244905	2.98538261891792e-94
0.005537022529567735	2.98538261891792e-94
0.005592392754863413	2.98538261891792e-94
0.0056483166824120475	2.98538261891792e-94
0.0057047998492361675	2.98538261891792e-94
0.005761847847728529	2.98538261891792e-94
0.005819466326205815	2.98538261891792e-94
0.005877660989467873	2.98538261891792e-94
0.005936437599362551	2.98538261891792e-94
0.005995801975356177	2.98538261891792e-94
0.0060557599951097385	2.98538261891792e-94
0.006116317595060837	2.98538261891792e-94
0.006177480771011445	2.98538261891792e-94
0.006239255578721559	2.98538261891792e-94
0.006301648134508775	2.98538261891792e-94
0.006364664615853863	2.98538261891792e-94
0.006428311262012401	2.98538261891792e-94
0.0064925943746325255	2.98538261891792e-94
0.006557520318378851	2.98538261891792e-94
0.006623095521562639	2.98538261891792e-94
0.006689326476778266	2.98538261891792e-94
0.0067562197415460485	2.98538261891792e-94
0.006823781938961509	2.98538261891792e-94
0.006892019758351124	2.98538261891792e-94
0.0069609399559346355	2.98538261891792e-94
0.007030549355493982	2.98538261891792e-94
0.007100854849048922	2.98538261891792e-94
0.007171863397539412	2.98538261891792e-94
0.007243582031514805	2.98538261891792e-94
0.007316017851829954	2.98538261891792e-94
0.007389178030348253	2.98538261891792e-94
0.007463069810651736	2.98538261891792e-94
0.007537700508758254	2.98538261891792e-94
0.007613077513845836	2.98538261891792e-94
0.007689208288984294	2.98538261891792e-94
0.007766100371874137	2.98538261891792e-94
0.00784376137559288	2.98538261891792e-94
0.007922198989348808	2.98538261891792e-94
0.008001420979242295	2.98538261891792e-94
0.008081435189034718	2.98538261891792e-94
0.008162249540925065	2.98538261891792e-94
0.008243872036334317	2.98538261891792e-94
0.008326310756697661	2.98538261891792e-94
0.008409573864264637	2.98538261891792e-94
0.008493669602907282	2.98538261891792e-94
0.008578606298936356	2.98538261891792e-94
0.008664392361925718	2.98538261891792e-94
0.008751036285544977	2.98538261891792e-94
0.008838546648400426	2.98538261891792e-94
0.008926932114884432	2.98538261891792e-94
0.009016201436033275	2.98538261891792e-94
0.009106363450393609	2.98538261891792e-94
0.009197427084897545	2.98538261891792e-94
0.00928940135574652	2.98538261891792e-94
0.009382295369303986	2.98538261891792e-94
0.009476118322997024	2.98538261891792e-94
0.009570879506226997	2.98538261891792e-94
0.009666588301289265	2.98538261891792e-94
0.009763254184302158	2.98538261891792e-94
0.00986088672614518	2.98538261891792e-94
0.009959495593406632	2.98538261891792e-94
0.0100590905493407	2.98538261891792e-94
0.010159681454834106	2.98538261891792e-94
0.010261278269382446	2.98538261891792e-94
0.01036389105207627	2.98538261891792e-94
0.010467529962597035	2.98538261891792e-94
0.010572205262223005	2.98538261891792e-94
0.010677927314845235	2.98538261891792e-94
0.010784706587993687	2.98538261891792e-94
0.010892553653873623	2.98538261891792e-94
0.01100147919041236	2.98538261891792e-94
0.011111493982316483	2.98538261891792e-94
0.01122260892213965	2.98538261891792e-94
0.011334835011361045	2.98538261891792e-94
0.011448183361474655	2.98538261891792e-94
0.011562665195089401	2.98538261891792e-94
0.011678291847040296	2.98538261891792e-94
0.0117950747655107	2.98538261891792e-94
0.011913025513165806	2.98538261891792e-94
0.012032155768297465	2.98538261891792e-94
0.01215247732598044	2.98538261891792e-94
0.012274002099240244	2.98538261891792e-94
0.012396742120232647	2.98538261891792e-94
0.012520709541434973	2.98538261891792e-94
0.012645916636849323	2.98538261891792e-94
0.012772375803217816	2.98538261891792e-94
0.012900099561249994	2.98538261891792e-94
0.013029100556862495	2.98538261891792e-94
0.01315939156243112	2.98538261891792e-94
0.01329098547805543	2.98538261891792e-94
0.013423895332835984	2.98538261891792e-94
0.013558134286164345	2.98538261891792e-94
0.01369371562902599	2.98538261891792e-94
0.013830652785316248	2.98538261891792e-94
0.013968959313169412	2.98538261891792e-94
0.014108648906301107	2.98538261891792e-94
0.014249735395364118	2.98538261891792e-94
0.014392232749317758	2.98538261891792e-94
0.014536155076810936	2.98538261891792e-94
0.014681516627579045	2.98538261891792e-94
0.014828331793854836	2.98538261891792e-94
0.014976615111793384	2.98538261891792e-94
0.015126381262911319	2.98538261891792e-94
0.015277645075540433	2.98538261891792e-94
0.015430421526295836	2.98538261891792e-94
0.015584725741558796	2.98538261891792e-94
0.015740572998974384	2.98538261891792e-94
0.015897978728964125	2.98538261891792e-94
0.01605695851625377	2.98538261891792e-94
0.016217528101416308	2.98538261891792e-94
0.01637970338243047	2.98538261891792e-94
0.016543500416254773	2.98538261891792e-94
0.016708935420417324	2.98538261891792e-94
0.016876024774621495	2.98538261891792e-94
0.01704478502236771	2.98538261891792e-94
0.017215232872591385	2.98538261891792e-94
0.0173873852013173	2.98538261891792e-94
0.017561259053330475	2.98538261891792e-94
0.01773687164386378	2.98538261891792e-94
0.017914240360302418	2.98538261891792e-94
0.018093382763905444	2.98538261891792e-94
0.0182743165915445	2.98538261891792e-94
0.01845705975745994	2.98538261891792e-94
0.01864163035503454	2.98538261891792e-94
0.01882804665858489	2.98538261891792e-94
0.019016327125170738	2.98538261891792e-94
0.019206490396422443	2.98538261891792e-94
0.01939855530038667	2.98538261891792e-94
0.019592540853390534	2.98538261891792e-94
0.01978846626192444	2.98538261891792e-94
0.019986350924543685	2.98538261891792e-94
0.020186214433789124	2.98538261891792e-94
0.020388076578127013	2.98538261891792e-94
0.020591957343908285	2.98538261891792e-94
0.020797876917347368	2.98538261891792e-94
0.021005855686520844	2.98538261891792e-94
0.02121591424338605	2.98538261891792e-94
0.02142807338581991	2.98538261891792e-94
0.02164235411967811	2.98538261891792e-94
0.02185877766087489	2.98538261891792e-94
0.02207736543748364	2.98538261891792e-94
0.022298139091858477	2.98538261891792e-94
0.02252112048277706	2.98538261891792e-94
0.022746331687604832	2.98538261891792e-94
0.022973795004480883	2.98538261891792e-94
0.02320353295452569	2.98538261891792e-94
0.023435568284070948	2.98538261891792e-94
0.023669923966911657	2.98538261891792e-94
0.02390662320658077	2.98538261891792e-94
0.024145689438646582	2.98538261891792e-94
0.024387146333033047	2.98538261891792e-94
0.024631017796363376	2.98538261891792e-94
0.024877327974327013	2.98538261891792e-94
0.025126101254070284	2.98538261891792e-94
0.025377362266610984	2.98538261891792e-94
0.025631135889277096	2.98538261891792e-94
0.025887447248169868	2.98538261891792e-94
0.026146321720651563	2.98538261891792e-94
0.026407784937858083	2.98538261891792e-94
0.026671862787236662	2.98538261891792e-94
0.02693858141510903	2.98538261891792e-94
0.02720796722926012	2.98538261891792e-94
0.027480046901552722	2.98538261891792e-94
0.02775484737056825	2.98538261891792e-94
0.028032395844273934	2.98538261891792e-94
0.02831271980271667	2.98538261891792e-94
0.02859584700074384	2.98538261891792e-94
0.028881805470751278	2.98538261891792e-94
0.02917062352545879	2.98538261891792e-94
0.029462329760713377	2.98538261891792e-94
0.029756953058320514	2.98538261891792e-94
0.030054522588903718	2.98538261891792e-94
0.030355067814792754	2.98538261891792e-94
0.030658618492940683	2.98538261891792e-94
0.030965204677870093	2.98538261891792e-94
0.03127485672464879	2.98538261891792e-94
0.031587605291895283	2.98538261891792e-94
0.03190348134481423	2.98538261891792e-94
0.032222516158262375	2.98538261891792e-94
0.03254474131984499	2.98538261891792e-94
0.03287018873304345	2.98538261891792e-94
0.03319889062037388	2.98538261891792e-94
0.03353087952657762	2.98538261891792e-94
0.0338661883218434	2.98538261891792e-94
0.03420485020506183	2.98538261891792e-94
0.03454689870711246	2.98538261891792e-94
0.03489236769418358	2.98538261891792e-94
0.035241291371125416	2.98538261891792e-94
0.03559370428483667	2.98538261891792e-94
0.035949641327685036	2.98538261891792e-94
0.03630913774096189	2.98538261891792e-94
0.03667222911837151	2.98538261891792e-94
0.03703895140955522	2.98538261891792e-94
0.03740934092365077	2.98538261891792e-94
0.037783434332887285	2.98538261891792e-94
0.03816126867621615	2.98538261891792e-94
0.038542881362978315	2.98538261891792e-94
0.038928310176608104	2.98538261891792e-94
0.03931759327837418	2.98538261891792e-94
0.039710769211157924	2.98538261891792e-94
0.0401078769032695	2.98538261891792e-94
0.0405089556723022	2.98538261891792e-94
0.04091404522902522	2.98538261891792e-94
0.041323185681315475	2.98538261891792e-94
0.04173641753812863	2.98538261891792e-94
0.04215378171350991	2.98538261891792e-94
0.042575319530645014	2.98538261891792e-94
0.04300107272595147	2.98538261891792e-94
0.043431083453210985	2.98538261891792e-94
0.04386539428774309	2.98538261891792e-94
0.04430404823062052	2.98538261891792e-94
0.04474708871292673	2.98538261891792e-94
0.045194559600056	2.98538261891792e-94
0.04564650519605655	2.98538261891792e-94
0.04610297024801712	2.98538261891792e-94
0.046563999950497294	2.98538261891792e-94
0.04702963995000226	2.98538261891792e-94
0.04749993634950229	2.98538261891792e-94
0.04797493571299731	2.98538261891792e-94
0.04845468507012728	2.98538261891792e-94
0.04893923192082856	2.98538261891792e-94
0.04942862424003685	2.98538261891792e-94
0.04992291048243721	2.98538261891792e-94
0.050422139587261584	2.98538261891792e-94
0.0509263609831342	2.985392959953681e-94
0.051435624592965544	2.9908618386781013e-94
0.0519499808388952	3.0533485906318575e-94
0.05246948064728415	4.146275990576413e-94
0.052994175453756995	1.3894870507164934e-93
0.053524117208294565	1.9172788301534798e-93
0.05405935838037751	6.777078020778384e-92
0.05459995196418129	6.212897249227189e-91
0.0551459514838231	4.924941660042755e-90
0.05569741099866134	3.440786946028658e-89
0.05625438510864795	2.3312392130174516e-88
0.056816928959734427	1.4202927138931145e-87
0.05738509824933177	1.800586947433755e-71
0.05795894923182509	9.580293461931354e-70
0.05853853872414334	4.0629735491614647e-72
0.05912392411138478	1.6523094236401312e-67
0.05971516335249862	1.6287609166367602e-66
0.06031231498602361	9.90337371109011e-66
0.06091543813588385	2.804358037952473e-65
0.06152459251724268	6.3575297043894746e-65
0.062139838442415114	1.5142626728284322e-64
0.06276123682683926	3.264480941321268e-64
0.06338884919510765	7.712780653284563e-64
0.06402273768705874	1.7503065788449548e-63
0.06466296506392932	2.6267367615040686e-63
0.06530959471456863	9.204781439345289e-63
0.06596269066171431	2.135984680528436e-62
0.06662231756833144	5.006876250385316e-62
0.06728854074401477	1.1911891767060183e-61
0.06796142615145492	2.8342142114152626e-61
0.06864104041296946	6.828768983872958e-61
0.06932745081709915	1.6531881539192723e-60
0.07002072532527015	3.832364151849292e-60
0.07072093257852285	7.716782623063725e-60
0.07142814190430807	2.4202271457358405e-59
0.07214242332335115	6.070585448296202e-59
0.07286384755658468	1.513794136593959e-58
0.07359248603215052	2.023780961715055e-58
0.07432841089247202	9.061533239494672e-58
0.07507169500139675	2.333064283235998e-57
0.07582241195141072	5.605947141844406e-57
0.07658063607092483	1.4181626355140805e-56
0.07734644243163408	3.500094760102905e-56
0.07811990685595041	1.4562051600891554e-47
0.07890110592450993	1.0362609078824207e-42
0.07969011698375501	3.8008771253805275e-42
0.08048701815359258	1.287730445138226e-41
0.08129188833512849	3.4915428713157917e-41
0.08210480721847978	9.971172859487384e-41
0.08292585529066457	2.998957381884193e-40
0.08375511384357122	7.989566211150773e-40
0.08459266498200693	1.991457937277281e-42
0.08543859163182702	1.776751970512507e-52
0.08629297754814527	1.4230499925862468e-54
0.08715590732362674	1.6169530078170059e-52
0.08802746639686301	8.178430696171005e-55
0.08890774106083163	7.875294227948725e-51
0.08979681847143996	3.947142531639405e-52
0.09069478665615435	2.170615472716674e-53
0.09160173452271589	5.714935199619492e-53
0.09251775186794305	1.7641091068161988e-51
0.09344292938662248	1.7979798360538746e-50
0.09437735868048872	1.001598348579305e-47
0.09532113226729359	2.4631364480518015e-52
0.09627434358996653	2.7233328992395813e-50
0.0972370870258662	1.487784647294602e-49
0.09820945789612487	2.620437666371114e-50
0.09919155247508611	1.5097688625141822e-51
0.10018346799983698	1.021911190545432e-42
0.10118530267983535	1.0255073103095344e-51
0.1021971557066337	3.3014109054407805e-47
0.10321912726370003	3.7280568600532894e-45
0.10425131853633704	3.448147032531564e-44
0.10529383172170041	1.3052360852977454e-44
0.10634677003891742	6.799189304584388e-43
0.1074102377393066	3.547760416748999e-37
0.10848434011669966	3.664175691682481e-37
0.10956918351786665	7.771805405982232e-36
0.11066487535304532	6.267716047702077e-36
