#wavelength	surface flux
0.7	83.27904375538364
0.7001166666666666	83.65324029708603
0.7002333527777778	84.00349440221987
0.700350058336574	84.29381986681514
0.7004667833462966	84.61247210024928
0.7005835278101878	84.95232799646922
0.7007002917314895	85.26569028039953
0.7008170751134447	85.57485993833704
0.7009338779592968	85.88476188113682
0.7010507002722901	86.19624947694622
0.7011675420556689	86.509789929138
0.701284403312678	86.82244212317025
0.7014012840465635	87.13450990985535
0.7015181842605713	87.42188901494174
0.701635103957948	87.70161641218108
0.701752043141941	87.96344220336842
0.701869001815798	88.29220280373119
0.7019859799827672	88.66751588791934
0.7021029776460976	88.95658620215279
0.7022199948090387	89.24188783701354
0.7023370314748403	89.5657482357972
0.7024540876467528	89.91515421896001
0.702571163328027	90.29430056466435
0.7026882585219152	90.63578327601931
0.7028053732316688	90.96376815314818
0.7029225074605406	91.26630297051383
0.7030396612117841	91.55087869999902
0.7031568344886527	91.80030789396085
0.7032740272944008	92.14729843342221
0.7033912396322832	92.55122032035743
0.7035084715055552	92.92251875307927
0.7036257229174727	93.27417155065962
0.7037429938712924	93.56514456017216
0.7038602843702709	93.89726766041868
0.7039775944176659	94.26831909808472
0.7040949240167356	94.6056005098067
0.7042122731707383	94.93750947548824
0.7043296418829335	95.29137966157165
0.7044470301565806	95.63217333558009
0.70456443799494	95.95336955958697
0.7046818654012724	96.30288467835244
0.7047993123788394	96.66473845700925
0.7049167789309024	96.97589519703163
0.7050342650607243	97.31043767514508
0.7051517707715678	97.70244350216365
0.7052692960666963	98.07229299884459
0.705386840949374	98.42673554828984
0.7055044054228656	98.76981731108215
0.7056219894904361	99.11666182883731
0.7057395931553511	99.48593531820717
0.705857216420877	99.85342050976331
0.7059748592902804	100.21901363152065
0.7060925217668288	100.57873180081909
0.70621020385379	100.93761302129745
0.7063279055544321	101.30410028076997
0.7064456268720246	101.66692917102372
0.7065633678098366	102.02394049649303
0.7066811283711383	102.37112425149711
0.7067989085592001	102.71390078045933
0.7069167083772933	103.07555788864455
0.7070345278286895	103.41612153958806
0.707152366916661	103.70527941849541
0.7072702256444803	103.94680032253956
0.7073881040154211	104.15601189956976
0.7075060020327569	104.68339966192812
0.7076239196997625	105.22062002898171
0.7077418570197124	105.65587994855625
0.7078598139958823	106.06156175364784
0.7079777906315483	106.4384840573098
0.7080957869299869	106.81225301121083
0.7082138028944751	107.18957487263728
0.7083318385282908	107.59895048722892
0.7084498938347124	107.99606807621578
0.708567968817018	108.37640977654854
0.7086860634784875	108.68933114347205
0.7088041778224007	108.97276484532698
0.7089223118520377	109.13569876502804
0.7090404655706796	109.46752881345073
0.709158638981608	110.12367264304456
0.709276832088105	110.58007504420365
0.7093950448934531	110.9289499069497
0.7095132774009353	110.88581062985205
0.7096315296138355	111.0648750510028
0.7097498015354378	111.9024533133709
0.7098680931690269	112.48327943577577
0.7099864045178884	112.874789530542
0.7101047355853081	113.32264343771133
0.7102230863745722	113.77430311384977
0.7103414568889679	114.21128162467302
0.7104598471317828	114.64169923730103
0.7105782571063047	115.0656983203027
0.7106966868158224	115.40966539469206
0.710815136263625	115.75340029249568
0.7109336054530023	116.2182087085409
0.7110520943872445	116.67788634246897
0.7111706030696424	117.13100154311076
0.7112891315034873	117.57094248766646
0.7114076796920712	118.00604766294055
0.7115262476386865	118.43345160278979
0.7116448353466263	118.84818336196429
0.711763442819184	119.24201833926959
0.711882070059654	119.66599868308943
0.7120007170713306	120.10330555335241
0.7121193838575091	120.51682719295744
0.7122380704214853	120.93746603047077
0.7123567767665555	121.3731025647683
0.7124755028960166	121.75974367206653
0.7125942488131658	122.11835450211957
0.7127130145213015	122.50654830709496
0.7128318000237216	122.91266106709271
0.7129506053237256	123.36357698076675
0.7130694304246129	123.8083785819122
0.7131882753296837	124.24885023033556
0.7133071400422386	124.68429841486963
0.7134260245655789	125.03440370676692
0.7135449289030065	125.08173089615221
0.7136638530578235	125.55101644046023
0.7137827970333332	126.38435882071212
0.7139017608328388	126.87834183105487
0.7140207444596443	127.32169069621052
0.7141397479170543	127.79678275372918
0.7142587712083737	128.2102228622964
0.7143778143369084	128.56043474225467
0.7144968773059646	129.14111358455852
0.7146159601188489	129.75143970873336
0.7147350627788687	130.2117880744112
0.7148541852893318	130.66970067758564
0.7149733276535467	131.12467806017395
0.7150924898748222	131.49965722922684
0.715211671956468	131.87285607283684
0.7153308739017941	132.4419095360605
0.715450095714111	132.98569466814166
0.71556933739673	133.4945664500998
0.7156885989529628	133.93557517507523
0.7158078803861218	134.35788238213377
0.7159271816995193	134.84734191728234
0.7160465028964692	135.20442886859647
0.7161658439802853	135.35413246308497
0.7162852049542819	135.30143517628056
0.7164045858217744	135.18789593011545
0.716523986586078	135.5832496417846
0.7166434072505089	135.18591246000827
0.716762847818384	133.40002689294192
0.7168823082930204	134.47821847648265
0.7170017886777359	136.8352715990139
0.7171212889758488	138.24174801301683
0.7172408091906781	139.10491045149502
0.7173603493255433	138.91966910348106
0.7174799093837642	138.84291159696141
0.7175994893686615	138.8199947819485
0.7177190892835562	139.78701761093293
0.7178387091317702	140.91624377239484
0.7179583489166254	142.37554354852196
0.7180780086414448	143.05831043808317
0.7181976883095517	143.32637863597878
0.7183173879242699	144.18287411894582
0.718437107488924	144.8958252795477
0.7185568470068389	145.26314834582467
0.7186766064813399	145.21886510245358
0.7187963859157535	144.94264048831192
0.7189161853134061	146.27778716164198
0.719036004677625	147.46400357783514
0.7191558440117378	148.1864253336999
0.7192757033190732	148.75668335721795
0.7193955826029597	149.23819781914028
0.7195154818667269	149.67517504794543
0.7196354011137046	150.15232037591733
0.7197553403472235	150.72936235626062
0.7198752995706147	151.3178489889203
0.7199952787872098	151.91316552840425
0.720115278000341	152.3660896751152
0.7202352972133411	152.8016618844622
0.7203553364295432	153.20948150691413
0.7204753956522815	153.64351000038133
0.7205954748848902	154.09309900044897
0.7207155741307044	154.70403748865186
0.7208356933930594	155.35282822384252
0.7209558326752915	156.0760927786126
0.7210759919807375	156.61641240383645
0.7211961713127342	157.0504048035067
0.7213163706746197	157.21892974581846
0.7214365900697322	157.56652312244026
0.7215568295014103	158.34342716635248
0.721677088972994	159.08872638990593
0.7217973684878227	159.8163753802955
0.7219176680492374	159.99279090562
0.7220379876605789	160.38459162389645
0.722158327325189	161.27001642640255
0.7222786870464099	162.0861198856874
0.7223990668275843	162.86556248028725
0.7225194666720555	163.44296013476762
0.7226398865831676	164.0056495572234
0.7227603265642646	164.5417263018247
0.722880786618692	164.84607810716034
0.7230012667497951	165.04245577781526
0.7231217669609201	165.78814445643502
0.7232422872554135	166.43492735336224
0.7233628276366229	166.89857810999447
0.7234833881078956	167.50823315382883
0.7236039686725803	168.1483682043294
0.7237245693340255	167.7693429069677
0.7238451900955812	167.98175121330195
0.7239658309605971	169.18167749259314
0.7240864919324239	170.26554765900693
0.7242071730144127	171.27911388918665
0.724327874209915	171.9043065372418
0.7244485955222832	172.55436206800297
0.7245693369548704	173.2412790654954
0.7246900985110294	173.87453288904803
0.7248108801941148	174.4983547237157
0.7249316820074803	175.21085695610813
0.7250525039544815	175.8616482915173
0.7251733460384739	176.43208212648582
0.7252942082628137	176.9498577006197
0.7254150906308574	177.4465444688341
0.7255359931459625	177.89951029511872
0.7256569158114868	178.4217732103653
0.7257778586307888	179.02198193718806
0.7258988216072273	179.59326654707795
0.7260198047441617	180.19307427467857
0.7261408080449525	180.97147197573696
0.72626183151296	181.46965850931534
0.7263828751515454	181.6995100645246
0.7265039389640706	182.67311476935964
0.726625022953898	183.638475801512
0.7267461271243904	184.10116997298272
0.7268672514789111	184.5627297492905
0.7269883960208241	185.02339579027702
0.7271095607534942	185.9706716613963
0.7272307456802866	186.91098847053289
0.7273519508045666	187.67889497864815
0.7274731761297006	188.29090077403384
0.7275944216590555	188.8005393238971
0.7277156873959987	189.21445803268068
0.7278369733438982	189.39508093230987
0.727958279506122	189.05402697462284
0.7280796058860397	190.1073722477511
0.7282009524870207	191.88574804510682
0.7283223193124353	192.89519947296992
0.7284437063656539	193.79522460733145
0.7285651136500483	194.50058149383622
0.7286865411689898	195.07117346311827
0.7288079889258514	195.55411647673805
0.7289294569240056	195.56326247186513
0.7290509451668262	195.94063214337743
0.7291724536576875	196.8280218682363
0.7292939823999636	197.72681809193568
0.7294155313970303	198.63014009073066
0.7295371006522632	199.54095537114762
0.7296586901690385	200.29488449753657
0.7297802999507332	200.8806107245353
0.7299019300007252	201.24767714970946
0.7300235803223919	201.50732599123737
0.7301452509191123	201.4958393373738
0.7302669417942654	201.73049547724398
0.7303886529512311	202.16653642863866
0.7305103843933897	201.0829860402756
0.7306321361241218	201.030445480714
0.7307539081468093	204.2897494618173
0.7308757004648336	206.24302027310068
0.7309975130815778	207.4009469564365
0.7311193460004248	208.27040490693602
0.7312411992247582	209.1529272708623
0.7313630727579622	210.07267234511724
0.7314849666034219	210.7723740951377
0.7316068807645224	211.3519393846722
0.7317288152446498	211.52130854816852
0.7318507700471907	211.89358775555272
0.7319727451755319	212.5504373018571
0.732094740633061	213.80485635219776
0.7322167564231665	215.08368184735673
0.7323387925492371	215.43470647930684
0.7324608490146619	216.17973322588796
0.732582925822831	217.32121435522816
0.7327050229771347	218.25629370756596
0.7328271404809642	219.10438190721501
0.7329492783377112	219.76516814607484
0.7330714365507675	220.5510375779377
0.7331936151235259	221.42578664470844
0.7333158140593796	222.09665670478665
0.7334380333617229	222.76884502817933
0.7335602730339499	223.46872169483802
0.7336825330794556	224.32728092972604
0.7338048135016354	225.25055014857267
0.7339271143038857	225.8866726792997
0.734049435489603	226.23045090906345
0.7341717770621846	226.14303758951314
0.7342941390250283	227.24725323713554
0.7344165213815324	228.62284352888756
0.734538924135096	229.44672784390704
0.7346613472891185	230.34193450559212
0.734783790847	231.3081722624729
0.7349062548121412	231.5005392273247
0.7350287391879431	231.08327408704213
0.7351512439778078	229.06221860063744
0.7352737691851374	230.45506291088762
0.735396314813335	234.10507552214005
0.7355188808658037	235.38550239624766
0.7356414673459482	236.57131186928666
0.7357640742571725	237.7155566804695
0.7358867016028818	238.50418137681507
0.7360093493864824	239.14298025316992
0.7361320176113801	239.75160136281298
0.736254706280982	240.26036404096533
0.7363774153986956	240.6449727037679
0.7365001449679286	240.35326988856863
0.7366228949920899	240.11559900148063
0.7367456654745885	240.77929258959054
0.7368684564188344	242.63170266638053
0.7369912678282374	245.4279867542743
0.7371140997062088	246.76437197378866
0.7372369520561599	247.8546774203242
0.7373598248815024	248.63240026314153
0.7374827181856494	249.43053081814315
0.7376056319720137	250.23832342644386
0.7377285662440091	251.03955645064852
0.7378515210050496	251.64664935907544
0.7379744962585505	251.98443857730635
0.738097492007927	253.10027568979538
0.7382205082565949	254.3102545389757
0.738343545007971	254.9725245667685
0.7384666022654723	255.8778510878636
0.7385896800325165	256.9892945671831
0.7387127783125219	258.00573305036374
0.7388358971089073	258.96800917784856
0.7389590364250921	259.81958170334167
0.7390821962644963	260.70933874701376
0.7392053766305403	261.61889882684096
0.7393285775266454	262.54378736456397
0.7394517989562333	263.4597742243261
0.7395750409227259	264.363425132187
0.7396983034295463	265.25430711034306
0.739821586480118	266.1351155015904
0.7399448900778645	266.9833640589019
0.7400682142262109	267.8833562018507
0.740191558928582	268.8251944521598
0.7403149241884034	269.41850992545847
0.7404383100091014	270.0391497835679
0.7405617163941028	270.7772554071454
0.7406851433468352	271.7381810428329
0.7408085908707264	272.7123089256
0.7409320589692048	272.5218121693736
0.7410555476456997	273.33137478555
0.7411790569036406	275.36450034975223
0.7413025867464579	276.4396491467098
0.7414261371775823	277.4064793407113
0.7415497082004452	278.6984262444597
0.7416732998184786	279.7531189255228
0.741796912035115	280.6450298046776
0.7419205448537874	281.0433582297999
0.7420441982779297	281.7128548131527
0.742167872310976	282.8926477153422
0.7422915669563612	284.2723731602855
0.7424152822175206	285.6533647868194
0.7425390180978901	286.5445275045907
0.7426627746009065	287.1784674844579
0.7427865517300065	287.56245011947954
0.7429103494886282	288.993356982264
0.7430341678802096	290.44336650157925
0.7431580069081896	291.6082614299876
0.7432818665760077	292.6494333174238
0.7434057468871037	293.62224601703446
0.7435296478449182	294.4932589511658
0.7436535694528923	295.37880308654843
0.7437775117144678	296.28339097472735
0.7439014746330868	296.8552098049743
0.7440254582121922	297.53113530874066
0.7441494624552276	298.8954028194954
0.7442734873656368	299.7801329706202
0.7443975329468645	300.3350195270728
0.7445215992023557	301.2454939320533
0.7446456861355559	302.4198907941064
0.7447697937499119	304.03482774389556
0.7448939220488703	305.2923224255228
0.7450180710358784	306.44219814609363
0.7451422407143843	307.634737293685
0.7452664310878367	308.752934641738
0.7453906421596846	309.8064973967905
0.7455148739333779	310.83701032583684
0.7456391264123667	311.87130867844826
0.7457633996001021	312.9177605750258
0.7458876935000356	313.91029671597494
0.7460120081156189	314.88400798205384
0.7461363434503048	315.8914527854649
0.7462606995075466	316.9286159067922
0.7463850762907978	317.99694704428435
0.7465094738035127	318.96738879792474
0.7466338920491467	320.00227955229883
0.746758331031155	321.2448037861065
0.7468827907529935	322.3031875849647
0.7470072712181189	323.28662049824607
0.7471317724299886	324.55511681418164
0.7472562943920602	325.7263185197603
0.7473808371077922	326.779520561689
0.7475054005806435	327.51473077429466
0.7476299848140736	328.3749471297162
0.7477545898115426	329.8119291524116
0.7478792155765113	331.07535128620003
0.7480038621124406	332.22381016314284
0.7481285294227926	332.8867841946474
0.7482532175110298	333.902448201806
0.7483779263806148	335.39187106801893
0.7485026560350116	336.5226072878535
0.7486274064776842	337.5932919328354
0.748752177712097	338.72437911718004
0.7488769697417158	340.00651891949684
0.749001782570006	341.380224192919
0.7491266162004343	342.5886491164484
0.7492514706364677	343.7597520598173
0.7493763458815739	344.877542641013
0.7495012419392209	346.02723432080643
0.7496261588128773	347.1730785632403
0.7497510965060128	348.27587863903955
0.7498760550220971	349.43670574689907
0.7500010343646007	350.6342280376773
0.7501260345369949	351.7483238617359
0.750251055542751	352.89410461658946
0.7503760973853414	354.08571770228906
0.7505011600682389	355.2407360022907
0.750626243594917	356.3662441728611
0.7507513479688495	357.4128074203036
0.7508764731935109	358.65675924639874
0.7510016192723765	360.02466035698114
0.7511267862089218	361.25956978972295
0.7512519740066232	362.4725840571917
0.7513771826689577	363.6546624965137
0.7515024121994025	364.9140259790643
0.7516276626014359	366.17257437451366
0.751752933878536	367.3671055798319
0.7518782260341824	368.4806617908122
0.7520035390718548	369.5531600041043
0.7521288729950334	370.88753680151206
0.7522542278071992	372.1842344218269
0.7523796035118337	373.43142690227893
0.7525050001124189	374.6851923923993
0.7526304176124378	375.8919462887193
0.7527558560153731	376.9475351868055
0.752881315324709	378.2730767179141
0.7530067955439299	379.73708978596216
0.7531322966765205	381.0576100985331
0.7532578187259665	382.35604638745184
0.7533833616957542	383.62857754391695
0.75350892558937	384.9071695996836
0.7536345104103016	386.1840938334534
0.7537601161620366	387.45390772264267
0.7538857428480638	388.691784718236
0.7540113904718717	389.9202631028299
0.7541370590369503	391.2026374063347
0.7542627485467898	392.42524332967383
0.7543884590048808	393.5878769507011
0.7545141904147151	395.05733152401
0.7546399427797842	396.4944810711288
0.7547657161035808	397.7953322271241
0.754891510389598	399.12791219042896
0.7550173256413296	400.4670555069226
0.7551431618622698	401.77218608726764
0.7552690190559135	403.09423868807454
0.7553948972257561	404.4302703071519
0.7555207963752938	405.78166174816323
0.755646716508023	407.1365944911365
0.755772657627441	408.4962916247043
0.7558986197370455	409.85481966802394
0.756024602840335	411.20815761637914
0.7561506069408084	412.5409927765092
0.7562766320419653	413.89839536723935
0.7564026781473054	415.2720640449225
0.75652874526033	416.66188056236405
0.7566548333845401	418.0512568185548
0.7567809425234375	419.4399913765824
0.7569070726805247	420.806254696061
0.7570332238593047	422.1770914896761
0.7571593960632813	423.5716197304663
0.7572855892959586	424.94193068241617
0.7574118035608413	426.29995256818074
0.7575380388614347	427.6493160742792
0.7576642952012449	429.06945000966897
0.7577905725837782	430.55781653609444
0.7579168710125422	431.94879523695573
0.7580431904910444	433.3609499779914
0.7581695310227928	434.82882191380094
0.7582958926112967	436.2642056757062
0.7584222752600652	437.69524932814454
0.7585486789726085	439.15375056636196
0.7586751037524372	440.6171746927163
0.7588015496030628	442.08357440564936
0.7589280165279966	443.5125947444387
0.7590545045307512	444.94518491674717
0.7591810136148396	446.3824146749166
0.7593075437837755	447.856568263134
0.7594340950410726	449.3297755276659
0.7595606673902461	450.7824271944747
0.7596872608348112	452.24038856680284
0.7598138753782836	453.70684889893516
0.75994051102418	455.22207991674475
0.7600671677760173	456.7415736236126
0.7601938456373134	458.2648728707785
0.7603205446115863	459.75142323960887
0.7604472647023548	461.23537114103254
0.7605740059131385	462.7179510109719
0.7607007682474575	464.21484612742927
0.7608275517088319	465.7254827454477
0.7609543563007835	467.2718980443738
0.7610811820268336	468.7995278545557
0.7612080288905045	470.31588913559347
0.7613348968953197	471.82044741110604
0.7614617860448022	473.31007852074043
0.7615886963424764	474.7839624655583
0.7617156277918667	476.31006474424885
0.7618425803964988	477.8603919071886
0.7619695541598982	479.44841165377636
0.7620965490855914	481.02168964359873
0.7622235651771058	482.5953968846886
0.7623506024379685	484.19088078237087
0.7624776608717082	485.7428296622806
0.7626047404818536	487.2685625044469
0.7627318412719337	488.8304355254345
0.762858963245479	490.4011478370594
0.7629861064060198	491.98204048097097
0.7631132707570876	493.5608062546434
0.7632404563022137	495.12915700470774
0.7633676630449308	496.6755025257794
0.7634948909887717	498.24175355967594
0.7636221401372697	499.8042325700276
0.7637494104939593	501.3160246148412
0.7638767020623748	502.86781531846447
0.7640040148460518	504.4427074447542
0.7641313488485262	505.91413993552896
0.7642587040733344	507.3370964820569
0.7643860805240132	508.70330397589674
0.7645134782041005	510.26434097081824
0.7646408971171346	511.77634771847244
0.764768337266654	513.1337937618317
0.7648957986561985	514.492437512501
0.7650232812893079	515.8603453824423
0.7651507851695227	517.2675008469778
