#wavelength	surface flux
0.8	36347.81821734228
0.8002000000000001	36426.3220740344
0.8004000500000003	36520.43657997647
0.8006001500125003	36707.352023029074
0.8008003000500035	36799.82155807867
0.8010005001250161	36916.45549890702
0.8012007502500472	37047.45583973482
0.8014010504376099	37168.059619476655
0.8016014007002193	37297.71542862831
0.8018018010503944	37405.33755255584
0.8020022515006572	37574.48606812838
0.8022027520635323	37719.84070888467
0.8024033027515483	37862.62210123266
0.8026039035772362	37974.33008434361
0.8028045545531306	38097.984291111105
0.8030052556917691	38225.96332036894
0.803206007005692	38387.16069926386
0.8034068085074435	38528.678977006806
0.8036076602095705	38650.73677632185
0.8038085621246229	38795.60133537029
0.8040095142651542	38922.620983087225
0.8042105166437206	39054.70030731665
0.8044115692728815	39177.09095882526
0.8046126721651998	39267.608108609485
0.8048138253332411	39397.94372080304
0.8050150287895745	39535.84469497247
0.805216282546772	39688.1187187017
0.8054175866174087	39823.98934980199
0.8056189410140631	39958.14527414071
0.8058203457493168	40092.6432112521
0.8060218008357541	40241.823167380186
0.8062233062859632	40360.774260910264
0.8064248621125346	40520.38921470066
0.806626468328063	40670.27342184995
0.8068281249451449	40796.01643443705
0.8070298319763813	40942.72428168149
0.8072315894343755	41069.10948404305
0.8074333973317341	41179.79302720851
0.8076352556810671	41360.51793327624
0.8078371644949874	41518.26274432364
0.8080391237861113	41658.27805952976
0.8082411335670578	41798.10841810883
0.8084431938504498	41937.35763661908
0.8086453046489125	42083.46280386431
0.8088474659750746	42210.100452007886
0.8090496778415686	42347.335144445504
0.809251940261029	42477.2454209068
0.8094542532460944	42537.087941945836
0.8096566168094059	42676.05779406376
0.8098590309636085	42921.10648589561
0.8100614957213493	43071.13389137705
0.8102640110952797	43194.50189810921
0.8104665770980536	43363.6254178121
0.8106691937423283	43466.68305760166
0.8108718610407639	43309.08599322036
0.8110745790060241	43302.15653792157
0.8112773476507757	43804.90936763597
0.8114801669876885	43899.270455258185
0.8116830370294355	44004.900418139056
0.8118859577886929	44348.598203886555
0.8120889292781401	44544.91882262785
0.8122919515104597	44703.75470260496
0.8124950244983374	44866.11935819085
0.8126981482544621	45008.79241527725
0.8129013227915257	45152.82985083807
0.8131045481222237	45306.43841624649
0.8133078242592543	45414.929978442255
0.8135111512153191	45404.79886027188
0.813714529003123	45598.47095231937
0.8139179576353739	45879.70791915282
0.8141214371247829	45994.40220627027
0.8143249674840641	46004.988425752876
0.814528548725935	45823.64448735593
0.8147321808631167	46178.97472697227
0.8149358639083326	46585.059467096034
0.8151395978743097	46600.92831690918
0.8153433827737784	46871.392895082216
0.8155472186194719	47140.88442133732
0.8157511054241268	47310.89084942913
0.815955043200483	47454.452807420406
0.8161590319612831	47628.78113484133
0.8163630717192736	47768.830664776375
0.8165671624872033	47940.72426980689
0.8167713042778252	48123.06665591425
0.8169754971038948	48287.28662095193
0.8171797409781707	48420.735020280714
0.8173840359134155	48595.54586804812
0.8175883819223938	48760.241740247235
0.8177927790178745	48920.22754195478
0.8179972272126291	49032.920745896015
0.8182017265194322	48997.32484404917
0.8184062769510622	48499.803597369224
0.8186108785203001	49338.037698026485
0.8188155312399301	49727.59202046864
0.8190202351227402	49875.434309705764
0.819224990181521	50078.72009324086
0.8194297964290664	50223.63768071078
0.8196346538781738	50321.96739289188
0.8198395625416434	50490.871534640944
0.8200445224322789	50645.638714356675
0.820249533562887	50893.43461698833
0.8204545959462778	51065.48043435494
0.8206597095952644	51235.72881811908
0.8208648745226633	51403.48081698615
0.8210700907412941	51561.507707188255
0.8212753582639793	51744.959612853236
0.8214806771035456	51916.58017642422
0.8216860472728215	52090.14248144811
0.8218914687846397	52277.300693843536
0.822096941651836	52448.10430210178
0.822302465887249	52616.76812204372
0.8225080415037209	52790.64958167691
0.8227136685140968	52806.53602959575
0.8229193469312254	52294.806774622826
0.8231250767679583	52529.24702515105
0.8233308580371503	53166.10864422325
0.8235366907516598	53317.388473783816
0.8237425749243477	53406.4875452599
0.8239485105680789	53837.579762238194
0.824154497695721	54176.07628662863
0.824360536320145	54371.04992709659
0.8245666264542252	54557.74286716143
0.8247727681108388	54732.52406399286
0.8249789613028664	54851.609682176386
0.8251852060431922	55067.155970525666
0.825391502344703	55283.95637916796
0.8255978502202894	55473.47080736871
0.8258042496828445	55655.901984129596
0.8260107007452654	55820.26513388381
0.8262172034204517	55941.69724284419
0.8264237577213068	55848.77339096298
0.8266303636607373	55575.13817908514
0.8268370212516525	56400.82176570268
0.8270437305069654	56759.55725349184
0.8272504914395923	56931.596518874365
0.8274573040624523	57114.67992138073
0.8276641683884679	57287.218405397354
0.8278710844305652	57456.73765087073
0.8280780522016729	57670.880377557434
0.8282850717147234	57858.89428167967
0.8284921429826521	58051.72231982461
0.8286992660183978	58213.54810348162
0.8289064408349024	58313.32975983102
0.8291136674451112	58494.00668729945
0.8293209458619727	58771.041701873444
0.8295282760984382	58985.40002704341
0.829735658167463	59122.74454392202
0.8299430920820048	59321.60975566016
0.8301505778550254	59568.406809056585
0.8303581154994891	59789.821254523435
0.8305657050283641	59972.95203256687
0.8307733464546212	60148.41220958473
0.8309810397912352	60265.03848336534
0.8311887850511829	60433.11147001745
0.8313965822474458	60315.23980292899
0.8316044313930077	60554.276011729366
0.8318123325008561	61082.890465571516
0.8320202855839813	61365.53409379724
0.8322282906553774	61566.19166232857
0.8324363477280413	61748.69329835792
0.8326444568149735	61940.18188413496
0.8328526179291771	62152.905657697826
0.8330608310836596	62339.252916316276
0.8332690962914304	62505.70008027578
0.8334774135655034	62732.175496924865
0.833685782918895	62958.21809663142
0.8338942043646247	63147.52659256552
0.834102677915716	63353.486169119446
0.834311203585195	63561.77457323819
0.8345197813860912	63764.40140718928
0.8347284113314379	63987.906662157744
0.8349370934342709	64198.62545420502
0.8351458277076294	64406.68537662667
0.8353546141645565	64611.4165426885
0.8355634528180977	64782.598478231936
0.8357723436813022	64998.16912305378
0.8359812867672226	65193.306475110905
0.8361902820889144	65391.293198195126
0.8363993296594368	65619.16040950813
0.8366084294918518	65799.86601185409
0.8368175815992247	66080.62108345333
0.8370267859946247	66285.12312599955
0.8372360426911234	66456.71919438262
0.8374453517017962	66694.40502669009
0.8376547130397217	66884.97963924853
0.8378641267179816	67145.08717235294
0.8380735927496613	67387.95650825633
0.8382831111478488	67532.49688379825
0.8384926819256358	67590.32770971321
0.8387023050961173	67835.01634689729
0.8389119806723914	68182.36059816305
0.8391217086675596	68450.00874355939
0.8393314890947265	68702.55516630383
0.8395413219670003	68919.06293161676
0.8397512072974922	69124.63737583894
0.8399611450993165	69285.73584542586
0.8401711353855914	69271.5478975778
0.8403811781694378	69611.26809699705
0.8405912734639802	69985.0240390029
0.8408014212823464	70214.25455699806
0.8410116216376671	70462.82967917333
0.8412218745430766	70677.74721423487
0.8414321800117124	70933.99467930172
0.8416425380567154	71166.22988959476
0.8418529486912297	71386.42287395199
0.8420634119284025	71608.10192430216
0.8422739277813847	71841.82535445411
0.8424844962633302	72071.05506514972
0.842695117387396	72270.46534011484
0.8429057911667428	72463.47018281718
0.8431165176145345	72721.50265525388
0.8433272967439382	72995.44166752337
0.8435381285681244	73227.35314304644
0.8437490131002665	73460.87596567631
0.8439599503535415	73675.05194252383
0.84417094034113	73803.73420878017
0.8443819830762154	74076.09612928386
0.8445930785719846	74172.53267951241
0.8448042268416277	74580.22032156079
0.8450154278983382	74879.52319670942
0.8452266817553128	75106.89993426151
0.8454379884257517	75326.78178481378
0.8456493479228583	75555.68697350823
0.845860760259839	75844.05719642153
0.846072225449904	76070.06967836396
0.8462837435062666	76124.35647231337
0.8464953144421433	75990.54469255904
0.8467069382707537	76354.71448434856
0.8469186150053215	76968.60407457904
0.847130344659073	77279.48116641415
0.8473421272452377	77516.74938758806
0.8475539627770492	77707.39600733876
0.8477658512677435	78004.80808721425
0.8479777927305605	78255.22979919382
0.8481897871787432	78451.40762928293
0.848401834625538	78740.66372444112
0.8486139350841944	79032.61579796614
0.8488260885679657	79210.58397870012
0.8490382950901076	79331.28610069702
0.8492505546638802	79686.63881995699
0.8494628673025462	80005.20208155907
0.8496752330193721	80282.65939773881
0.8498876518276269	80546.58830675327
0.8501001237405839	80788.9386717927
0.8503126487715191	81030.4204969223
0.850525226933712	81287.84515855095
0.8507378582404455	81554.69173666947
0.8509505427050057	81812.72682455591
0.8511632803406821	82077.22844071052
0.8513760711607672	82331.87922554446
0.8515889151785576	82587.39910331422
0.8518018124073523	82840.94691796569
0.8520147628604541	83088.63566806371
0.8522277665511693	83302.48100974885
0.8524408234928071	83627.03457533655
0.8526539336986805	83905.26243974232
0.8528670971821053	84154.9758860117
0.8530803139564007	84316.50205927144
0.8532935840348901	84467.262398204
0.8535069074308987	84736.25244975256
0.8537202841577566	85039.23952052445
0.8539337142287962	85289.34713479718
0.8541471976573534	85441.87265532148
0.8543607344567677	85809.7370058839
0.8545743246403821	86173.86231932633
0.8547879682215422	86458.1749026587
0.8550016652135977	86721.84279734797
0.8552154156299011	87004.66467620432
0.8554292194838088	87299.88762991937
0.8556430767886797	87573.62600886461
0.855856987557877	87878.73849351212
0.8560709518047664	88173.92011451184
0.8562849695427177	88443.02738413609
0.8564990407851035	88709.54638017481
0.8567131655452999	89002.22554663842
0.8569273438366862	89304.01615011512
0.8571415756726455	89576.30755990668
0.8573558610665638	89809.84927661072
0.8575702000318304	90115.5844809743
0.8577845925818384	90416.6278753383
0.857999038729984	90728.26545347007
0.8582135384896665	90950.16632871536
0.858428091874289	91052.08415912207
0.8586426988972576	91309.04935607228
0.8588573595719821	91622.63477618402
0.8590720739118751	91937.75498155209
0.8592868419303532	92241.2812036935
0.8595016636408359	92539.68502342438
0.8597165390567462	92804.07784937497
0.8599314681915105	93064.68049495731
0.8601464510585584	93361.01693974742
0.860361487671323	93677.39432630014
0.8605765780432408	93995.65966860052
0.8607917221877518	94289.91875642836
0.8610069201182988	94593.83784578815
0.8612221718483286	94899.74968337349
0.8614374773912907	95187.65204454328
0.8616528367606385	95472.8942912337
0.8618682499698288	95608.09507125606
0.8620837170323213	95869.72607323682
0.8622992379615795	96258.13313603416
0.8625148127710699	96385.57251196154
0.8627304414742627	96670.34437721178
0.8629461240846313	97192.04011481769
0.8631618606156526	97383.28283875305
0.8633776510808066	97643.66631109078
0.8635934954935769	97958.8838852435
0.8638093938674504	98318.98109362193
0.8640253462159173	98473.45728157269
0.8642413525524714	98474.35056434179
0.8644574128906095	99186.56094307995
0.8646735272438323	99381.09753209987
0.8648896956256433	99500.49720030332
0.8651059180495498	100065.63810163527
0.8653221945290621	100458.33559753661
0.8655385250776946	100763.67721640601
0.8657549097089641	101152.59071723331
0.8659713484363913	101493.46693312678
0.8661878412735006	101857.34850337617
0.866404388233819	102151.20498345063
0.8666209893308775	102462.16881862927
0.8668376445782103	102846.20277855483
0.8670543539893549	103164.44359146497
0.8672711175778525	103321.81145108351
0.8674879353572469	103459.70315275287
0.8677048073410862	103838.24339991086
0.8679217335429217	104228.50593022209
0.8681387139763074	104573.41599797743
0.8683557486548015	104826.54315201
0.8685728375919655	105200.90643469813
0.8687899808013633	105610.17674438813
0.8690071782965637	105981.8443004114
0.869224430091138	106333.98236809835
0.8694417361986609	106656.58623109502
0.8696590966327107	106923.45371001409
0.869876511406869	107102.29668489688
0.8700939805347206	107367.01765933361
0.8703115040298544	107866.70548270187
0.870529081905862	108268.55672736974
0.8707467141763385	108645.6189554
0.8709644008548827	108960.96705069831
0.8711821419550964	109223.86347244852
0.8713999374905854	109527.45706800268
0.871617787474958	110007.5253905082
0.8718356919218269	110334.07345736558
0.8720536508448075	110601.73003670947
0.8722716642575187	110958.05793362373
0.8724897321735832	111374.42139158843
0.8727078546066265	111750.83948652896
0.8729260315702784	112114.96225388655
0.873144263078171	112464.93140331433
0.8733625491439405	112825.34997570414
0.8735808897812266	113163.16358279402
0.8737992850036719	113398.47512955691
0.874017734824923	113481.61281474595
0.8742362392586293	114103.40320168185
0.874454798318444	114442.0253614554
0.8746734120180236	114793.46921678152
0.8748920803710283	115190.79058797288
0.875110803391121	115551.34107487439
0.8753295810919689	115917.54812814105
0.875548413487242	116296.24997366709
0.8757673005906139	116670.27042264417
0.8759862424157616	117009.91235724035
0.8762052389763657	117350.49297018655
0.8764242902861098	117726.17626701346
0.8766433963586814	118071.34782201666
0.8768625572077712	118383.52112933902
0.8770817728470732	118671.97719297727
0.8773010432902849	119128.98778436637
0.8775203685511077	119563.69945707187
0.8777397486432454	119947.27899004145
0.8779591835804065	120304.81514192617
0.8781786733763015	120667.41871169313
0.8783982180446457	121042.51983229924
0.878617817599157	121390.66028230726
0.8788374720535569	121779.64664887045
0.8790571814215703	122103.08754651016
0.8792769457169257	122445.2178020854
0.879496764953355	122904.66698160696
0.8797166391445934	123305.71861080058
0.8799365683043796	123664.89284020636
0.8801565524464557	124015.36706950571
0.8803765915845676	124387.78003405455
0.8805966857324639	124780.04855919979
0.880816834903897	125134.27411759715
0.881037039112623	125493.19996611825
0.8812572983724012	125859.5362565803
0.8814776126969944	126159.89970031538
0.8816979821001687	126576.6872026854
0.8819184065956938	127034.55026189024
0.8821388861973429	127417.76929032087
0.8823594209188923	127759.70016560577
0.882580010774122	128183.01752060263
0.8828006557768155	128608.55816588832
0.8830213559407598	128993.09266686939
0.8832421112797452	129370.6712619669
0.8834629218075651	129545.51328756892
0.8836837875380171	129649.71063739817
0.8839047084849018	130251.88617430073
0.884125684662023	130919.99626028449
0.8843467160831886	131349.3283691457
0.8845678027622095	131751.2192962787
0.8847889447129001	132126.49713166384
0.8850101419490785	132522.007206775
0.8852313944845657	132895.60791830928
0.885452702333187	133335.3895823226
0.8856740655087704	133703.23047302885
0.8858954840251476	133921.08610649465
0.8861169578961539	134345.34707064801
0.886338487135628	134919.30624720405
0.886560071757412	135351.97260501003
0.8867817117753515	135765.95943477785
0.8870034072032955	136170.86989158834
0.8872251580550963	136552.9856418021
0.8874469643446101	136956.7557196723
0.8876688260856963	137360.60791777493
0.8878907432922178	137806.46066750682
0.8881127159780409	138208.56329408305
0.8883347441570356	138533.72323502754
0.8885568278430749	138861.81256873562
0.8887789670500358	139379.06076406004
0.8890011617917983	139843.41983712142
0.8892234120822464	140289.81929048078
0.8894457179352669	140723.72302133287
0.8896680793647509	141118.6629482971
0.8898904963845921	141432.54477598937
0.8901129690086883	141863.9779151555
0.8903354972509405	142382.94586044826
0.8905580811252535	142797.62654446164
0.8907807206455347	142734.10505684072
0.8910034158256963	141696.06597018152
0.8912261666796527	143043.3677371568
0.8914489732213227	144325.1584975485
0.8916718354646282	144475.87725540667
0.8918947534234944	144680.11510763416
0.8921177271118502	144905.37128647475
0.8923407565436284	144097.01038278823
0.8925638417327644	145507.73419457997
0.8927869826931977	146920.47738128187
0.8930101794388711	147419.901604181
0.8932334319837308	146965.1172990875
0.8934567403417267	146557.80373777775
0.8936801045268123	148407.83612420328
0.8939035245529441	149038.41827609285
0.8941270004340824	149352.6814327826
0.894350532184191	149211.97074514264
0.8945741198172371	149981.09032231552
0.8947977633471915	150993.98248555037
0.8950214627880284	151514.22253068173
0.8952452181537254	151810.92120928376
0.8954690294582639	152169.3878978563
0.8956928967156286	152798.14198100884
0.8959168199398075	153089.68631937398
0.8961407991447926	153388.22290641177
0.8963648343445789	153487.1657777769
0.896588925553165	152843.47556274044
0.8968130727845534	153947.93002735224
0.8970372760527496	154288.85102757017
0.8972615353717629	149955.11842374748
0.8974858507556059	149485.7843249514
0.8977102222182949	155817.24916133593
0.8979346497738496	157443.96134044137
0.8981591334362931	157892.64493176818
0.8983836732196523	158319.26937802037
0.8986082691379572	158661.60146920642
0.8988329212052417	155939.30019388464
0.8990576294355432	151631.43914148517
0.8992823938429022	155878.7987085952
0.8995072144413631	159585.02173388746
0.8997320912449734	161018.584268894
0.8999570242677847	161570.84739776203
0.9001820135238516	161892.54876654013
0.9004070590272328	161617.0167294219
0.9006321607919896	160269.7735076718
0.9008573188321878	161573.07633604304
0.9010825331618959	162017.46289773172
0.9013078037951865	164017.35840220135
0.9015331307461353	164770.7079408097
0.9017585140288219	165330.4734708181
0.9019839536573292	165917.37441954002
0.9022094496457435	166454.92040823677
0.9024350020081551	166908.54226846097
0.9026606107586572	167359.95408656073
0.902886275911347	167801.4052394933
0.9031119974803249	168059.17317055928
0.9033377754796951	168624.93282816798
0.903563609923565	169333.6461069605
0.903789500826046	169757.38604055138
0.9040154482012526	169881.78453274444
0.904241452063303	170740.6206004487
0.9044675124263188	171115.1689322809
0.9046936293044254	171389.14995748614
0.9049198027117517	172018.73060261237
0.9051460326624297	172681.02293276283
0.9053723191705955	173337.35531349797
0.9055986622503881	173871.2396060439
0.9058250619159507	174390.6805367104
0.9060515181814298	174846.29994679536
0.9062780310609752	174996.1277880469
0.9065046005687405	175418.27680357813
0.906731226718883	176158.30695013478
0.9069579095255627	176748.78265984295
0.907184649002944	177203.47498942545
0.907411445165195	177824.4524764521
0.9076382980264862	178178.501025286
0.907865207600993	178570.41253153744
0.9080921739028933	179243.89424090704
0.9083191969463691	179769.4581077026
0.9085462767456058	180017.17829295617
0.9087734133147922	180095.80908530965
0.9090006066681211	181236.02960620262
0.909227856819788	181975.47764016176
0.9094551637839932	182441.73251890618
0.9096825275749393	183034.43646161145
0.9099099482068329	183182.45520439895
0.9101374256938848	183694.20321336502
0.9103649600503083	184077.669298112
0.9105925512903209	184977.7521415136
0.9108201994281437	185279.24598542342
0.9110479044780008	185894.78243555146
0.9112756664541204	186716.5809468857
0.911503485370734	187312.6473410685
0.9117313612420768	187778.464290219
0.9119592940823873	188399.1992482204
0.912187283905908	189053.20119700753
0.9124153307268845	189592.409579208
0.9126434345595664	190134.87290362563
0.9128715954182063	190638.62177193264
0.9130998133170609	191115.03231832874
0.9133280882703902	191436.53209976765
0.913556420292458	192044.11005417295
0.9137848093975312	192668.18620775462
0.9140132555998806	193408.76682403692
0.9142417589137806	193844.43271383643
0.9144703193535092	192881.4001868943
