#wavelength	surface flux
0.676892	550.6797794666393
0.678297	573.7146475204142
0.679702	598.158067903041
0.681109	623.4788325808443
0.682517	649.4549438207941
0.683926	676.8297668812377
0.685337	705.1035491744909
0.686749	734.3072920197443
0.688164	764.6695492033147
0.689581	795.9597131255263
0.691	828.1606098888917
0.692422	859.5109744153208
0.693847	895.9227674150953
0.695274	934.1925982331196
0.696705	972.8067300008905
0.698139	1011.0062309602299
0.699576	1050.823419649025
0.701017	1095.7487057386054
0.702461	1139.918753369604
0.70391	1186.1832027198514
0.705362	1234.2966840124839
0.706819	1283.6248441352413
0.70828	1334.2857281355405
0.709745	1386.1450280022693
0.711216	1443.686440510082
0.71269	1500.7168558526728
0.71417	1559.6791973135596
0.715655	1617.0769234023953
0.717145	1666.2035520204101
0.71864	1746.5100264229688
0.72014	1819.9872794088253
0.721647	1892.7700169253962
0.723158	1967.38612637583
0.724676	2045.6304014499547
0.726199	2125.406381131476
0.727728	2210.8714263523375
0.729264	2293.685298283331
0.730805	2378.696703083525
0.732353	2481.5711982066077
0.733907	2577.2861524892446
0.735468	2670.737819279026
0.737035	2780.2567487411443
0.738609	2895.607598847842
0.74019	3006.976931715243
0.741777	3121.7313232973156
0.743372	3244.9983635888884
0.744973	3368.3980872702
0.746582	3500.1698739630165
0.748197	3633.8972826147487
0.74982	3774.4336606156216
0.751451	3912.323977051187
0.753088	4053.532278839627
0.754734	4192.517218862387
0.756386	4325.831159501532
0.758047	4441.52582067182
0.759715	4521.310854569016
0.76139	4515.698509650541
0.763074	4295.23956022057
0.764765	3596.289748996725
0.766464	2694.9742763220816
0.768172	3207.0148500054815
0.769887	3046.706028554991
0.77161	4207.191934342005
0.773341	5538.38737032013
0.775081	6236.402393082414
0.776829	6703.104150211211
0.778585	6967.96665991093
0.780349	6629.813916920629
0.782121	7717.848261936377
0.783902	8133.817826722469
0.785691	8484.134691721416
0.787489	8835.156346589969
0.789295	9194.166172381108
0.79111	9570.866700061186
0.792933	9906.458024182457
0.794764	9496.031813782816
0.796604	10628.845526181698
0.798453	11188.165999469675
0.80031	11630.722597979615
0.802176	12092.927166494552
0.804051	12573.828717145707
0.805934	13064.550280931855
0.807826	13574.724606815918
0.809727	14049.753133683753
0.811636	14504.599412211148
0.813554	15014.02288042948
0.81548	15682.264272386472
0.817416	16276.616162148357
0.81936	16965.122703459238
0.821313	17698.338089172656
0.823274	18133.831404588982
0.825244	19064.5121440767
0.827223	19756.140562109715
0.829211	20559.14035475725
0.831208	21326.474981797808
0.833213	22220.277085189282
0.835227	23063.715947655277
0.837249	23916.939796580096
0.83928	24850.08093086729
0.841321	25853.360646784557
0.843369	26870.36478809806
0.845427	27859.102896126427
0.847493	28927.758167309534
0.849567	30039.284128395208
0.851651	31212.271685270982
0.853742	32391.319843471683
0.855843	33632.70510780759
0.857952	34911.88782904143
0.86007	36179.33720571545
0.862196	37115.09758850732
0.864331	38526.29814364094
0.866474	40241.33902921048
0.868626	41811.49637481435
0.870786	43317.47945420523
0.872955	44963.7964775985
0.875132	46694.58706413896
0.877317	48439.710879935985
0.879511	50259.841537762404
0.881713	52110.19552514575
0.883923	54059.26769161058
0.886142	56062.623995479524
0.888369	58090.88365118685
0.890604	59849.347033666745
0.892847	61669.70821661802
0.895099	64133.72541509184
0.897358	64396.314347534404
0.899626	67383.6990708152
0.901901	71415.64762047147
0.904185	74353.44742210353
0.906476	76990.57220332118
0.908776	79474.18273177232
0.911083	82101.05126035862
0.913398	85380.58652990486
0.915721	87956.50314251253
0.918051	90839.60352852504
0.92039	93651.1407517569
0.922736	97961.9392906188
0.925089	99419.7845683513
0.927451	99301.16967229104
0.929819	96117.54870703985
0.932195	92535.87417256007
0.934579	92368.42208736177
0.93697	103414.85774174448
0.939369	119083.7623292554
0.941774	125354.80092061832
0.944187	127479.40085064404
0.946607	121938.34627635714
0.949035	126213.9394031494
0.951469	135484.75709816447
0.953911	142715.51685924316
0.956359	135189.7011021358
0.958814	150752.15737045804
0.961277	155168.975635528
0.963746	164891.64284394245
0.966222	170098.8531838144
0.968705	181393.53469051537
0.971194	183254.07713170836
0.97369	187937.07671801053
0.976193	198108.7920202883
0.978702	206397.0211712331
0.981217	212500.20524615957
0.983739	221227.73753843366
0.986268	228560.83882968838
0.988802	236620.28742657055
0.991343	245182.559091324
0.99389	252972.77817260046
0.996444	262205.9608152827
0.999003	269995.0244995047
1.00157	277903.73326002085
1.00414	286414.11457650625
1.00672	295111.47724271414
1.0093	303808.8092699836
1.01189	313044.84135366156
1.01448	322299.0402819899
1.01708	331780.59039940604
1.01969	341614.796164079
1.0223	351438.4137433383
1.02492	361558.08643813146
1.02754	371954.95351430745
1.03017	382594.1104055478
1.0328	393291.27673036297
1.03544	404520.00045349315
1.03808	415815.87484147254
1.04073	427385.5186145113
1.04339	439204.9635021996
1.04604	451208.7346820719
1.04871	463530.6129987929
1.05138	476216.37335796905
1.05405	489169.0093457848
1.05673	502355.2734611185
1.05941	515111.4390210391
1.0621	530344.1791418935
1.06479	545966.7792417911
1.06749	558650.3290394421
1.07019	574381.4477136467
1.07289	589685.3889836886
1.0756	605258.5001326045
1.07832	619466.7520022437
1.08104	635871.736547712
1.08376	652582.5077126719
1.08649	666608.6057693368
1.08922	683325.699036787
1.09195	695649.4786269225
1.09469	711002.0964403702
1.09743	710379.3562070429
1.10018	712644.7260087532
1.10293	711246.5596460426
1.10568	723040.1176686417
1.10844	733312.0459914639
1.1112	698711.9033678627
1.11396	660861.4320650524
1.11673	654718.7341077887
1.1195	727477.5630387613
1.12228	627806.1340848937
1.12505	642961.7600622486
1.12783	779844.5310366303
1.13062	883516.0979058743
1.13341	727974.7092912302
1.1362	819756.4117812751
1.13899	976915.6696874984
1.14178	1007823.1519654542
1.14458	921084.2073295306
1.14738	849098.9588866516
1.15019	924868.6211125975
1.153	1052939.3376117316
1.1558	1010548.7163354089
1.15862	1136282.0812929792
1.16143	1143738.000817582
1.16425	1095580.0263510437
1.16707	1217693.1025714234
1.16989	1194585.7033936505
1.17271	1241583.6041866108
1.17554	1300988.8495261862
1.17837	1346872.915666178
1.1812	1407081.012720916
1.18403	1437076.7354850543
1.18686	1474145.0276951417
1.1897	1495215.0290901754
1.19253	1548705.2797058816
1.19537	1583323.507536256
1.19822	1594133.5957033192
1.20106	1651735.5182922946
1.2039	1686736.000872715
1.20675	1727444.612829173
1.2096	1760455.8008896664
1.21245	1782444.3419500994
1.2153	1826892.519307917
1.21815	1874056.1394491943
1.221	1907892.1242270418
1.22385	1944199.1309188348
1.22671	1984559.2168293898
1.22957	2022487.4073455876
1.23242	2059667.2288874458
1.23528	2102067.3892654846
1.23814	2143336.389179181
1.241	2181466.1682416587
1.24387	2224207.5851184754
1.24673	2262708.3277558675
1.24959	2301913.5645820266
1.25245	2344749.353204074
1.25532	2386531.2334597353
1.25818	2429839.3608107287
1.26105	2472685.6803856967
1.26392	2513514.3881297065
1.26678	2555744.8287275117
1.26965	2594547.815272227
1.27252	2632029.796411032
1.27538	2686044.318853178
1.27825	2728832.311659584
1.28112	2762775.3626786615
1.28399	2785337.6608277583
1.28686	2842714.52710488
1.28973	2891658.089329
1.2926	2909027.451079547
1.29546	2856306.9877071804
1.29833	2942576.73430818
1.3012	3019970.685091265
1.30407	3083172.673761375
1.30694	3159178.95424733
1.30981	3203974.470642591
1.31267	3205629.9517823076
1.31554	3248919.321203856
1.31841	3165249.83832123
1.32128	3357017.899197755
1.32414	3384381.2272498617
1.32701	3415946.6615181924
1.32987	3314723.614737669
1.33274	3089733.173750829
1.3356	2959467.822288884
1.33847	1918356.1901099521
1.34133	1505455.4069769855
1.34419	1627689.2272698376
1.34705	1459479.6627750539
1.34991	1459466.1137308755
1.35277	1793046.7207196776
1.35563	1084347.2172439543
1.35849	886780.9855616026
1.36135	934998.836076455
1.3642	1512875.2483720004
1.36706	1494478.370652189
1.36991	1583641.7820832722
1.37277	1854148.1261484474
1.37562	1768705.667581625
1.37847	2551993.969766945
1.38132	1891500.608157124
1.38417	1618610.3042460503
1.38701	1388560.3520751845
1.38986	2004132.5160739282
1.39271	1648997.1182795165
1.39555	1319124.0728240819
1.39839	1826045.0683859389
1.40123	1729330.5189661384
1.40407	2178061.1972280694
1.40691	2086202.4379722946
1.40974	2003395.0997286025
1.41258	2332550.024933935
1.41541	2080510.9859059728
1.41824	1599730.2030803952
1.42107	1548831.8630020914
1.4239	1472002.0690331075
1.42673	2329030.070181397
1.42955	2810845.935149273
1.43237	2167019.882734109
1.43519	2500437.0538773662
1.43801	2725094.3936350825
1.44083	2361458.9402244906
1.44365	3036308.6786256935
1.44646	3007870.464787401
1.44927	3339271.9743976635
1.45208	3622819.9680104014
1.45489	3270976.6985659404
1.45769	4679555.979008597
1.4605	5028361.777896317
1.4633	4103649.5144298775
1.4661	4673773.160219381
1.4689	4386318.785511924
1.47169	4951777.273575078
1.47449	4776764.148244973
1.47728	5017827.628359273
1.48007	5167649.919110943
1.48286	5027647.083703215
1.48564	5428926.822241597
1.48842	5557562.0505327545
1.4912	5764490.362312323
1.49398	5910617.785817326
1.49676	5889217.1874959795
1.49953	6294515.895404268
1.5023	6158905.756424632
1.50507	6682647.745056606
1.50784	6672981.401771439
1.51061	6826143.999477964
1.51337	6976010.904991103
1.51613	7066555.496843682
1.51888	7214061.42532078
1.52164	7377379.537413532
1.52439	7569629.970615427
1.52714	7301974.572239634
1.52989	7454321.856467985
1.53263	7927167.389871018
1.53538	8223861.372647988
1.53812	8285097.012387131
1.54086	8323056.785928257
1.54359	8312781.212941729
1.54632	8545100.434727829
1.54905	8685788.449448489
1.55178	8754168.23340839
1.5545	8847319.222644307
1.55723	8905215.866120487
1.55995	9060742.955968376
1.56266	9138712.949836696
1.56538	9224986.353361536
1.56809	9397783.481210778
1.5708	9455747.203419868
1.57351	9563139.722442433
1.57621	9688336.412117213
1.57891	9742832.649893072
1.58161	9842652.742493562
1.5843	9894435.478481239
1.587	9912521.681741798
1.58969	10036148.241298048
1.59238	10136523.098025246
1.59506	10238091.382563815
1.59774	10336743.48736501
1.60042	10445682.622412287
1.6031	10529233.518630944
1.60577	10584602.353948982
1.60844	10655401.542252142
1.61111	10761491.69640156
1.61378	10843631.201741999
1.61644	10914979.008418357
1.6191	10959908.895859923
1.62176	10858756.793670142
1.62441	10561859.95074522
1.62707	10500312.368774645
1.62971	10170294.080143875
1.63236	10097588.167812739
1.635	10876006.633039346
1.63764	11323719.353399407
1.64028	11308731.42584185
1.64292	11492167.999118255
1.64555	11435496.555669008
1.64818	11470999.329443524
1.65081	11581395.49081856
1.65343	11582756.984965026
1.65605	11090822.846662356
1.65867	11553764.414146883
1.66128	11770600.475714311
1.6639	11629307.62638983
1.66651	9794218.173416024
1.66911	10033069.360361792
1.67172	11926793.086606791
1.67432	12426138.950931376
1.67692	12441267.63836553
1.67951	12452466.63622845
1.68211	12005209.265083259
1.6847	11848996.597704653
1.68728	12558526.792139245
1.68987	12684433.715301543
1.69245	11680747.639138542
1.69503	11147750.01772807
1.6976	11987491.790726177
1.70018	10832764.118556382
1.70275	10649268.048248563
1.70531	10934683.208178986
1.70788	11500364.105785644
1.71044	12775193.823553907
1.713	13247995.12438801
1.71556	13461832.448243288
1.71811	13470610.934788099
1.72066	13008991.762994936
1.72321	11986527.475560889
1.72575	11602704.991409812
1.7283	11842949.286053266
1.73084	11983943.176845605
1.73337	11672303.908201165
1.73591	11590703.774712512
1.73844	12569394.310505716
1.74097	12571878.041216286
1.74349	12635427.424240863
1.74602	12856342.937857095
1.74854	13392694.355867382
1.75105	13162010.590829564
1.75357	11633552.936416011
1.75608	10735756.215232853
1.75859	11197049.961719884
1.7611	10971089.796827246
1.7636	10604626.809058685
1.7661	9475296.430738837
1.7686	9246276.26856483
1.7711	10565038.7802843
1.77359	9766323.450669967
1.77608	7999649.604238646
1.77857	8470115.006365925
1.78105	8705413.882863872
1.78354	7206278.688061668
1.78602	6397065.698657607
1.78849	7248563.619154937
1.79097	6800169.5339778485
1.79344	6999024.262993766
1.79591	7774572.672620412
1.79837	8595830.321015144
1.80084	6147515.371162651
1.8033	5926870.475705575
1.80576	5864226.922429958
1.80821	5233317.344733822
1.81067	5128560.9878953295
1.81312	6471545.05933943
1.81557	8086608.094865173
1.81801	7198865.730592953
1.82046	6478918.012039468
1.8229	8137791.188684007
1.82533	8627919.809165193
1.82777	7033038.427775287
1.8302	6892222.888796425
1.83263	6901976.165736255
1.83506	6643079.857793725
1.83749	6750306.040504731
1.83991	6307016.219264434
1.84233	6500982.905858452
1.84475	7298047.22699385
1.84716	5714754.5684324885
1.84957	6250477.8638363425
1.85198	8387031.491495126
1.85439	7866984.031654912
1.8568	6433005.992217325
1.8592	5055935.035244467
1.8616	3585700.574833336
1.864	3688396.6144048516
1.86639	4498035.289060763
1.86878	4145472.7457414554
1.87118	4607620.8892321605
1.87356	5149217.387827272
1.87595	5780377.106473313
1.87833	8099164.380957688
1.88071	9170233.700048089
1.88309	8246637.0838161595
1.88547	6999361.152810129
1.88784	7059030.117421073
1.89021	7102261.412876775
1.89258	8061947.388080139
1.89494	9856151.880185494
1.89731	9393827.011905134
1.89967	7313021.754895581
1.90203	7540599.5024152715
1.90439	8035729.4204702005
1.90674	9912210.988243233
1.90909	11974387.256318277
1.91144	9405817.765959237
1.91379	7653061.985833257
1.91613	10158706.099797206
1.91848	11365027.501898633
1.92082	9040182.83969747
1.92315	7520255.240010449
1.92549	8529420.626990976
1.92782	8862127.756323703
1.93015	7290184.8348267
1.93248	7512676.130441566
1.93481	8462641.90921248
1.93713	6498976.192429657
1.93945	4232316.318479291
1.94177	6194525.384222432
1.94409	7510368.311547676
1.94641	6500503.319058976
1.94872	6180075.149003502
1.95103	8142108.80499381
1.95334	8999500.623242602
1.95564	7242872.02152832
1.95795	6246528.59689867
1.96025	5875469.398264059
1.96255	6526350.618393848
1.96484	8747677.12914957
1.96714	10123645.697517047
1.96943	9429143.649395963
1.97172	10279887.991401363
1.97401	10939220.316147784
1.97629	10252111.16610526
1.97858	10173952.649092719
1.98086	9644926.084427109
1.98314	11131223.92731201
1.98541	13392724.778510958
1.98769	12426154.941497603
1.98996	9829635.590725308
1.99223	9851801.336999262
1.9945	11670562.32504007
1.99677	12284994.332716946
1.99903	11575178.72390672
2.00129	11773917.619997587
2.00355	13622799.489674928
2.00581	14827652.034057453
2.00806	14112715.584926413
2.01031	15066706.359486202
2.01256	17507170.155509956
2.01481	17583389.182576846
2.01706	16236292.225033203
2.0193	16869372.570384536
2.02154	19095457.42722901
2.02378	19829468.76495994
2.02602	18848046.122231293
2.02825	17789615.486917894
2.03049	17386042.21253256
2.03272	18816423.594080813
2.03494	20454197.699249
2.03717	20645811.501900047
2.03939	20272270.245633107
2.04162	20244973.931934386
2.04384	20536519.821401954
2.04605	20449817.366412286
2.04827	19656770.10763989
2.05048	19333335.644258823
2.05269	19821248.71504872
2.0549	20409831.523165073
2.05711	20703980.608304456
2.05931	19965662.94696069
2.06151	19267611.61793281
2.06371	19669578.237175904
2.06591	20348369.17799579
2.06811	20863124.920553178
2.0703	21283572.109900557
2.07249	21665957.787510253
2.07468	21756879.65601343
2.07686	21802576.870500226
2.07905	22195515.772907235
2.08123	22505440.706079487
2.08341	22418991.06888967
2.08559	22091818.448755637
2.08776	22075952.124645535
2.08994	22302734.287097163
2.09211	22410897.99988557
2.09428	22561859.401220948
2.09645	22655983.878550474
2.09861	22555265.652912084
2.10077	22572323.623296816
2.10293	22804722.461324017
2.10509	22936943.59938665
2.10725	22722525.44006855
2.1094	22097145.36870859
2.11155	21218835.189064886
2.1137	20887801.541512836
2.11585	21440493.00755594
2.11799	22215692.65757176
2.12013	22850533.527506083
2.12227	23193724.412003797
2.12441	23271879.114593677
2.12655	23276733.838810697
2.12868	23266998.38054827
2.13081	23281405.88529378
2.13294	23382764.537190404
2.13507	23519388.614866156
2.13719	23598485.298222773
2.13931	23596003.44557551
2.14143	23526534.156638015
2.14355	23492030.526395082
2.14567	23479399.058817755
2.14778	23259271.35681775
2.14989	22795475.076023407
2.152	22112434.02172021
2.1541	21432484.271536432
2.15621	21714396.941649146
2.15831	22682503.61266229
2.16041	23037744.070277568
2.16251	23205902.799745947
2.1646	23462717.0574699
2.1667	23630774.112305358
2.16879	23727936.611894544
2.17087	23563132.65351114
2.17296	23231453.514584932
2.17504	23258398.550716005
2.17713	23635683.97571293
2.1792	23892120.70858756
2.18128	23864674.482056342
2.18336	23706912.754274644
2.18543	23717159.435088903
2.1875	23829807.889214933
2.18957	23882736.19805396
2.19163	23922180.44387221
2.1937	23808150.033323426
2.19576	23056746.91289005
2.19782	21041519.636764694
2.19987	19089047.26206053
2.20193	18698909.668203138
2.20398	19889133.488305815
2.20603	21898620.58826002
2.20808	23420762.911737368
2.21012	24031322.186161276
2.21217	23915723.756597295
2.21421	22958188.526702978
2.21625	21671007.653337743
2.21828	21332887.063633513
2.22032	21788405.049266398
2.22235	21758174.680501558
2.22438	21022164.32206223
2.22641	20324643.310883448
2.22843	20111674.15271229
2.23046	20053660.20292869
2.23248	20212449.18425682
2.2345	20875279.029418156
2.23651	21101624.60474541
2.23853	19662564.644503012
2.24054	17390347.38229519
2.24255	16988323.815351125
2.24456	18292208.680101607
2.24657	18547847.73192705
2.24857	17901310.927863013
2.25057	17471204.878105976
2.25257	17267954.298192624
2.25457	16689071.538369527
2.25656	16942348.428504843
2.25856	18068387.953881957
2.26055	18366107.774498094
2.26254	17646397.783892762
2.26453	17572447.348335903
2.26651	18294854.77454794
2.2685	19158782.497014876
2.27048	19727407.54580688
2.27246	20212498.140004847
2.27443	19636770.06953703
2.27641	18587756.11454022
2.27838	18991687.72924348
2.28036	20756902.463701762
2.28233	21033471.38072008
2.28429	18345823.16152482
2.28626	15598441.632227203
2.28823	15816476.546063377
2.29019	17140736.397204887
2.29215	16723479.839861803
2.29411	15392164.740574459
2.29607	14381961.01418106
2.29802	14129681.893086758
2.29998	14666473.452418536
2.30193	16604953.519807948
2.30388	18793721.772925954
2.30583	20344683.373883568
2.30778	20641175.07608996
2.30972	20645434.674525794
2.31167	20782632.35687514
2.31361	19099386.525226995
2.31555	15307389.039508535
2.31749	13127769.978742385
2.31943	13931037.144206116
2.32137	14978772.183899688
2.32331	14487219.95833256
2.32524	13675826.157983301
2.32718	13825799.100141486
2.32911	14156519.312106665
2.33104	14500612.312502315
2.33297	14785684.822469253
2.3349	14783587.041893585
2.33683	14616668.969798729
2.33876	14702303.640655251
2.34068	14508564.281314105
2.34261	13975245.964804675
2.34453	13194515.134476911
2.34646	12097168.57843147
2.34838	11974885.519969795
2.3503	12548970.347860968
2.35223	13975429.97182035
2.35415	15015754.581329571
2.35607	15533032.632849367
2.35799	16093677.82081538
2.35991	16959404.68052377
2.36183	18048076.971706457
2.36375	19452693.952854984
2.36566	19592803.244666293
2.36758	16455441.77104311
2.3695	12422000.495961696
2.37142	10565427.63817727
2.37334	10119315.403278405
2.37526	10049990.329131981
2.37718	10885231.52857031
2.3791	13068179.342175031
2.38101	15026619.36430033
2.38293	15872661.890043547
2.38485	15246442.160733022
2.38677	15177350.95396361
2.3887	17100181.70683837
2.39062	20018932.003987063
2.39254	21049642.809231475
2.39446	19982034.158418108
2.39639	17085790.598476984
2.39831	13798217.645880118
2.40024	11419490.757123446
2.40216	10446336.32118315
2.40409	10612897.569780732
2.40602	11503641.74268563
2.40795	12539659.508972842
2.40989	13653716.621201077
2.41182	14323297.290453332
2.41376	13618060.877117777
2.4157	12295214.196563125
2.41764	11106343.670628617
2.41958	10990752.357202405
2.42152	11265871.362962903
