#wavelength	surface flux
0.6450077295303345	1.694356530211741
0.6472567915916443	1.8485154926845686
0.6494921445846558	2.014753436109023
0.6517150402069092	2.191855997888668
0.6539263725280762	2.3845839262685913
0.6561272740364075	2.5898120880075175
0.6583186388015747	2.8127029655235165
0.6605015397071838	3.050581367437956
0.6626768708229065	3.305206664598365
0.6648455858230591	3.5800701054549866
0.6670085787773132	3.8748269521772416
0.6691668033599854	4.191151901617837
0.6713210344314575	4.529831192514303
0.6734722256660461	4.892499675513088
0.6756211519241333	5.282089824584929
0.6777685880661011	5.69942715167069
0.6799154281616211	6.146353384535406
0.6820623278617859	6.625617297985559
0.6842101216316223	7.13879784552144
0.6863595843315125	7.689135043379854
0.688511312007904	8.278087682172112
0.6906660795211792	8.909089181671302
0.6928245425224304	9.56091257949558
0.6949873566627502	10.30602112214697
0.6971551775932312	11.08669819983616
0.6993286609649658	11.897150088763501
0.7015084028244019	12.805251982153353
0.7036949396133423	13.7617250806125
0.7058889269828796	14.788739245625628
0.7080909013748169	15.871630465394357
0.710301399230957	17.03697442162682
0.712520956993103	18.308504939582466
0.7147500514984131	19.64882224700019
0.7169892191886902	20.936517542713336
0.7192389369010925	22.634885847117662
0.7214996814727783	24.277135141727822
0.723771870136261	26.048303227802894
0.7260559797286987	27.991812657156846
0.7283523678779602	30.027860561047476
0.7306615710258484	32.12149907592425
0.7329838871955872	34.57993813304109
0.7353196740150452	36.9456863891821
0.7376693487167358	39.758404553369104
0.7400332689285278	42.72867309947928
0.7424117922782898	45.82013917917503
0.7448052167892456	49.17469855072259
0.7472138404846191	52.768427132725606
0.7496379613876343	56.656482336621565
0.7520779371261597	60.778142712077155
0.7545340061187744	65.22341626906812
0.7570064663887024	69.98564361475717
0.7594954967498779	75.08338006187577
0.7620013952255249	80.55537638944604
0.7645244002342224	86.41848324169203
0.7670646905899048	92.58247280185755
0.7696225643157959	99.3812855251827
0.7721980810165405	106.73521958131916
0.7747915983200073	114.52906690485713
0.7774031162261963	122.8794184370437
0.7800329327583313	131.82292149435835
0.7826811671257019	141.43894647265552
0.7853479981422424	151.75662078873424
0.7880334854125977	162.72600415571165
0.7907378077507019	174.57656629586205
0.7934610247612	187.3878467803123
0.7962033748626709	200.99542934238448
0.7989648580551147	215.5917846905158
0.801745593547821	231.2539371062716
0.8045456409454346	248.19298737369445
0.8073651194572449	266.25293494043046
0.8102040886878967	283.5306917681034
0.8130625486373901	304.851039478693
0.8159406185150146	327.72037538197156
0.8188382983207703	347.65321359549336
0.8217556476593018	377.1713844523041
0.8246926665306091	404.0510491292798
0.8276493549346924	433.15375505728645
0.8306257724761963	464.8948183253547
0.8336219191551208	499.70740026340883
0.8366377949714661	535.3558444558467
0.8396733403205872	573.436513803523
0.8427285552024841	616.090819338755
0.8458034992218018	659.4795825709828
0.8488980531692505	707.242584106445
0.8520121574401855	758.3604536806863
0.8551458716392517	812.9475815389153
0.8582990765571594	871.4084700525169
0.8614717125892639	933.225054758895
0.8646637797355652	999.2046259073848
0.8678751587867737	1070.8351706081105
0.8711057901382446	1146.55811787448
0.8743556141853333	1227.463778484964
0.87762451171875	1314.4191656201956
0.8809124231338501	1406.682737856898
0.8842192888259888	1505.2562357831066
0.8875449895858765	1610.5136779339894
0.8908893465995789	1709.6866745139139
0.894252359867096	1830.3116379450034
0.8976338505744934	1882.3913274239844
0.9010337591171265	2076.034591417246
0.9044519662857056	2245.7357082517715
0.9078882932662964	2397.981738345958
0.9113426208496094	2568.125440942237
0.914814829826355	2731.458545888625
0.9183048605918884	2904.6898171452904
0.9218124747276306	3107.547188116481
0.925337553024292	3273.595865029257
0.9288799166679382	3422.8094963871717
0.9324395060539246	3345.1691380632965
0.9360161423683167	3639.0020368079086
0.9396095871925354	4226.642146908629
0.943219780921936	4567.731658647012
0.9468464851379395	4318.453619441901
0.9504896402359009	4650.290688009674
0.9541489481925964	5286.1813543952585
0.9578243494033813	5696.086908242751
0.9615156054496765	5994.119468571749
0.9652225375175476	6455.535828181193
0.9689450263977051	7107.946649859616
0.9726828336715698	7326.823178175229
0.9764357805252075	7949.668781298818
0.9802037477493286	8403.582437365621
0.983986496925354	9089.436794895584
0.9877838492393494	9650.810530181749
0.9915955662727356	10294.134006140623
0.9954215884208679	10963.230768018298
0.9992615580558777	11633.351346104406
1.0031154155731201	12296.927201184366
1.0069829225540161	13021.380516380921
1.0108637809753418	13789.907514672452
1.0147579908370972	14595.363752836998
1.018665075302124	15435.61211603621
1.022585153579712	16328.575274824712
1.0265177488327026	17257.634648689065
1.0304628610610962	18236.35599624541
1.0344202518463135	19263.55356475546
1.0383895635604858	20339.951601886787
1.0423706769943237	21470.236605603197
1.0463634729385376	22650.636721635856
1.0503677129745483	23885.580501559543
1.0543830394744873	25193.255502367847
1.058409333229065	26543.082591980008
1.0624464750289917	28065.855517294644
1.0664942264556885	29585.971620340933
1.0705522298812866	31184.66637055902
1.0746204853057861	32855.701133587856
1.0786986351013184	34470.65279726392
1.0827864408493042	36335.92019196277
1.086883783340454	38091.11056456481
1.0909905433654785	39983.01195653799
1.0951062440872192	41838.68874166719
1.0992310047149658	42646.27185155276
1.10336434841156	44736.3791851978
1.1075061559677124	47918.28098931201
1.1116561889648438	50004.568598051614
1.115814208984375	41298.39272535416
1.1199802160263062	48943.8468074065
1.124153733253479	42962.29880483817
1.1283347606658936	53284.79947767228
1.1325229406356812	61554.73469279264
1.1367181539535522	60456.30158085971
1.1409201622009277	69607.74761158192
1.145128846168518	66536.41817228516
1.1493438482284546	58881.611036582144
1.1535650491714478	76940.38462629399
1.1577922105789185	82737.57820661837
1.1620250940322876	85226.0379396505
1.1662636995315552	89135.2035712651
1.170507550239563	88756.55627486117
1.174756646156311	97020.0358509707
1.1790107488632202	102887.66842557977
1.1832695007324219	108405.71172466603
1.1875330209732056	112916.59117432049
1.191800832748413	118636.13790832306
1.1960728168487549	122943.87008161187
1.2003488540649414	127520.83636656025
1.2046287059783936	134068.6860147403
1.2089121341705322	139710.38788289687
1.2131990194320679	143607.26071631245
1.2174891233444214	151272.2362581204
1.2217823266983032	157301.49184284292
1.2260783910751343	163594.47329674283
1.230377197265625	169799.19160609317
1.2346785068511963	176796.40979947936
1.238982081413269	183653.09686030206
1.2432878017425537	190640.77316137715
1.2475954294204712	197729.17580407552
1.2519049644470215	205206.85436752398
1.256216049194336	212815.4449869961
1.2605286836624146	220659.92323932578
1.2648425102233887	228771.57178006705
1.2691574096679688	236504.41259231706
1.2734732627868652	244686.2183412462
1.2777899503707886	254054.70781132526
1.2821072340011597	261373.35779894696
1.2864248752593994	270834.78354010795
1.2907428741455078	279674.52881766745
1.2950609922409058	279680.99338433676
1.2993791103363037	293661.11990822584
1.303696870803833	306309.93761589355
1.3080145120620728	317867.9014611396
1.3123314380645752	326056.99271334865
1.3166478872299194	336638.38346020586
1.3209635019302368	341881.2007825363
1.3252781629562378	360270.2196954987
1.3295916318893433	368617.3611438643
1.3339040279388428	364600.3718943994
1.3382149934768677	328607.5434677014
1.3425244092941284	273476.24901607924
1.3468321561813354	290951.5835580133
1.3511382341384888	288649.688359258
1.3554422855377197	288891.64726944047
1.3597444295883179	312310.72687256464
1.3640443086624146	303067.8298342091
1.3683418035507202	327250.9454073689
1.3726370334625244	402337.70550669247
1.3769296407699585	411316.9712128967
1.381219506263733	439968.9731706187
1.3855066299438477	387207.6258647381
1.3897908926010132	418004.8771267327
1.3940720558166504	398993.613349164
1.3983501195907593	393507.2802741396
1.4026249647140503	444147.6556588462
1.4068963527679443	465182.101445088
1.4111642837524414	524819.9033976943
1.4154287576675415	447562.8616775695
1.419689416885376	439248.0473362517
1.4239463806152344	366038.09426836914
1.4281994104385376	546805.8618953509
1.4324485063552856	529331.256328778
1.436693549156189	588481.1144108301
1.440934419631958	575560.3486902401
1.4451709985733032	594077.3025954538
1.449403166770935	586674.8487883736
1.453631043434143	604958.5434832593
1.4578542709350586	753911.0767737047
1.4620729684829712	742054.5894328407
1.4662868976593018	777114.241602161
1.4704961776733398	823584.2494688774
1.4747005701065063	784613.891815945
1.4788999557495117	863400.6607999211
1.4830944538116455	846881.0375299633
1.4872838258743286	913480.8452945385
1.491468071937561	967973.9869876935
1.4956470727920532	980831.5295817261
1.4998208284378052	991304.9081841402
1.5039892196655273	1027590.8060662858
1.5081522464752197	1072823.8746233317
1.5123097896575928	1089550.9937845229
1.5164618492126465	1117046.1614086088
1.5206083059310913	1105227.9442326038
1.5247491598129272	1153691.013686923
1.5288842916488647	1118762.1887114532
1.5330137014389038	1227000.1254511627
1.5371372699737549	1283378.9714083541
1.541254997253418	1300947.2557284983
1.545366883277893	1336378.300623425
1.5494728088378906	1365950.5320746296
1.5535727739334106	1393095.0851627842
1.5576666593551636	1416740.411261728
1.561754584312439	1444380.0139439472
1.5658363103866577	1481829.2194323575
1.5699119567871094	1510891.033690599
1.5739814043045044	1542334.626081575
1.5780447721481323	1573140.987816231
1.582101821899414	1600657.821896826
1.5861525535583496	1627394.6839009116
1.5901970863342285	1659731.408603028
1.5942351818084717	1691467.157952771
1.5982669591903687	1721551.4919814458
1.6022924184799194	1752530.1128969442
1.606311559677124	1782816.4362518282
1.6103241443634033	1815964.172932632
1.6143304109573364	1847101.0109888178
1.6183301210403442	1878450.8677055314
1.6223233938217163	1877262.9615745533
1.6263102293014526	1848160.6632695238
1.6302905082702637	1869106.2876042018
1.634264349937439	1894783.1496368079
1.638231635093689	2019384.7325274998
1.6421923637390137	2061123.6943070462
1.646146535873413	2079515.1503996472
1.6500942707061768	2085103.2394981105
1.6540353298187256	2069115.617173612
1.6579699516296387	2084121.3386968502
1.661897897720337	2148698.590998532
1.6658192873001099	1989145.8366521394
1.6697341203689575	2027356.1866193453
1.6736423969268799	2310877.9605406625
1.677544116973877	2313025.0641846955
1.6814392805099487	2289059.1202389207
1.6853278875350952	2282494.898661649
1.6892099380493164	2457701.047133078
1.6930854320526123	2172693.245212466
1.696954369544983	2332248.6774423625
1.7008168697357178	2093465.2909526366
1.7046726942062378	2100344.619761017
1.708522081375122	2368967.2642034036
1.712364912033081	2611613.100422827
1.7162011861801147	2671420.240963748
1.7200311422348022	2639547.6044319132
1.723854422569275	2388508.501995447
1.7276713848114014	2432219.02368266
1.731481909751892	2433963.725114985
1.7352858781814575	2404322.402952098
1.7390835285186768	2708814.9950848864
1.7428747415542603	2746810.1968138064
1.7466596364974976	2942583.1297053355
1.7504380941390991	2954359.6993834176
1.7542102336883545	2818723.691309913
1.7579760551452637	2677644.6510820384
1.7617355585098267	2753417.608228789
1.7654887437820435	2691937.3088397784
1.7692357301712036	2666325.435392101
1.7729763984680176	2740528.6765562105
1.776710867881775	2393934.7136633303
1.7804391384124756	2836845.4273291
1.7841613292694092	2602038.350971241
1.7878772020339966	2631859.591350401
1.7915871143341064	2249360.0712181125
1.7952908277511597	2691906.99829422
1.7989884614944458	2776597.17205235
1.8026801347732544	2704758.28164398
1.806365728378296	2551124.5237577497
1.8100452423095703	2001862.4345471198
1.8137187957763672	2602187.229668311
1.817386507987976	3160518.973580827
1.8210482597351074	3215802.2462381744
1.8247040510177612	3643792.1955585647
1.828354001045227	3575953.861928921
1.8319982290267944	2962696.6510991883
1.8356364965438843	3415572.510480868
1.8392690420150757	3270939.02338488
1.8428958654403687	3449394.0951299975
1.8465168476104736	3126058.5645531304
1.8501322269439697	3179002.230558882
1.8537418842315674	3759636.968049862
1.8573459386825562	3237923.185428715
1.860944390296936	2454504.1813928965
1.864537239074707	2447017.096143056
1.8681244850158691	2488632.879952865
1.871706247329712	2703581.5714092157
1.8752825260162354	2981845.081161805
1.8788533210754395	3889437.151666773
1.8824186325073242	3523181.4513905337
1.8859784603118896	3121438.780752452
1.8895330429077148	3372825.3579259706
1.8930821418762207	3406550.377109833
1.8966259956359863	3725709.7297935267
1.9001644849777222	3663899.741436
1.9036977291107178	3708220.073324708
1.9072256088256836	4354746.759666523
1.9107483625411987	4271305.496043483
1.9142658710479736	3761212.3938497882
1.9177782535552979	4428075.361311651
1.9212853908538818	3933079.1220933744
1.9247875213623047	3320922.282717916
1.9282845258712769	4147541.51524976
1.9317764043807983	4072317.824705723
1.9352631568908691	4368467.679463256
1.9387450218200684	2842173.163581012
1.942221760749817	3189590.967360966
1.9456936120986938	3414739.317525625
1.9491604566574097	3538487.659771989
1.952622413635254	3887674.2611280726
1.956079363822937	2813854.7982330266
1.959531545639038	2647982.0665662987
1.962978720664978	3891028.359374418
1.966421127319336	4841112.69391293
1.9698586463928223	4663236.809359134
1.9732913970947266	4933418.90971958
1.9767193794250488	4769329.178103299
1.9801424741744995	4972710.134388343
1.9835609197616577	4958905.495292487
1.9869745969772339	4847410.738947146
1.990383505821228	4317918.198445621
1.9937876462936401	4925865.128484372
1.9971871376037598	5221542.617619467
2.000581979751587	4792050.47423687
2.003972291946411	4982632.862673646
2.007357597351074	5507689.536535209
2.0107386112213135	5819376.8428241685
2.0141148567199707	5888236.176917928
2.017486572265625	5379992.109659
2.0208535194396973	5832004.3664755225
2.0242159366607666	6122525.620734261
2.027573823928833	5925300.724467959
2.0309269428253174	5763741.048566161
2.034275770187378	6189245.598565516
2.0376198291778564	6362435.13930166
2.040959596633911	6418413.37745835
2.044294595718384	6431837.8938639
2.0476250648498535	6057528.667058719
2.0509510040283203	6013973.39542196
2.054272413253784	6463374.937431755
2.057589530944824	6517690.715773041
2.0609018802642822	6408061.805179943
2.0642096996307373	6476295.316007072
2.0675129890441895	6569613.390872833
2.0708119869232178	6721853.491225365
2.074106216430664	6875214.241038184
2.0773961544036865	6949803.856916479
2.080681324005127	7014456.747338682
2.0839622020721436	7016606.301671684
2.087238311767578	7035535.581889815
2.090510129928589	7092150.2629861
2.0937774181365967	7146182.357244179
2.0970399379730225	7206507.547308104
2.1002981662750244	7223010.054927284
2.1035518646240234	7297795.501988973
2.1068007946014404	7323795.325399753
2.1100454330444336	7181601.666395692
2.1132853031158447	7008595.358845546
2.116520881652832	7163786.936894553
2.1197516918182373	7422201.764472529
2.1229779720306396	7566105.463055455
2.12619948387146	7613035.983436266
2.1294167041778564	7648999.573923469
2.132629156112671	7698644.645529605
2.1358368396759033	7749779.100966362
2.139039993286133	7790342.064055318
2.1422386169433594	7811924.025921044
2.145432472229004	7828851.231089681
2.1486217975616455	7756004.507400151
2.151806354522705	7554403.918821937
2.1549863815307617	7161113.769692301
2.1581614017486572	7572975.224975265
2.16133189201355	7821435.151028475
2.1644976139068604	8005975.316718018
2.167658567428589	8122494.001997828
2.1708147525787354	8110274.943167897
2.173966407775879	8014228.358642993
2.1771130561828613	8137860.934158905
2.1802549362182617	8279566.108285399
2.183391809463501	8318755.418352365
2.1865241527557373	8343166.335041784
2.1896514892578125	8374649.003933905
2.1927738189697266	8402721.648783093
2.1958916187286377	8154343.523069725
2.1990041732788086	7344313.839569495
2.2021119594573975	7300682.182558524
2.2052149772644043	7956916.223900579
2.208312749862671	8507552.364406466
2.2114057540893555	8640691.205809081
2.214493751525879	8294994.19941507
2.217576742172241	7941638.56194942
2.2206547260284424	8195731.732360826
2.2237277030944824	8042386.396439506
2.2267956733703613	7854577.439694648
2.2298583984375	8070336.528763471
2.2329163551330566	8045595.574207537
2.235969066619873	8386479.1737723155
2.2390167713165283	8078122.953292733
2.2420592308044434	7373826.762878413
2.2450966835021973	7829498.974702379
2.248128890991211	7567233.467683295
2.2511560916900635	7238998.825068074
2.254178285598755	6844364.019912524
2.257194995880127	7008206.798308335
2.260206699371338	7500813.324567119
2.2632133960723877	7801844.068825751
2.266214609146118	8063985.746577518
2.2692108154296875	7867068.773190156
2.2722020149230957	7977333.332449811
2.2751877307891846	7477111.203693445
2.278168201446533	7551035.928848873
2.2811436653137207	8657892.20890666
2.284113883972168	7663645.635146226
2.287078857421875	6467129.45414147
2.290038824081421	7246598.901101745
2.2929933071136475	6825414.395130164
2.295942783355713	6283902.442576165
2.298887014389038	6501886.327243961
2.301826238632202	7581341.258245607
2.304760217666626	8550675.872626873
2.3076889514923096	9038917.748080038
2.310612440109253	9231655.181452585
2.3135311603546143	8385347.539607244
2.3164443969726562	6395371.603263159
2.319352865219116	6579199.398058528
2.322256088256836	6629844.6062695645
2.3251543045043945	5689090.189540975
2.328047275543213	6065448.611774283
2.330935478210449	6554653.720433667
2.3338186740875244	7082223.8476181505
2.3366971015930176	7513116.0496143345
2.3395702838897705	7533323.928575882
2.3424389362335205	7269854.958280692
2.3453025817871094	6783230.247649139
2.348161458969116	6247536.830655868
2.351015567779541	6423845.621662315
2.353865146636963	6877166.841122195
2.3567099571228027	7020636.090279176
2.3595502376556396	7526268.64366844
2.3623859882354736	8528547.914225407
2.3652172088623047	8929097.792903695
2.368043899536133	7154425.206222044
2.370866537094116	5768141.658717076
2.3736846446990967	5335121.098396946
2.3764986991882324	5435044.448821816
2.3793084621429443	6620048.027847017
2.3821144104003906	7630319.529166142
2.384916305541992	7590851.349383128
2.387714147567749	7711132.957501095
2.3905084133148193	9362851.753472222
2.393299102783203	9991859.74245232
2.3960859775543213	9025704.875405012
2.398869514465332	7247399.91190978
2.4016497135162354	5689165.529727061
2.4044265747070312	5898963.831907859
2.407200336456299	7593950.818355746
2.409970998764038	8517455.201642448
2.4127390384674072	7860804.00606132
2.415503978729248	6562254.830790935
2.418266534805298	5960871.913221151
2.4210267066955566	5907300.070413247
2.4237842559814453	5999413.489584285
2.426539897918701	5694310.956627262
2.429293394088745	5881889.689521045
2.4320452213287354	6890701.584090946
2.4347951412200928	7161072.412630554
2.4375438690185547	7162304.623122737
2.440291166305542	7512383.527573846
2.443037271499634	7626331.89529689
2.445782423019409	7803333.374833728
2.4485268592834473	7788322.976236859
2.451270818710327	7852825.3518932415
2.454014539718628	8154640.713434908
2.4567582607269287	7802130.561302427
2.4595019817352295	7981888.793296306
2.4622461795806885	8968977.635055708
2.4649908542633057	9531026.308273079
2.4677364826202393	8850505.703795737
2.4704833030700684	8423585.585817734
2.473231554031372	8571949.213985318
2.4759814739227295	8430488.623939106
2.4787333011627197	7377157.329893907
2.481487512588501	6277610.239411097
2.4842441082000732	6351875.492755092
2.4870035648345947	6883136.347014038
