#wavelength	surface flux
0.6450077295303345	46.1125897209267
0.6472567915916443	49.707576130811184
0.6494921445846558	53.541942209894955
0.6517150402069092	57.60430264820589
0.6539263725280762	61.92537753707691
0.6561272740364075	66.50591226686134
0.6583186388015747	71.37715256098862
0.6605015397071838	76.54181832276115
0.6626768708229065	82.01366259626377
0.6648455858230591	87.82636793349799
0.6670085787773132	93.9798418998993
0.6691668033599854	100.51100153452334
0.6713210344314575	107.41793294386153
0.6734722256660461	114.74843246451374
0.6756211519241333	122.5112164236948
0.6777685880661011	130.7333009884431
0.6799154281616211	139.44128153602125
0.6820623278617859	148.663390110852
0.6842101216316223	158.4292338770037
0.6863595843315125	168.7700318953507
0.688511312007904	179.7302086720946
0.6906660795211792	191.30256713789532
0.6928245425224304	203.43608831441733
0.6949873566627502	216.53529070433237
0.6971551775932312	230.37722091163232
0.6993286609649658	244.90806813447935
0.7015084028244019	260.37599702571345
0.7036949396133423	276.7277997781208
0.7058889269828796	294.08416978657095
0.7080909013748169	312.3962562841192
0.710301399230957	331.80754181471946
0.712520956993103	352.3955207832659
0.7147500514984131	374.1232011823415
0.7169892191886902	395.71447391327604
0.7192389369010925	421.0958559392692
0.7214996814727783	447.36622779248154
0.723771870136261	474.63580382737797
0.7260559797286987	503.6377559986405
0.7283523678779602	534.6361013391557
0.7306615710258484	566.6562969663395
0.7329838871955872	601.9309954557768
0.7353196740150452	638.1390844513593
0.7376693487167358	677.3398238485544
0.7400332689285278	718.632828223376
0.7424117922782898	762.1790204496499
0.7448052167892456	808.423642349809
0.7472138404846191	857.6580088226672
0.7496379613876343	909.7806003879735
0.7520779371261597	964.710682614889
0.7545340061187744	1022.8494513857028
0.7570064663887024	1084.1074747218747
0.7594954967498779	1148.1435490978092
0.7620013952255249	1213.496756105635
0.7645244002342224	1272.5934868616475
0.7670646905899048	1325.6064193393863
0.7696225643157959	1409.4322865348267
0.7721980810165405	1521.3423829012552
0.7747915983200073	1628.1822078973744
0.7774031162261963	1730.8177885644923
0.7800329327583313	1826.975512865665
0.7826811671257019	1948.6253946583151
0.7853479981422424	2066.7284596670934
0.7880334854125977	2191.243418683532
0.7907378077507019	2323.3022274382647
0.7934610247612	2460.743757769371
0.7962033748626709	2607.1592774935407
0.7989648580551147	2767.378088069097
0.801745593547821	2933.462592714381
0.8045456409454346	3109.4754464984826
0.8073651194572449	3295.1583077444384
0.8102040886878967	3487.055583200671
0.8130625486373901	3688.520293791768
0.8159406185150146	3912.510616141669
0.8188382983207703	4146.5189716946525
0.8217556476593018	4396.1846710004465
0.8246926665306091	4656.85599304403
0.8276493549346924	4934.875533557442
0.8306257724761963	5226.374638478468
0.8336219191551208	5539.047934440885
0.8366377949714661	5863.216437343852
0.8396733403205872	6213.695425790184
0.8427285552024841	6583.960337063752
0.8458034992218018	6970.79206672526
0.8488980531692505	7382.018303949285
0.8520121574401855	7815.981291619878
0.8551458716392517	8274.217231040497
0.8582990765571594	8757.702905491014
0.8614717125892639	9236.561385509365
0.8646637797355652	9767.518039194489
0.8678751587867737	10358.368734405605
0.8711057901382446	10956.62818228835
0.8743556141853333	11591.990753712129
0.87762451171875	12263.297113104933
0.8809124231338501	12970.2795602909
0.8842192888259888	13715.727802082827
0.8875449895858765	14499.015376133253
0.8908893465995789	15300.430981353737
0.894252359867096	16136.436795038768
0.8976338505744934	16963.400177464442
0.9010337591171265	18006.76478073942
0.9044519662857056	19076.203657933253
0.9078882932662964	20107.797660080218
0.9113426208496094	21210.79159573554
0.914814829826355	22397.654678305465
0.9183048605918884	23605.52612699645
0.9218124747276306	24948.1939592061
0.925337553024292	26196.82958176851
0.9288799166679382	26843.55365906924
0.9324395060539246	27381.112676798235
0.9360161423683167	29723.719290597484
0.9396095871925354	32177.79206439565
0.943219780921936	33678.52373064066
0.9468464851379395	34921.30883923903
0.9504896402359009	36751.04946296463
0.9541489481925964	39021.999474122546
0.9578243494033813	41271.7279680955
0.9615156054496765	43409.82171654475
0.9652225375175476	45981.78481788406
0.9689450263977051	48853.012400741674
0.9726828336715698	51032.22249473979
0.9764357805252075	54087.37222926274
0.9802037477493286	56837.79452180001
0.983986496925354	59959.02470407778
0.9877838492393494	63145.92344257058
0.9915955662727356	66415.30611702222
0.9954215884208679	69818.26932960314
0.9992615580558777	73277.34511109554
1.0031154155731201	76768.68642327569
1.0069829225540161	80494.06449982333
1.0108637809753418	84372.74039867717
1.0147579908370972	88393.01564739058
1.018665075302124	92590.11911125014
1.022585153579712	96945.915676504
1.0265177488327026	101480.3125253386
1.0304628610610962	106197.59574430078
1.0344202518463135	111096.64911034438
1.0383895635604858	116182.10442605514
1.0423706769943237	121482.00164516547
1.0463634729385376	126966.1469377773
1.0503677129745483	132663.96449978717
1.0543830394744873	138589.67266843605
1.058409333229065	144713.33866619505
1.0624464750289917	151438.63252953353
1.0664942264556885	158236.58732692074
1.0705522298812866	165106.86830823447
1.0746204853057861	172235.81437135412
1.0786986351013184	179533.14552416504
1.0827864408493042	187208.3783704894
1.086883783340454	194911.1012156006
1.0909905433654785	202882.77455585622
1.0951062440872192	210754.95990307003
1.0992310047149658	218061.70964918743
1.10336434841156	224275.05167229602
1.1075061559677124	230462.2081695819
1.1116561889648438	231905.48262249303
1.115814208984375	222543.9549429662
1.1199802160263062	244050.1948739995
1.124153733253479	237303.22015364908
1.1283347606658936	273923.5758205132
1.1325229406356812	276438.8175989013
1.1367181539535522	293618.33218921814
1.1409201622009277	317375.357554045
1.145128846168518	315154.3838428401
1.1493438482284546	320558.4020033574
1.1535650491714478	341344.0079558107
1.1577922105789185	362020.4726300253
1.1620250940322876	373119.5117866548
1.1662636995315552	390426.92647843366
1.170507550239563	406409.634953677
1.174756646156311	422741.6451292082
1.1790107488632202	442722.5394376579
1.1832695007324219	461088.7866760252
1.1875330209732056	478370.9233681642
1.191800832748413	496742.3416491781
1.1960728168487549	514169.12406046776
1.2003488540649414	531832.8259033571
1.2046287059783936	550174.2602069563
1.2089121341705322	568399.9860315087
1.2131990194320679	586557.5299536112
1.2174891233444214	608116.029423584
1.2217823266983032	627900.8842339467
1.2260783910751343	648859.0261824002
1.230377197265625	669240.5873250504
1.2346785068511963	691886.1092787668
1.238982081413269	714048.1643681979
1.2432878017425537	736464.6006497274
1.2475954294204712	759268.7444001675
1.2519049644470215	782866.1319302011
1.256216049194336	806890.778516668
1.2605286836624146	831414.9922723708
1.2648425102233887	856403.6442801743
1.2691574096679688	882042.7232264731
1.2734732627868652	907022.1433199771
1.2777899503707886	933841.8836975521
1.2821072340011597	959458.7570651376
1.2864248752593994	985638.0573251194
1.2907428741455078	1012801.2927255756
1.2950609922409058	1034272.3860698156
1.2993791103363037	1065911.0604310469
1.303696870803833	1095193.2565309766
1.3080145120620728	1126084.3924221317
1.3123314380645752	1157093.1295469971
1.3166478872299194	1185065.4131452139
1.3209635019302368	1215157.2663396169
1.3252781629562378	1242693.2854392098
1.3295916318893433	1252751.0288585338
1.3339040279388428	1252545.5417220227
1.3382149934768677	1037511.0117872058
1.3425244092941284	920657.9426597987
1.3468321561813354	716313.1589996455
1.3511382341384888	772179.5700332562
1.3554422855377197	590702.8983432874
1.3597444295883179	542774.0728664198
1.3640443086624146	857584.4737048374
1.3683418035507202	903215.0378230014
1.3726370334625244	1069544.2948350199
1.3769296407699585	1157683.2689276184
1.381219506263733	924328.3607873503
1.3855066299438477	743443.2370049376
1.3897908926010132	974788.5624921353
1.3940720558166504	910763.3851971845
1.3983501195907593	1053916.748660574
1.4026249647140503	1205729.6756785547
1.4068963527679443	1181418.3019493013
1.4111642837524414	1183710.78269781
1.4154287576675415	1212397.7151231756
1.419689416885376	1042530.8254107769
1.4239463806152344	1088704.7260863276
1.4281994104385376	1442902.1336006587
1.4324485063552856	1300148.6491214402
1.436693549156189	1629101.0386780798
1.440934419631958	1584479.9086778173
1.4451709985733032	1679910.3526812098
1.449403166770935	1875187.5153175464
1.453631043434143	2023358.7239080577
1.4578542709350586	2190322.689852881
1.4620729684829712	2184366.250229309
1.4662868976593018	2363161.633790364
1.4704961776733398	2319849.369144272
1.4747005701065063	2435842.6778643616
1.4788999557495117	2511031.139797785
1.4830944538116455	2543341.6151502784
1.4872838258743286	2629499.900225541
1.491468071937561	2710110.1245698174
1.4956470727920532	2768121.636753682
1.4998208284378052	2886309.9780884827
1.5039892196655273	2948737.6678125816
1.5081522464752197	3020428.5607768735
1.5123097896575928	3099296.99037178
1.5164618492126465	3190721.590059784
1.5206083059310913	3261533.2682313533
1.5247491598129272	3327076.209350478
1.5288842916488647	3385200.178983631
1.5330137014389038	3473159.416927648
1.5371372699737549	3543411.7329574837
1.541254997253418	3605530.49109229
1.545366883277893	3670872.914373888
1.5494728088378906	3738787.23770821
1.5535727739334106	3813473.0908503244
1.5576666593551636	3865485.933161338
1.561754584312439	3917994.111177528
1.5658363103866577	4001101.688296811
1.5699119567871094	4063060.509433482
1.5739814043045044	4131516.8777794586
1.5780447721481323	4198863.819512214
1.582101821899414	4258509.538064847
1.5861525535583496	4312096.685348994
1.5901970863342285	4380158.010522477
1.5942351818084717	4445408.974682056
1.5982669591903687	4510754.270927028
1.6022924184799194	4573550.320317417
1.606311559677124	4635267.829256836
1.6103241443634033	4702574.596815255
1.6143304109573364	4764594.926402206
1.6183301210403442	4815926.956593962
1.6223233938217163	4820177.566268624
1.6263102293014526	4769981.099743471
1.6302905082702637	4616163.576874699
1.634264349937439	4849216.503392895
1.638231635093689	5057408.060505292
1.6421923637390137	5123655.98229999
1.646146535873413	5153301.9393384885
1.6500942707061768	5248547.830754641
1.6540353298187256	5286737.532719763
1.6579699516296387	5329381.011791991
1.661897897720337	5417394.333779917
1.6658192873001099	5020247.876795328
1.6697341203689575	5182725.73339151
1.6736423969268799	5653718.891373665
1.677544116973877	5675875.802100891
1.6814392805099487	5679404.055478886
1.6853278875350952	5668313.020612811
1.6892099380493164	5854609.785030212
1.6930854320526123	5606497.182890336
1.696954369544983	5782802.596146999
1.7008168697357178	5581032.896613862
1.7046726942062378	5714386.566302406
1.708522081375122	5882984.1840847265
1.712364912033081	6161372.706672486
1.7162011861801147	6243503.920265183
1.7200311422348022	6240358.697309906
1.723854422569275	5954873.860357932
1.7276713848114014	5969764.019825182
1.731481909751892	6028256.065042653
1.7352858781814575	5865157.82089858
1.7390835285186768	6158864.892262662
1.7428747415542603	6190129.700572397
1.7466596364974976	6434224.03496873
1.7504380941390991	6502653.570915872
1.7542102336883545	6035499.658701658
1.7579760551452637	5911806.722391094
1.7617355585098267	6123499.285865512
1.7654887437820435	5847772.351684314
1.7692357301712036	5715464.050925651
1.7729763984680176	5689242.846320238
1.776710867881775	4781563.262804178
1.7804391384124756	5182431.047616931
1.7841613292694092	4319044.352187868
1.7878772020339966	4549536.333507355
1.7915871143341064	4097288.4723658394
1.7952908277511597	4006091.618158384
1.7989884614944458	4209816.887068825
1.8026801347732544	3163097.317264492
1.806365728378296	3413297.4934126544
1.8100452423095703	3157597.84756638
1.8137187957763672	4033899.3660945394
1.817386507987976	3903085.339002524
1.8210482597351074	3607350.641587412
1.8247040510177612	4920071.801979986
1.828354001045227	3818421.691714539
1.8319982290267944	3871831.759611145
1.8356364965438843	3672479.3087492897
1.8392690420150757	3567133.9652800513
1.8428958654403687	4251629.844967024
1.8465168476104736	4392969.939502528
1.8501322269439697	4348542.68349923
1.8537418842315674	4547877.679440838
1.8573459386825562	3744564.426377399
1.860944390296936	2896570.926457406
1.864537239074707	2841494.9334331923
1.8681244850158691	2704014.283894905
1.871706247329712	2702741.2729236116
1.8752825260162354	3495648.4606998772
1.8788533210754395	5200654.450218002
1.8824186325073242	5263496.715562161
1.8859784603118896	4493290.090119244
1.8895330429077148	4835830.567623548
1.8930821418762207	5409618.239668896
1.8966259956359863	5329870.94155613
1.9001644849777222	4143166.1999944113
1.9036977291107178	4395291.63365227
1.9072256088256836	5170430.104506863
1.9107483625411987	5257539.536516242
1.9142658710479736	4261692.780719389
1.9177782535552979	5293784.368445526
1.9212853908538818	4258082.873147914
1.9247875213623047	4456387.200461391
1.9282845258712769	4694096.35105713
1.9317764043807983	4417333.703883063
1.9352631568908691	4702452.398859819
1.9387450218200684	2906484.389087024
1.942221760749817	3890339.1323669483
1.9456936120986938	4203236.945647704
1.9491604566574097	4423247.641528709
1.952622413635254	5123392.550238433
1.956079363822937	3950877.996299882
1.959531545639038	4396166.11920147
1.962978720664978	4835673.152954516
1.966421127319336	6076368.093795463
1.9698586463928223	5790800.533508153
1.9732913970947266	5907524.493887339
1.9767193794250488	6470263.617838514
1.9801424741744995	6847526.074796123
1.9835609197616577	7116797.440316775
1.9869745969772339	6974071.015372315
1.990383505821228	6131840.99741909
1.9937876462936401	7247828.088271064
1.9971871376037598	7239936.712955841
2.000581979751587	6800962.740538156
2.003972291946411	7324423.311643048
2.007357597351074	7724307.935762337
2.0107386112213135	7839112.629726725
2.0141148567199707	8122198.556452907
2.017486572265625	7694513.530072566
2.0208535194396973	8024322.369339541
2.0242159366607666	8213233.963490672
2.027573823928833	7963703.445214605
2.0309269428253174	7777607.429469505
2.034275770187378	8164130.9457016215
2.0376198291778564	8277684.024901782
2.040959596633911	8291633.078977866
2.044294595718384	8246374.563122359
2.0476250648498535	7920018.753073142
2.0509510040283203	7849756.33411737
2.054272413253784	8155346.006245656
2.057589530944824	8169646.871726709
2.0609018802642822	8010466.066545075
2.0642096996307373	8100547.373636372
2.0675129890441895	8175244.915759657
2.0708119869232178	8240613.779775284
2.074106216430664	8291022.531455699
2.0773961544036865	8303454.855739992
2.080681324005127	8305487.172961031
2.0839622020721436	8266234.57252892
2.087238311767578	8230469.495014742
2.090510129928589	8243224.579407069
2.0937774181365967	8245859.4221282555
2.0970399379730225	8245531.302630375
2.1002981662750244	8218578.132618661
2.1035518646240234	8230890.626971018
2.1068007946014404	8208565.895483095
2.1100454330444336	8084562.985816181
2.1132853031158447	7963604.630415836
2.116520881652832	8041962.355865789
2.1197516918182373	8153594.066683473
2.1229779720306396	8184645.58632457
2.12619948387146	8172579.99397072
2.1294167041778564	8159071.196913399
2.132629156112671	8155123.095111044
2.1358368396759033	8156718.404961125
2.139039993286133	8146901.722014677
2.1422386169433594	8127309.074509951
2.145432472229004	8109475.328772752
2.1486217975616455	8065996.386961368
2.151806354522705	7970837.16849875
2.1549863815307617	7799946.307121615
2.1581614017486572	7920194.776756121
2.16133189201355	7984469.543090654
2.1644976139068604	8008904.9996434385
2.167658567428589	8020405.507624563
2.1708147525787354	7984452.74957433
2.173966407775879	7929021.581235073
2.1771130561828613	7952475.506657861
2.1802549362182617	7964091.553484711
2.183391809463501	7948494.136126596
2.1865241527557373	7923946.286338095
2.1896514892578125	7897698.9449132485
2.1927738189697266	7875777.745576168
2.1958916187286377	7775061.549034879
2.1990041732788086	7508899.841295612
2.2021119594573975	7469996.9342327565
2.2052149772644043	7631124.716269058
2.208312749862671	7748748.750286145
2.2114057540893555	7751204.598633965
2.214493751525879	7616568.416421623
2.217576742172241	7482588.632234009
2.2206547260284424	7505503.326179117
2.2237277030944824	7374614.516813385
2.2267956733703613	7182132.205219064
2.2298583984375	7238222.116478577
2.2329163551330566	7333908.59546237
2.235969066619873	7345678.4770191545
2.2390167713165283	7012385.925683806
2.2420592308044434	6679918.501186404
2.2450966835021973	6785987.379846743
2.248128890991211	6766691.653003259
2.2511560916900635	6722264.369092588
2.254178285598755	6367220.748642814
2.257194995880127	6438467.475663732
2.260206699371338	6812121.169839276
2.2632133960723877	6834465.3529806
2.266214609146118	6877007.838000775
2.2692108154296875	6894520.528154253
2.2722020149230957	6913307.486801329
2.2751877307891846	6781379.160474598
2.278168201446533	6780770.567592477
2.2811436653137207	7002395.905011369
2.284113883972168	6435108.537142993
2.287078857421875	5687306.201271495
2.290038824081421	6024978.366290953
2.2929933071136475	5905272.392965958
2.295942783355713	5806830.750125403
2.298887014389038	6134657.729974013
2.301826238632202	6562808.16224209
2.304760217666626	6760812.526347292
2.3076889514923096	6873482.143179914
2.310612440109253	6917988.199070194
2.3135311603546143	6568383.794990554
2.3164443969726562	5791349.189875615
2.319352865219116	5836370.111570305
2.322256088256836	6007903.342220807
2.3251543045043945	5905966.311909824
2.328047275543213	6021587.527865537
2.330935478210449	6105456.30558775
2.3338186740875244	6242155.743663455
2.3366971015930176	6331542.822985439
2.3395702838897705	6304624.399375232
2.3424389362335205	6244265.746450974
2.3453025817871094	5894520.180475521
2.348161458969116	5493472.857370588
2.351015567779541	5656520.807767548
2.353865146636963	5752423.772365456
2.3567099571228027	5545545.054153958
2.3595502376556396	5639017.944766633
2.3623859882354736	6091894.7211382035
2.3652172088623047	6571083.17260796
2.368043899536133	6168315.183978379
2.370866537094116	5461459.032495952
2.3736846446990967	5167786.230162505
2.3764986991882324	5339592.625714244
2.3793084621429443	5878449.978316248
2.3821144104003906	6163361.922480933
2.384916305541992	6054045.104644858
2.387714147567749	6043364.796799363
2.3905084133148193	6672877.277338277
2.393299102783203	6927993.490802846
2.3960859775543213	6400552.6344741145
2.398869514465332	5803346.815553224
2.4016497135162354	5727099.032813177
2.4044265747070312	6058297.166323833
2.407200336456299	6623524.037443761
2.409970998764038	6756550.193238451
2.4127390384674072	6318462.5904282825
2.415503978729248	5626173.763106095
2.418266534805298	5630159.061232859
2.4210267066955566	6047391.125257779
2.4237842559814453	6265287.330267896
2.426539897918701	6099106.533202852
2.429293394088745	6053795.4845502
2.4320452213287354	6367426.219840668
2.4347951412200928	6339577.685404415
2.4375438690185547	6284494.3875408275
2.440291166305542	6486452.714388499
2.443037271499634	6626325.424625321
2.445782423019409	6839242.600782996
2.4485268592834473	6567672.648515115
2.451270818710327	5898616.626044879
2.454014539718628	6075824.972093993
2.4567582607269287	6453115.088194092
2.4595019817352295	6680622.3704527635
2.4622461795806885	7154988.184982202
2.4649908542633057	7361421.804424639
2.4677364826202393	6639048.547228454
2.4704833030700684	5841961.79230613
2.473231554031372	5610009.0036575915
2.4759814739227295	5818512.756731293
2.4787333011627197	5703267.595723355
2.481487512588501	5064153.765633401
2.4842441082000732	5124316.765586704
2.4870035648345947	5232219.041179745
2.4897661209106445	4795858.96941918
