#wavelength	surface flux
0.676892	2706.668941049547
0.678297	2799.909917262619
0.679702	2898.337320221024
0.681109	2998.45325178586
0.682517	3100.339402148264
0.683926	3205.4176116688427
0.685337	3315.055103905281
0.686749	3423.5247828353135
0.688164	3535.2782979946746
0.689581	3640.619563263383
0.691	3752.5827651027316
0.692422	3893.6860103194726
0.693847	4010.5245100451207
0.695274	4176.156700931348
0.696705	4315.68242210578
0.698139	4448.011718205825
0.699576	4594.627218745774
0.701017	4770.503315913444
0.702461	4930.830267188507
0.70391	5099.683177031554
0.705362	5269.930666269279
0.706819	5443.245713043679
0.70828	5620.610748599952
0.709745	5802.013121072787
0.711216	5998.6759353073485
0.71269	6194.025436242322
0.71417	6394.56067932405
0.715655	6594.696167876962
0.717145	6787.509525756025
0.71864	7038.591557009204
0.72014	7273.503351698496
0.721647	7505.702766886868
0.723158	7752.509541872621
0.724676	8009.015869296399
0.726199	8270.36589797819
0.727728	8537.614723907447
0.729264	8811.496909186768
0.730805	9084.687424686583
0.732353	9392.572123812752
0.733907	9665.422326353331
0.735468	9941.855082101229
0.737035	10283.774941080832
0.738609	10616.15596821641
0.74019	10958.014795669142
0.741777	11283.611198581664
0.743372	11667.6317364344
0.744973	12015.270747558037
0.746582	12425.998447243011
0.748197	12839.576385739841
0.74982	13279.28165699764
0.751451	13691.643839527393
0.753088	14139.172822008695
0.754734	14589.384142647092
0.756386	15042.846044805918
0.758047	15478.533489608273
0.759715	15894.153900595711
0.76139	16219.16822688429
0.763074	16218.910571531636
0.764765	14506.893031782278
0.766464	9434.615497003704
0.768172	12689.459361420419
0.769887	11035.024001605614
0.77161	16270.567185540689
0.773341	19809.31802551247
0.775081	21011.31922181812
0.776829	21891.424561012616
0.778585	22475.15934936498
0.780349	21734.31549638852
0.782121	24163.306498596987
0.783902	25093.149940644915
0.785691	25919.783106867642
0.787489	26751.84932847061
0.789295	27621.540913980632
0.79111	28511.82655716762
0.792933	29330.370598766174
0.794764	28543.406642047892
0.796604	31104.199402871862
0.798453	32333.09937125285
0.80031	33350.64424486541
0.802176	34425.07148934294
0.804051	35553.598696246816
0.805934	36679.70893931833
0.807826	37866.73888366209
0.809727	38978.45163029739
0.811636	40119.70589726105
0.813554	41449.656906155615
0.81548	42815.15245923617
0.817416	44148.9924846592
0.81936	45544.24127513582
0.821313	47134.05941572113
0.823274	48410.86514903711
0.825244	50087.185049695654
0.827223	51549.01466717964
0.829211	53376.007336718234
0.831208	54964.98340769982
0.833213	56808.33296162203
0.835227	58597.434948558206
0.837249	60399.13683416255
0.83928	62242.99395362957
0.841321	64268.628170383345
0.843369	66288.0943880876
0.845427	68302.28450889973
0.847493	70401.86891038316
0.849567	72646.97891967278
0.851651	74936.3502337158
0.853742	77169.14884081963
0.855843	79627.36487797808
0.857952	82075.46497515198
0.86007	84539.27461725553
0.862196	87004.22700292016
0.864331	89512.46401711275
0.866474	92496.84797271452
0.868626	95337.18958628956
0.870786	98262.31579554548
0.872955	101322.37151515503
0.875132	104423.24820291194
0.877317	107654.17826772426
0.879511	110958.10504283015
0.881713	114290.38078558918
0.883923	117653.89950989024
0.886142	121302.21685212842
0.888369	124953.4828649435
0.890604	128067.63461265225
0.892847	131397.0792216947
0.895099	136028.22672295876
0.897358	137311.5095885119
0.899626	142341.14825739837
0.901901	148489.57539684337
0.904185	153078.9976533496
0.906476	157654.62982958104
0.908776	162210.65975147745
0.911083	167135.38513392617
0.913398	171992.2599335253
0.915721	176374.21704392426
0.918051	181381.2099357364
0.92039	185885.15359827373
0.922736	192482.30435923694
0.925089	195793.05395861046
0.927451	198596.64554235825
0.929819	199851.103804875
0.932195	200130.9110212847
0.934579	196909.0285120865
0.93697	207602.57971613604
0.939369	229444.90433578007
0.941774	238519.65406112204
0.944187	246529.60307690184
0.946607	238319.3147150407
0.949035	244242.31058934753
0.951469	259827.08702559714
0.953911	269523.4464830175
0.956359	262558.75192938163
0.958814	283513.1803880952
0.961277	287753.1080204173
0.963746	302243.83846610424
0.966222	309846.38689160097
0.968705	323247.35694389086
0.971194	327971.90965669823
0.97369	334699.3146350835
0.976193	347979.59811752185
0.978702	359152.04884141224
0.981217	368318.9931429313
0.983739	379135.7964273251
0.986268	388226.2868273809
0.988802	398630.3988106599
0.991343	411088.3625576097
0.99389	421301.3413847221
0.996444	434207.10472402
0.999003	444843.7151634654
1.00157	455622.72759275907
1.00414	467392.6021810229
1.00672	479475.7185906481
1.0093	491253.60289223597
1.01189	503968.08132126497
1.01448	516651.3937581988
1.01708	529448.39204087
1.01969	542760.9896947759
1.0223	556132.2335414868
1.02492	569707.7469809976
1.02754	583717.3020336841
1.03017	597855.8209631394
1.0328	612154.3649009273
1.03544	626995.2133367924
1.03808	641930.1921182808
1.04073	657240.1423416147
1.04339	672821.3600236847
1.04604	688521.1659111865
1.04871	704473.1414229444
1.05138	720995.7411635587
1.05405	737780.340236808
1.05673	754829.5237992792
1.05941	771394.6247376052
1.0621	790469.5396594194
1.06479	810083.9433641707
1.06749	826989.1930871715
1.07019	846509.664612017
1.07289	865779.7041697255
1.0756	885421.7022220446
1.07832	903601.463109283
1.08104	924688.917739009
1.08376	944961.3906945757
1.08649	964155.059155162
1.08922	984413.1189073949
1.09195	1003363.1399559882
1.09469	1022370.7564328327
1.09743	1021176.5579498853
1.10018	1028989.0020611108
1.10293	1055123.6080792272
1.10568	1098523.9482138695
1.10844	1122220.4307796138
1.1112	1135411.4133299568
1.11396	1054518.5235410158
1.11673	1069169.2273125958
1.1195	1130691.711815681
1.12228	1048534.9985078317
1.12505	1008319.0897865829
1.12783	1155271.9231491697
1.13062	1294821.9634241194
1.13341	1259923.702342194
1.1362	1251415.6384846244
1.13899	1384301.8858689435
1.14178	1409539.6890825664
1.14458	1351487.0666282154
1.14738	1267311.2625511307
1.15019	1342349.7648809084
1.153	1532711.9811460793
1.1558	1506400.4312925164
1.15862	1612351.7850637566
1.16143	1628830.3609649737
1.16425	1531862.5508766575
1.16707	1691025.174028635
1.16989	1653800.075954324
1.17271	1713924.0157363294
1.17554	1776931.2343255356
1.17837	1820674.8184687889
1.1812	1858366.9792852593
1.18403	1898923.8737814766
1.18686	1921876.492992162
1.1897	1969059.558200302
1.19253	2012975.9998444936
1.19537	2049393.0886216427
1.19822	2058634.4682934356
1.20106	2119504.2604675526
1.2039	2157131.6287799086
1.20675	2201883.5404114816
1.2096	2238253.546905725
1.21245	2261251.1072503664
1.2153	2311895.041217389
1.21815	2358781.187736258
1.221	2395971.813595026
1.22385	2434588.1178598762
1.22671	2477626.358857705
1.22957	2517617.608316839
1.23242	2558677.6697948347
1.23528	2604921.1860936144
1.23814	2647910.3804017706
1.241	2688129.176345406
1.24387	2732818.717909906
1.24673	2774577.0889809905
1.24959	2817804.583505443
1.25245	2861476.3797974545
1.25532	2905249.2706673653
1.25818	2952605.4662236446
1.26105	2997389.406660924
1.26392	3044295.759525475
1.26678	3088904.623564139
1.26965	3126930.422233509
1.27252	3169071.389850897
1.27538	3227583.4672975778
1.27825	3275003.9530021427
1.28112	3314217.884104409
1.28399	3339562.100829057
1.28686	3411823.3804350044
1.28973	3458029.7708727126
1.2926	3487236.089032731
1.29546	3445416.293835186
1.29833	3527031.480070259
1.3012	3625438.032620312
1.30407	3690994.7421891605
1.30694	3752473.736779751
1.30981	3790009.8495338643
1.31267	3821464.071940162
1.31554	3863160.8591180793
1.31841	3863881.5441293735
1.32128	3972110.557136132
1.32414	4019543.522292126
1.32701	4091916.9944454413
1.32987	4099979.7453285432
1.33274	3994267.8353821533
1.3356	3975180.2482000594
1.33847	3460635.364872339
1.34133	3108809.990502612
1.34419	2696344.4548983257
1.34705	3063516.7309877705
1.34991	2999747.957089381
1.35277	3506837.2679988565
1.35563	3050061.006709684
1.35849	2932952.4907367686
1.36135	3411144.608189905
1.3642	3271301.89010616
1.36706	3649959.0395294484
1.36991	3644892.5917135053
1.37277	4044165.08322883
1.37562	3605097.118488241
1.37847	4667017.231065285
1.38132	4304989.435988603
1.38417	4027059.9484052653
1.38701	3432350.3878779863
1.38986	4036300.583458847
1.39271	3995011.133141611
1.39555	3347947.8512187814
1.39839	3947604.556684907
1.40123	3846672.5169390202
1.40407	4572901.833955356
1.40691	4396866.772516235
1.40974	4869500.858167489
1.41258	4632489.907073168
1.41541	4160160.0693586576
1.41824	3576827.4401340215
1.42107	3967820.792931982
1.4239	3464119.8053184217
1.42673	4571559.536107047
1.42955	4889720.269651517
1.43237	4653441.460835487
1.43519	5006971.445669324
1.43801	5242718.851279973
1.44083	4943208.722031742
1.44365	5211152.160432299
1.44646	5235892.089444968
1.44927	5212653.868848695
1.45208	5317267.487799944
1.45489	4564590.253490445
1.45769	6012732.843680038
1.4605	6424426.711723113
1.4633	5904238.353781154
1.4661	6169828.220532335
1.4689	6183778.714475874
1.47169	6586832.707424253
1.47449	6251239.245379142
1.47728	6666936.508472472
1.48007	6766164.296146744
1.48286	6573942.730425163
1.48564	6774957.093391997
1.48842	7125322.054908119
1.4912	7337939.462973357
1.49398	7409201.608471913
1.49676	7316378.60732333
1.49953	7419273.654298498
1.5023	7388386.1637363285
1.50507	7755562.668481715
1.50784	7816518.739889984
1.51061	7738160.432995381
1.51337	7973277.053517219
1.51613	8053568.6917658765
1.51888	8062882.530613164
1.52164	8160860.43553501
1.52439	8210614.848100462
1.52714	7877742.472703582
1.52989	8046592.430268373
1.53263	8458262.12385135
1.53538	8754162.35935482
1.53812	8871592.06199412
1.54086	8917275.23889323
1.54359	8979910.088517329
1.54632	9097222.945769643
1.54905	9181113.734883366
1.55178	9290603.227653446
1.5545	9340226.994176254
1.55723	9405244.35955039
1.55995	9473968.963725245
1.56266	9555645.241392044
1.56538	9682460.547245631
1.56809	9805470.610553548
1.5708	9838295.643099088
1.57351	9935642.705558026
1.57621	10053810.546946336
1.57891	10105379.251326082
1.58161	10181252.77630158
1.5843	10256190.350287238
1.587	10297236.141118966
1.58969	10397926.543572998
1.59238	10485557.895564068
1.59506	10570251.642023131
1.59774	10649350.043756967
1.60042	10730554.256520463
1.6031	10807793.860136103
1.60577	10874909.704955697
1.60844	10945271.490011426
1.61111	11035385.584764896
1.61378	11111206.948280985
1.61644	11186375.605103899
1.6191	11260523.529746637
1.62176	11271522.438895615
1.62441	11173618.662809163
1.62707	11187028.062966341
1.62971	11245684.88908026
1.63236	11231986.321908282
1.635	11478456.35079235
1.63764	11740922.563542448
1.64028	11820532.59237414
1.64292	11879781.494135072
1.64555	11910062.004608516
1.64818	11980174.234705865
1.65081	12067204.6545073
1.65343	12069034.792177506
1.65605	11841471.404078435
1.65867	12088587.41099298
1.66128	12249220.748831052
1.6639	12251882.6066491
1.66651	11292543.407568732
1.66911	11462785.33970096
1.67172	12515033.986694487
1.67432	12748943.469452543
1.67692	12732293.412194328
1.67951	12810224.578078937
1.68211	12617813.451392205
1.6847	12595877.573236085
1.68728	13077623.230072265
1.68987	13159568.147440208
1.69245	12611695.61689067
1.69503	12444361.110718992
1.6976	12994306.425521238
1.70018	12507878.993897276
1.70275	12459936.484530615
1.70531	12616230.596537028
1.70788	13020383.1248587
1.71044	13562654.611353606
1.713	13772235.629459007
1.71556	13869515.837139377
1.71811	13900370.566408997
1.72066	13729921.0694283
1.72321	13262278.2008514
1.72575	13186698.733415384
1.7283	13221039.652830247
1.73084	13270764.971194195
1.73337	13158561.4861257
1.73591	12717794.916229144
1.73844	13388925.996516097
1.74097	13371860.417148912
1.74349	13517986.169175355
1.74602	14209112.167925334
1.74854	14596211.935752608
1.75105	14502706.45758418
1.75357	14052715.556324754
1.75608	13685566.512823483
1.75859	13800693.531292215
1.7611	13850306.494871497
1.7636	13799289.50811673
1.7661	12691424.268848367
1.7686	12341882.47193964
1.7711	13887864.035390105
1.77359	12947737.36432491
1.77608	11849895.213766048
1.77857	13001212.317697598
1.78105	13150979.9593146
1.78354	12456367.088121545
1.78602	12569453.157928823
1.78849	11847677.664507145
1.79097	10545594.422526615
1.79344	11922804.970895449
1.79591	12510418.537685784
1.79837	12910660.155460995
1.80084	11741918.208064198
1.8033	12688786.474357087
1.80576	12133022.865966938
1.80821	9669117.725561678
1.81067	9443920.404399948
1.81312	11627624.282144273
1.81557	14240754.214454439
1.81801	14046661.183580931
1.82046	13744639.255109025
1.8229	15009146.934653468
1.82533	15759379.441620205
1.82777	15631593.39053292
1.8302	14741157.337162195
1.83263	13294872.450093225
1.83506	14461894.57184514
1.83749	14867271.66038008
1.83991	13707486.987312825
1.84233	14365756.344710307
1.84475	14526974.907500723
1.84716	12403858.7043082
1.84957	12562840.032580698
1.85198	14893815.323983561
1.85439	15553254.415959204
1.8568	13809581.923251003
1.8592	11950600.575947437
1.8616	9930700.124937832
1.864	10219461.737678263
1.86639	11161390.872788185
1.86878	10579644.558842799
1.87118	11546136.284436448
1.87356	11215898.215263482
1.87595	13334644.99629895
1.87833	15674508.37247771
1.88071	15355724.21352778
1.88309	14234429.68544893
1.88547	13096559.762417214
1.88784	13436035.449794874
1.89021	13843442.282304855
1.89258	14022294.356423575
1.89494	14231359.107530486
1.89731	15180889.81860815
1.89967	14728152.435423179
1.90203	13674625.330251774
1.90439	15066048.365685904
1.90674	17028636.70666345
1.90909	17652606.035891272
1.91144	16461012.716496013
1.91379	15150289.2731933
1.91613	16053521.10474597
1.91848	17708721.26538365
1.92082	16333901.548838403
1.92315	13306094.567212407
1.92549	14894602.356294356
1.92782	16686153.478984702
1.93015	15969221.656530268
1.93248	16446226.729872873
1.93481	16951172.01541714
1.93713	13777880.64823346
1.93945	11018441.408924771
1.94177	12353756.49124844
1.94409	12964336.41550669
1.94641	13190866.483740292
1.94872	13457205.412768576
1.95103	14774515.742494775
1.95334	15115991.001887208
1.95564	12000577.078900773
1.95795	10838963.021597039
1.96025	11988721.497179987
1.96255	14353425.38116811
1.96484	16907933.656112477
1.96714	17777770.39105861
1.96943	16940710.013207506
1.97172	17289047.079129245
1.97401	17787532.345426604
1.97629	17070238.467047475
1.97858	17457814.371876344
1.98086	17492377.416870505
1.98314	17545631.66428125
1.98541	18098162.366349366
1.98769	17148457.039336268
1.98996	15629855.46462913
1.99223	16207028.12563444
1.9945	17714866.548112273
1.99677	18141926.523761027
1.99903	17295643.89571978
2.00129	16611780.744665856
2.00355	17464031.80113033
2.00581	18856239.753907688
2.00806	19420778.85831938
2.01031	19922108.197730683
2.01256	20664365.736166816
2.01481	20541114.097936727
2.01706	19412235.40569438
2.0193	19456137.679769102
2.02154	20816968.241175413
2.02378	21306839.458698858
2.02602	20749454.614726905
2.02825	20111613.12721319
2.03049	19828948.015913863
2.03272	20676683.830042258
2.03494	21687445.599156853
2.03717	21943480.345515694
2.03939	22027260.638161395
2.04162	22090586.06505863
2.04384	22091105.441279855
2.04605	21725700.341363892
2.04827	20814210.37333316
2.05048	20722302.479916573
2.05269	21521397.305128954
2.0549	22021981.962640718
2.05711	22091999.97237153
2.05931	21624696.58836335
2.06151	21364600.264517013
2.06371	21755113.31704607
2.06591	22177140.225795496
2.06811	22484043.7875141
2.0703	22736890.14228669
2.07249	22980650.137537625
2.07468	23135437.003795665
2.07686	23236106.476993676
2.07905	23389013.435087048
2.08123	23499956.101992313
2.08341	23454213.629192542
2.08559	23296855.46673775
2.08776	23311379.84528678
2.08994	23471140.800709967
2.09211	23572735.53639059
2.09428	23681343.22559958
2.09645	23750542.68172334
2.09861	23717967.482426465
2.10077	23741162.860184085
2.10293	23891077.67025186
2.10509	24006925.81298678
2.10725	23925359.169066746
2.1094	23633287.05755433
2.11155	23240972.39628053
2.1137	23117234.057878386
2.11585	23428714.12079499
2.11799	23870956.10867879
2.12013	24225538.023230284
2.12227	24412197.790528473
2.12441	24472821.363888115
2.12655	24501337.49353818
2.12868	24518827.827605963
2.13081	24548604.1108223
2.13294	24629877.951763704
2.13507	24732789.28245703
2.13719	24800847.03427609
2.13931	24828862.46912825
2.14143	24830483.261824615
2.14355	24846469.769311704
2.14567	24880477.58002154
2.14778	24854952.276180286
2.14989	24768335.83539086
2.152	24540336.46106784
2.1541	24138647.744820636
2.15621	24168807.84739477
2.15831	24666412.103400704
2.16041	24910424.401244443
2.16251	25014928.775875986
2.1646	25139159.363241408
2.1667	25250517.157833725
2.16879	25328359.237433385
2.17087	25261949.901915673
2.17296	25136986.76378977
2.17504	25205757.609091464
2.17713	25419389.120897774
2.1792	25564686.733536575
2.18128	25628511.19015715
2.18336	25650828.543647088
2.18543	25657478.190452684
2.1875	25654421.03046007
2.18957	25673458.392065912
2.19163	25726443.602313384
2.1937	25726954.64472532
2.19576	25487454.038585693
2.19782	24801373.94515256
2.19987	24233351.278332047
2.20193	24306805.07405844
2.20398	24807216.25738173
2.20603	25419962.639750764
2.20808	25868531.55755001
2.21012	26078135.812211238
2.21217	26044614.62896268
2.21421	25679333.034768518
2.21625	25219595.7404475
2.21828	25134350.185142603
2.22032	25311817.53411843
2.22235	25244530.430361293
2.22438	24869285.00384275
2.22641	24669133.567588802
2.22843	24935208.84702331
2.23046	25254693.21515212
2.23248	25364272.326440074
2.2345	25539232.826566137
2.23651	25654301.21938394
2.23853	25230467.253591396
2.24054	24386940.064162366
2.24255	24233024.839037046
2.24456	24796988.464161865
2.24657	24799381.78652573
2.24857	24288644.914400987
2.25057	23732268.34361941
2.25257	23090965.078126147
2.25457	22116851.46963591
2.25656	22281316.518463545
2.25856	23546293.97451372
2.26055	24349634.293225493
2.26254	24744585.487826046
2.26453	25125730.523848176
2.26651	25223692.933300085
2.2685	25049451.629563536
2.27048	24920616.135401707
2.27246	24988820.586944204
2.27443	24771000.80642181
2.27641	24501200.70026655
2.27838	24924046.347348645
2.28036	25793770.023025297
2.28233	25611645.58311459
2.28429	23463976.25925817
2.28626	21012101.087166384
2.28823	21035449.93847483
2.29019	22364857.18997358
2.29215	22252827.677494343
2.29411	21351341.267210383
2.29607	21153287.354453623
2.29802	22041637.7789318
2.29998	23291841.091332782
2.30193	24618034.199239463
2.30388	25433839.55656065
2.30583	25926764.390857626
2.30778	26190404.604572333
2.30972	26354292.12386402
2.31167	26295337.092624348
2.31361	25013657.408990834
2.31555	22426738.336559385
2.31749	21101721.97138806
2.31943	21686457.99500579
2.32137	21931342.563781273
2.32331	20947843.745041385
2.32524	20467441.28933835
2.32718	21358182.96216144
2.32911	21957655.80037638
2.33104	22004430.4066003
2.33297	22062930.03918855
2.3349	22615891.58733519
2.33683	23260621.315174673
2.33876	23649039.495964527
2.34068	23673542.045952722
2.34261	23411046.620111614
2.34453	22460297.05462423
2.34646	20695628.025896147
2.34838	20157387.630044147
2.3503	20832358.480168056
2.35223	21894808.055182748
2.35415	21841874.81068999
2.35607	21080715.77898342
2.35799	20863547.387726873
2.35991	21462499.4383299
2.36183	22725752.825335126
2.36375	23930313.356306914
2.36566	23212293.800496627
2.36758	20375707.851987198
2.3695	18113389.08327793
2.37142	18010138.80866006
2.37334	18084831.013621636
2.37526	18323226.510559022
2.37718	18648990.061339248
2.3791	19193066.404487
2.38101	19983043.965806335
2.38293	21564672.866634276
2.38485	22298895.36811969
2.38677	22472513.472230393
2.3887	23682289.78107016
2.39062	25783920.517488565
2.39254	26736548.35034939
2.39446	26515738.025492765
2.39639	25211713.875590004
2.39831	23231857.565639902
2.40024	21101521.147822257
2.40216	19883395.0117632
2.40409	20037627.379859567
2.40602	21161891.683519416
2.40795	22362172.276773926
2.40989	23111909.55332671
2.41182	22918820.435307074
2.41376	21295787.950060625
2.4157	19617009.78797532
2.41764	19110767.89297456
2.41958	19715402.49904781
2.42152	20056526.257553868
