#wavelength	surface flux
0.8	2710.231922453992
0.8002000000000001	2722.4229653296934
0.8004000500000003	2732.960345046108
0.8006001500125003	2744.0197869143008
0.8008003000500035	2755.090358810597
0.8010005001250161	2766.9800797661287
0.8012007502500472	2779.0233902740097
0.8014010504376099	2790.681690399399
0.8016014007002193	2801.872059015654
0.8018018010503944	2811.9679771645087
0.8020022515006572	2824.3848997543773
0.8022027520635323	2837.3349507912253
0.8024033027515483	2849.0264480271708
0.8026039035772362	2858.072105578711
0.8028045545531306	2869.0754336553377
0.8030052556917691	2878.3595928039904
0.803206007005692	2895.6142623684113
0.8034068085074435	2908.885838440558
0.8036076602095705	2920.238375508179
0.8038085621246229	2932.539932847997
0.8040095142651542	2944.305540220524
0.8042105166437206	2956.000159417659
0.8044115692728815	2967.265869978273
0.8046126721651998	2977.121417121227
0.8048138253332411	2992.2137845838524
0.8050150287895745	3005.1788572816413
0.805216282546772	3017.812898785226
0.8054175866174087	3029.6248990365075
0.8056189410140631	3042.1001039852295
0.8058203457493168	3054.895990585349
0.8060218008357541	3067.120144664112
0.8062233062859632	3077.7337134861036
0.8064248621125346	3092.2412944218545
0.806626468328063	3105.495383777092
0.8068281249451449	3117.1697707361654
0.8070298319763813	3130.5422588798365
0.8072315894343755	3142.2344077034395
0.8074333973317341	3152.621108098537
0.8076352556810671	3168.8240172322635
0.8078371644949874	3182.8113717181536
0.8080391237861113	3195.830894157484
0.8082411335670578	3208.830201596684
0.8084431938504498	3221.0553551953044
0.8086453046489125	3234.6872737622534
0.8088474659750746	3246.924752317917
0.8090496778415686	3258.8374032812358
0.809251940261029	3270.695635409459
0.8094542532460944	3276.1194243296127
0.8096566168094059	3288.7427215014386
0.8098590309636085	3312.1544401298484
0.8100614957213493	3326.1346297670157
0.8102640110952797	3337.442897045197
0.8104665770980536	3353.897241510845
0.8106691937423283	3361.7139225330666
0.8108718610407639	3337.821194937366
0.8110745790060241	3332.6054006036406
0.8112773476507757	3391.9333156265125
0.8114801669876885	3402.7666928589324
0.8116830370294355	3412.4844521661075
0.8118859577886929	3446.0403275925437
0.8120889292781401	3464.5010394596793
0.8122919515104597	3479.2841562759004
0.8124950244983374	3494.63905713798
0.8126981482544621	3508.162240549958
0.8129013227915257	3521.361246360543
0.8131045481222237	3536.193742053024
0.8133078242592543	3546.829851271741
0.8135111512153191	3543.233845019115
0.813714529003123	3561.1919844349286
0.8139179576353739	3590.0339420000223
0.8141214371247829	3602.6720016635004
0.8143249674840641	3601.735416819609
0.814528548725935	3573.982427898352
0.8147321808631167	3610.269237716859
0.8149358639083326	3653.3478572968684
0.8151395978743097	3646.3902949404333
0.8153433827737784	3677.1034009922228
0.8155472186194719	3709.347279817617
0.8157511054241268	3725.684597426958
0.815955043200483	3739.889318952579
0.8161590319612831	3756.7739198309723
0.8163630717192736	3770.932455662632
0.8165671624872033	3786.8714033717183
0.8167713042778252	3803.7599643483363
0.8169754971038948	3819.7747960585916
0.8171797409781707	3834.190535366906
0.8173840359134155	3849.050619322971
0.8175883819223938	3864.270885289579
0.8177927790178745	3879.967554445319
0.8179972272126291	3890.597869690309
0.8182017265194322	3873.798339912662
0.8184062769510622	3788.0478828799974
0.8186108785203001	3908.950716498262
0.8188155312399301	3956.964509241942
0.8190202351227402	3968.939712478557
0.819224990181521	3990.7680606108447
0.8194297964290664	4004.2580008468276
0.8196346538781738	4012.756849767459
0.8198395625416434	4031.05808003817
0.8200445224322789	4046.404083305398
0.820249533562887	4070.625886761874
0.8204545959462778	4087.488154502497
0.8206597095952644	4104.286159295794
0.8208648745226633	4119.953730951397
0.8210700907412941	4135.077869916327
0.8212753582639793	4153.6910870739985
0.8214806771035456	4169.8181331262995
0.8216860472728215	4186.49131508562
0.8218914687846397	4205.578679953135
0.822096941651836	4222.4827877274665
0.822302465887249	4238.724342222529
0.8225080415037209	4255.686850842994
0.8227136685140968	4255.043941274714
0.8229193469312254	4195.691756977698
0.8231250767679583	4220.906506363261
0.8233308580371503	4291.539173933922
0.8235366907516598	4302.1377708959
0.8237425749243477	4309.661780482635
0.8239485105680789	4356.08738425035
0.824154497695721	4391.229544490899
0.824360536320145	4410.715447525417
0.8245666264542252	4429.012027491356
0.8247727681108388	4446.22317805929
0.8249789613028664	4458.5779513436555
0.8251852060431922	4479.723978758629
0.825391502344703	4500.762714448181
0.8255978502202894	4519.417719209751
0.8258042496828445	4537.513783860637
0.8260107007452654	4554.11201638975
0.8262172034204517	4565.482422546519
0.8264237577213068	4547.984254708488
0.8266303636607373	4511.411498435344
0.8268370212516525	4607.370809818295
0.8270437305069654	4646.399488302877
0.8272504914395923	4663.689398126101
0.8274573040624523	4682.030795898704
0.8276641683884679	4699.584978086293
0.8278710844305652	4717.242497170566
0.8280780522016729	4738.826594342154
0.8282850717147234	4758.0630538316145
0.8284921429826521	4776.954241595411
0.8286992660183978	4792.985060899973
0.8289064408349024	4805.056800385759
0.8291136674451112	4822.457831359848
0.8293209458619727	4848.2509882944405
0.8295282760984382	4869.963985931796
0.829735658167463	4885.175385932678
0.8299430920820048	4905.933674869729
0.8301505778550254	4928.705400195136
0.8303581154994891	4949.7987704004245
0.8305657050283641	4968.9293159499675
0.8307733464546212	4985.980156978157
0.8309810397912352	4996.737417614756
0.8311887850511829	5011.909373053062
0.8313965822474458	4987.293539655985
0.8316044313930077	5010.756084960802
0.8318123325008561	5077.755143961774
0.8320202855839813	5109.246884522178
0.8322282906553774	5129.874396366552
0.8324363477280413	5148.884011472308
0.8326444568149735	5167.358737367665
0.8328526179291771	5188.951667978864
0.8330608310836596	5209.121421460917
0.8332690962914304	5226.381607092391
0.8334774135655034	5247.830828395123
0.833685782918895	5270.581617352891
0.8338942043646247	5289.5337067327055
0.834102677915716	5310.483430373588
0.834311203585195	5332.057743897552
0.8345197813860912	5352.603430150011
0.8347284113314379	5375.156858333823
0.8349370934342709	5396.74540403302
0.8351458277076294	5418.140318984144
0.8353546141645565	5439.437775949397
0.8355634528180977	5458.183084529688
0.8357723436813022	5478.738640162173
0.8359812867672226	5496.967127205198
0.8361902820889144	5517.8370505058465
0.8363993296594368	5543.66752183791
0.8366084294918518	5561.074878426798
0.8368175815992247	5590.174242093421
0.8370267859946247	5609.3117648608795
0.8372360426911234	5624.538483593254
0.8374453517017962	5652.459942446192
0.8376547130397217	5673.130213694627
0.8378641267179816	5699.16356845504
0.8380735927496613	5723.9148131637485
0.8382831111478488	5739.110484053844
0.8384926819256358	5742.156153527657
0.8387023050961173	5766.98609240096
0.8389119806723914	5805.428335957671
0.8391217086675596	5833.0774350217025
0.8393314890947265	5859.634673926961
0.8395413219670003	5882.9085134770985
0.8397512072974922	5903.8344692738465
0.8399611450993165	5920.506524275477
0.8401711353855914	5917.974836539268
0.8403811781694378	5952.9741254076225
0.8405912734639802	5994.371637774623
0.8408014212823464	6020.668246164602
0.8410116216376671	6043.979570932836
0.8412218745430766	6066.189964507907
0.8414321800117124	6092.607622039487
0.8416425380567154	6116.9969622769995
0.8418529486912297	6140.3842816080305
0.8420634119284025	6163.931908065077
0.8422739277813847	6188.4605547841875
0.8424844962633302	6212.166293124886
0.842695117387396	6233.109377586794
0.8429057911667428	6253.548894843319
0.8431165176145345	6279.792116886495
0.8433272967439382	6308.090504251039
0.8435381285681244	6333.345585368772
0.8437490131002665	6357.838401657887
0.8439599503535415	6379.265862293363
0.84417094034113	6390.2812892471275
0.8443819830762154	6420.982025823176
0.8445930785719846	6430.592079719448
0.8448042268416277	6475.174973753031
0.8450154278983382	6507.69421120625
0.8452266817553128	6530.605874911793
0.8454379884257517	6554.7965990919965
0.8456493479228583	6580.393522549545
0.845860760259839	6609.007042018014
0.846072225449904	6632.635415328991
0.8462837435062666	6637.210646693459
0.8464953144421433	6619.610705143026
0.8467069382707537	6659.558391622886
0.8469186150053215	6728.115286433321
0.847130344659073	6761.087139372076
0.8473421272452377	6786.460020895106
0.8475539627770492	6806.276465090892
0.8477658512677435	6837.687578924745
0.8479777927305605	6864.1371918983305
0.8481897871787432	6885.55181934091
0.848401834625538	6917.554840041339
0.8486139350841944	6948.038015027519
0.8488260885679657	6969.202353819655
0.8490382950901076	6984.03084610257
0.8492505546638802	7018.905359257827
0.8494628673025462	7050.635200442637
0.8496752330193721	7081.914680660956
0.8498876518276269	7110.896793871081
0.8501001237405839	7136.921461162055
0.8503126487715191	7163.374539132692
0.850525226933712	7191.4096710201275
0.8507378582404455	7220.13072184037
0.8509505427050057	7247.365141129314
0.8511632803406821	7275.638356972085
0.8513760711607672	7303.52592283531
0.8515889151785576	7331.578874302678
0.8518018124073523	7359.192824885187
0.8520147628604541	7384.123983660275
0.8522277665511693	7405.588751064198
0.8524408234928071	7443.069624249582
0.8526539336986805	7473.702079602158
0.8528670971821053	7501.606173179594
0.8530803139564007	7528.363149352212
0.8532935840348901	7554.93047774947
0.8535069074308987	7583.752710432205
0.8537202841577566	7614.654693250924
0.8539337142287962	7641.3023003481785
0.8541471976573534	7657.856273645012
0.8543607344567677	7695.653016253429
0.8545743246403821	7733.216001396862
0.8547879682215422	7763.790187262718
0.8550016652135977	7791.666498623364
0.8552154156299011	7820.9027549258335
0.8554292194838088	7850.937749502569
0.8556430767886797	7879.387195188268
0.855856987557877	7912.572152594333
0.8560709518047664	7943.707652896719
0.8562849695427177	7973.4451198191355
0.8564990407851035	8003.916424031242
0.8567131655452999	8035.213724219132
0.8569273438366862	8066.052928172429
0.8571415756726455	8095.512930410233
0.8573558610665638	8120.321175662238
0.8575702000318304	8154.479902376224
0.8577845925818384	8187.087539462004
0.857999038729984	8220.083316714028
0.8582135384896665	8251.318248916199
0.858428091874289	8279.075873065573
0.8586426988972576	8310.280788803888
0.8588573595719821	8342.641139847841
0.8590720739118751	8375.359282390955
0.8592868419303532	8405.149389395428
0.8595016636408359	8437.057126214822
0.8597165390567462	8471.248419133883
0.8599314681915105	8503.298865530318
0.8601464510585584	8534.927472618227
0.860361487671323	8566.946450388014
0.8605765780432408	8599.76599319574
0.8607917221877518	8631.233693230562
0.8610069201182988	8664.746632333923
0.8612221718483286	8698.701643756265
0.8614374773912907	8731.894495735873
0.8616528367606385	8764.514396784081
0.8618682499698288	8793.609903579572
0.8620837170323213	8825.856004497715
0.8622992379615795	8860.06691427303
0.8625148127710699	8889.917708281235
0.8627304414742627	8923.470759242484
0.8629461240846313	8961.891465413837
0.8631618606156526	8996.466949835958
0.8633776510808066	9030.525941637492
0.8635934954935769	9064.663291347548
0.8638093938674504	9098.691117902694
0.8640253462159173	9126.943411139442
0.8642413525524714	9150.60363263953
0.8644574128906095	9197.4330596592
0.8646735272438323	9227.140603755817
0.8648896956256433	9254.921700349603
0.8651059180495498	9300.984610119362
0.8653221945290621	9341.155458459623
0.8655385250776946	9374.664670464483
0.8657549097089641	9411.859086283905
0.8659713484363913	9449.168952015683
0.8661878412735006	9485.76997815905
0.866404388233819	9519.509847676316
0.8666209893308775	9553.461809057138
0.8668376445782103	9592.746951176512
0.8670543539893549	9629.219639622897
0.8672711175778525	9662.27596079852
0.8674879353572469	9695.079069009236
0.8677048073410862	9732.655390661723
0.8679217335429217	9770.532834251551
0.8681387139763074	9807.74034162867
0.8683557486548015	9842.395266836767
0.8685728375919655	9881.24552976727
0.8687899808013633	9918.818115339378
0.8690071782965637	9956.793483099429
0.869224430091138	9993.611450822884
0.8694417361986609	10031.678298822804
0.8696590966327107	10068.227913900668
0.869876511406869	10101.15822735156
0.8700939805347206	10136.929238956536
0.8703115040298544	10180.086665661913
0.870529081905862	10220.78169745265
0.8707467141763385	10259.235180647613
0.8709644008548827	10295.936871687049
0.8711821419550964	10333.63868529912
0.8713999374905854	10371.743072073494
0.871617787474958	10412.993557164928
0.8718356919218269	10449.739609982606
0.8720536508448075	10486.882044299959
0.8722716642575187	10529.4564726897
0.8724897321735832	10569.607792358542
0.8727078546066265	10607.763297917536
0.8729260315702784	10647.9483698339
0.873144263078171	10688.313683796128
0.8733625491439405	10728.119821256705
0.8735808897812266	10768.169952674378
0.8737992850036719	10802.97116646661
0.874017734824923	10832.631733905944
0.8742362392586293	10884.675604298776
0.874454798318444	10926.007990285776
0.8746734120180236	10969.153794603038
0.8748920803710283	11009.143385210537
0.875110803391121	11049.430344804754
0.8753295810919689	11091.34335946951
0.875548413487242	11134.436295518364
0.8757673005906139	11175.493773160695
0.8759862424157616	11214.734676265452
0.8762052389763657	11254.527906682855
0.8764242902861098	11299.130784104824
0.8766433963586814	11338.785937919294
0.8768625572077712	11383.092483343049
0.8770817728470732	11424.625019929013
0.8773010432902849	11468.355753057198
0.8775203685511077	11511.732005078116
0.8777397486432454	11554.274140089867
0.8779591835804065	11596.468436293198
0.8781786733763015	11639.732441542701
0.8783982180446457	11682.971823951282
0.878617817599157	11724.364525586087
0.8788374720535569	11769.603889606198
0.8790571814215703	11812.942485583373
0.8792769457169257	11854.954461029825
0.879496764953355	11899.462786375387
0.8797166391445934	11944.449539225674
0.8799365683043796	11988.13984923557
0.8801565524464557	12031.249876306285
0.8803765915845676	12076.126819321184
0.8805966857324639	12121.564783519607
0.880816834903897	12162.834169801232
0.881037039112623	12202.479658485658
0.8812572983724012	12248.570564622218
0.8814776126969944	12291.877430607685
0.8816979821001687	12342.448349149494
0.8819184065956938	12389.931660873242
0.8821388861973429	12434.533870475932
0.8823594209188923	12481.299065860392
0.882580010774122	12527.752265264584
0.8828006557768155	12574.432899140224
0.8830213559407598	12620.446331552957
0.8832421112797452	12666.290746306773
0.8834629218075651	12702.518618425558
0.8836837875380171	12734.271040362966
0.8839047084849018	12790.288103194522
0.884125684662023	12851.491850945611
0.8843467160831886	12899.429295185357
0.8845678027622095	12946.459956813853
0.8847889447129001	12993.393419200574
0.8850101419490785	13040.458906126563
0.8852313944845657	13089.830638563853
0.885452702333187	13138.85832327939
0.8856740655087704	13183.699147027786
0.8858954840251476	13217.645842143458
0.8861169578961539	13267.274964554997
0.886338487135628	13327.421909012146
0.886560071757412	13378.537981863567
0.8867817117753515	13429.13553083837
0.8870034072032955	13477.974843759095
0.8872251580550963	13526.030574824219
0.8874469643446101	13572.135917433672
0.8876688260856963	13619.823619884919
0.8878907432922178	13672.851315938125
0.8881127159780409	13720.901419858767
0.8883347441570356	13761.21216955152
0.8885568278430749	13811.516320196413
0.8887789670500358	13869.422604513953
0.8890011617917983	13920.710154571669
0.8892234120822464	13974.516325106933
0.8894457179352669	14026.505128455032
0.8896680793647509	14076.065839774654
0.8898904963845921	14116.878477149125
0.8901129690086883	14169.022661787249
0.8903354972509405	14229.843309864169
0.8905580811252535	14281.050371561694
0.8907807206455347	14265.762995234942
0.8910034158256963	14115.953877286644
0.8912261666796527	14331.23104993379
0.8914489732213227	14474.005842658264
0.8916718354646282	14486.150734596917
0.8918947534234944	14509.599891416412
0.8921177271118502	14517.719979017143
0.8923407565436284	14388.331375254485
0.8925638417327644	14596.805333838467
0.8927869826931977	14787.214258564341
0.8930101794388711	14849.263613125368
0.8932334319837308	14768.192906444061
0.8934567403417267	14684.741144202886
0.8936801045268123	14960.752173016308
0.8939035245529441	15062.05351374528
0.8941270004340824	15090.931418101703
0.894350532184191	15041.088391117524
0.8945741198172371	15146.256850408405
0.8947977633471915	15284.865315188243
0.8950214627880284	15351.145771234358
0.8952452181537254	15401.969185536846
0.8954690294582639	15453.917995435759
0.8956928967156286	15512.616114175937
0.8959168199398075	15545.962739327753
0.8961407991447926	15581.657914557072
0.8963648343445789	15579.915441229958
0.896588925553165	15501.459541282886
0.8968130727845534	15664.151217725537
0.8970372760527496	15656.034638843501
0.8972615353717629	14898.036748644603
0.8974858507556059	14785.677348157375
0.8977102222182949	15831.338229150495
0.8979346497738496	16085.383760624347
0.8981591334362931	16143.619754148276
0.8983836732196523	16198.581691963125
0.8986082691379572	16232.829551079572
0.8988329212052417	15703.10047159217
0.8990576294355432	14912.987333462825
0.8992823938429022	15728.154552159758
0.8995072144413631	16348.725838179394
0.8997320912449734	16534.873814952185
0.8999570242677847	16607.020499988594
0.9001820135238516	16660.125240232035
0.9004070590272328	16553.017780787963
0.9006321607919896	16255.07092913931
0.9008573188321878	16487.422454105217
0.9010825331618959	16545.70459833287
0.9013078037951865	16890.91118185549
0.9015331307461353	17005.34626391636
0.9017585140288219	17073.2500275293
0.9019839536573292	17148.610050326613
0.9022094496457435	17215.79519315413
0.9024350020081551	17274.376486114063
0.9026606107586572	17332.04345582933
0.902886275911347	17387.13991408799
0.9031119974803249	17415.28913196555
0.9033377754796951	17489.56547176156
0.903563609923565	17579.640383044552
0.903789500826046	17626.58299361865
0.9040154482012526	17634.46119635181
0.904241452063303	17754.695947998393
0.9044675124263188	17803.462969247008
0.9046936293044254	17836.25039062223
0.9049198027117517	17920.928979468346
0.9051460326624297	18006.45956882537
0.9053723191705955	18089.62192848911
0.9055986622503881	18159.680749027
0.9058250619159507	18224.290960185048
0.9060515181814298	18279.7227049129
0.9062780310609752	18286.57384394151
0.9065046005687405	18339.448401204158
0.906731226718883	18449.894155096074
0.9069579095255627	18526.197993292524
0.907184649002944	18576.39581641191
0.907411445165195	18664.583268868064
0.9076382980264862	18709.709384846366
0.907865207600993	18752.796933871294
0.9080921739028933	18843.011458423538
0.9083191969463691	18909.854242162397
0.9085462767456058	18925.80226921255
0.9087734133147922	18922.79274013537
0.9090006066681211	19095.377830111665
0.909227856819788	19193.08018088381
0.9094551637839932	19249.535710707456
0.9096825275749393	19329.427748663787
0.9099099482068329	19331.469140440335
0.9101374256938848	19394.928735745932
0.9103649600503083	19424.533510039222
0.9105925512903209	19573.640866542402
0.9108201994281437	19650.416951791147
0.9110479044780008	19718.054395317286
0.9112756664541204	19809.61338454641
0.911503485370734	19887.578089113882
0.9117313612420768	19954.73579579604
0.9119592940823873	20033.5670584756
0.912187283905908	20113.553073073115
0.9124153307268845	20183.61747878771
0.9126434345595664	20251.60443515478
0.9128715954182063	20321.085679737283
0.9130998133170609	20384.52383764397
0.9133280882703902	20422.816152575953
0.913556420292458	20500.949712611586
0.9137848093975312	20583.741277109242
0.9140132555998806	20680.321919214064
0.9142417589137806	20729.018223815667
0.9144703193535092	20541.733573977235
