#wavelength	surface flux
0.6450077295303345	48.14072093964223
0.6472567915916443	52.13748400923031
0.6494921445846558	56.42288904354337
0.6517150402069092	60.94576545352449
0.6539263725280762	65.80904626477563
0.6561272740364075	70.97131707519955
0.6583186388015747	76.52301393470371
0.6605015397071838	82.39663896917638
0.6626768708229065	88.64091924348229
0.6648455858230591	95.33050334450249
0.6670085787773132	102.42924246771615
0.6691668033599854	110.00165753750139
0.6713210344314575	117.97502971148013
0.6734722256660461	126.59072253303887
0.6756211519241333	135.68827152377514
0.6777685880661011	145.33503410510312
0.6799154281616211	155.63171887293979
0.6820623278617859	166.55116170800622
0.6842101216316223	178.18777742688172
0.6863595843315125	190.5413332175681
0.688511312007904	203.6463627161947
0.6906660795211792	217.54279683482426
0.6928245425224304	231.51837233264735
0.6949873566627502	247.91703716134532
0.6971551775932312	264.8750491722726
0.6993286609649658	282.05059442267566
0.7015084028244019	301.46095921413354
0.7036949396133423	321.52566403123404
0.7058889269828796	343.04259155722434
0.7080909013748169	365.4155944530448
0.710301399230957	389.2852832313875
0.712520956993103	415.14311283138323
0.7147500514984131	442.0472624249512
0.7169892191886902	464.9681493242631
0.7192389369010925	500.8103289473322
0.7214996814727783	533.5081307154271
0.723771870136261	567.7355757032574
0.7260559797286987	605.1169145775652
0.7283523678779602	644.5811723899993
0.7306615710258484	682.7801426578955
0.7329838871955872	730.6920650723883
0.7353196740150452	774.3918237221388
0.7376693487167358	827.4320880567657
0.7400332689285278	881.973484972288
0.7424117922782898	938.0880082268782
0.7448052167892456	998.4522048045037
0.7472138404846191	1062.753987896174
0.7496379613876343	1131.5964258260617
0.7520779371261597	1203.1889974449696
0.7545340061187744	1279.0514488425852
0.7570064663887024	1358.123659095573
0.7594954967498779	1437.8695013768288
0.7620013952255249	1508.398642105407
0.7645244002342224	1493.266150180396
0.7670646905899048	1324.1314281639634
0.7696225643157959	1457.4642087107254
0.7721980810165405	1838.5765048887417
0.7747915983200073	2066.5884373289946
0.7774031162261963	2220.3690240668266
0.7800329327583313	2271.843014772841
0.7826811671257019	2524.9837974380653
0.7853479981422424	2689.7043838032946
0.7880334854125977	2860.2090331090662
0.7907378077507019	3042.8284202160794
0.7934610247612	3215.555562449053
0.7962033748626709	3407.250712078098
0.7989648580551147	3658.894837250123
0.801745593547821	3890.609682488865
0.8045456409454346	4137.511824407239
0.8073651194572449	4397.010351970593
0.8102040886878967	4633.392558466777
0.8130625486373901	4911.0008580242875
0.8159406185150146	5246.00369562473
0.8188382983207703	5533.483943211863
0.8217556476593018	5931.076137478824
0.8246926665306091	6291.9496419261
0.8276493549346924	6690.876673791329
0.8306257724761963	7109.046739601959
0.8336219191551208	7576.891543172728
0.8366377949714661	8031.967399477551
0.8396733403205872	8529.06305820349
0.8427285552024841	9086.462153168579
0.8458034992218018	9627.72046440978
0.8488980531692505	10227.680670317483
0.8520121574401855	10869.645074515141
0.8551458716392517	11539.859201008028
0.8582990765571594	12251.101807406485
0.8614717125892639	12926.343756912624
0.8646637797355652	13679.106987799398
0.8678751587867737	14588.17643915465
0.8711057901382446	15444.236591635927
0.8743556141853333	16390.825018002768
0.87762451171875	17386.878615012956
0.8809124231338501	18427.3082692265
0.8842192888259888	19529.982569818592
0.8875449895858765	20690.40324875566
0.8908893465995789	21705.115146512977
0.894252359867096	22983.341502359166
0.8976338505744934	23331.865485254468
0.9010337591171265	25557.891477298108
0.9044519662857056	27420.123899588634
0.9078882932662964	28923.135262453787
0.9113426208496094	30538.430904301244
0.914814829826355	32262.889298569986
0.9183048605918884	33905.13465020668
0.9218124747276306	35978.86073820372
0.925337553024292	37178.12214669825
0.9288799166679382	36829.848281384904
0.9324395060539246	34081.53165807456
0.9360161423683167	39457.782586507645
0.9396095871925354	45875.79725073747
0.943219780921936	48763.83979929909
0.9468464851379395	45733.867965260644
0.9504896402359009	48372.80939020026
0.9541489481925964	54526.40696378472
0.9578243494033813	58030.62033899909
0.9615156054496765	60687.22614622106
0.9652225375175476	64616.8081477782
0.9689450263977051	71349.62864934884
0.9726828336715698	71991.2791250242
0.9764357805252075	78459.98716056834
0.9802037477493286	81711.10299487239
0.983986496925354	88037.63077550367
0.9877838492393494	92936.91760435273
0.9915955662727356	98204.31062352513
0.9954215884208679	103704.11908216233
0.9992615580558777	108958.09044467883
1.0031154155731201	114253.19282641131
1.0069829225540161	119814.89904737534
1.0108637809753418	125693.57657329855
1.0147579908370972	131696.7662577353
1.018665075302124	137960.45113505755
1.022585153579712	144467.7869694484
1.0265177488327026	151203.98280218925
1.0304628610610962	158209.52472166976
1.0344202518463135	165470.23542734687
1.0383895635604858	173006.19443059742
1.0423706769943237	180810.6657060641
1.0463634729385376	188867.86084399908
1.0503677129745483	197219.46915358695
1.0543830394744873	205999.39849478746
1.058409333229065	214881.65479419343
1.0624464750289917	224702.69607849384
1.0664942264556885	234252.4881965375
1.0705522298812866	244580.07452427706
1.0746204853057861	255310.64421350372
1.0786986351013184	265193.008687914
1.0827864408493042	276930.11028829607
1.086883783340454	287025.61907352356
1.0909905433654785	297586.66920006234
1.0951062440872192	307289.1083790082
1.0992310047149658	308122.5017716679
1.10336434841156	310241.66639060044
1.1075061559677124	320958.1514423763
1.1116561889648438	314696.2020560883
1.115814208984375	260076.04270810974
1.1199802160263062	317479.64371337055
1.124153733253479	264023.3818864146
1.1283347606658936	352893.87784156617
1.1325229406356812	372949.09594998456
1.1367181539535522	383826.91085072095
1.1409201622009277	453473.997185032
1.145128846168518	410758.0248278927
1.1493438482284546	376978.7647628544
1.1535650491714478	464179.2371246012
1.1577922105789185	511590.1417329124
1.1620250940322876	520743.4798621135
1.1662636995315552	543426.4184017343
1.170507550239563	539596.7772824856
1.174756646156311	581172.180852581
1.1790107488632202	624057.2872514745
1.1832695007324219	655755.9979152574
1.1875330209732056	679445.8719709276
1.191800832748413	709406.8164742211
1.1960728168487549	732538.7109813588
1.2003488540649414	755558.9293743569
1.2046287059783936	788184.8371932433
1.2089121341705322	813933.8141977348
1.2131990194320679	832015.0638174677
1.2174891233444214	870022.0769424682
1.2217823266983032	897045.5016802679
1.2260783910751343	926853.6950729487
1.230377197265625	955019.8305104397
1.2346785068511963	987021.000313426
1.238982081413269	1018639.6947687328
1.2432878017425537	1049000.1973001934
1.2475954294204712	1079564.3024936614
1.2519049644470215	1112029.5974295253
1.256216049194336	1145700.7637971833
1.2605286836624146	1177939.343737013
1.2648425102233887	1211855.6817367484
1.2691574096679688	1243888.1475224344
1.2734732627868652	1275123.0936619788
1.2777899503707886	1314941.5364617957
1.2821072340011597	1338405.0751546028
1.2864248752593994	1374952.4274978412
1.2907428741455078	1408719.0464092095
1.2950609922409058	1385034.644375048
1.2993791103363037	1449138.9375770406
1.303696870803833	1498336.8769060047
1.3080145120620728	1555364.6192087312
1.3123314380645752	1573219.2486314536
1.3166478872299194	1604974.0817449705
1.3209635019302368	1632954.8990985805
1.3252781629562378	1686422.571977505
1.3295916318893433	1674384.659470635
1.3339040279388428	1571483.2546758046
1.3382149934768677	1072184.748582091
1.3425244092941284	890144.489534591
1.3468321561813354	845093.9604835024
1.3511382341384888	847273.2368281538
1.3554422855377197	665711.0984383972
1.3597444295883179	546742.1476793203
1.3640443086624146	812574.4674082854
1.3683418035507202	771283.0879128954
1.3726370334625244	1054266.334047887
1.3769296407699585	1209728.335407344
1.381219506263733	1096405.236462222
1.3855066299438477	827297.3511670035
1.3897908926010132	1141893.8303425189
1.3940720558166504	918144.0875062514
1.3983501195907593	1053481.7987658654
1.4026249647140503	1197995.277852237
1.4068963527679443	1171834.387364512
1.4111642837524414	1286461.5726590247
1.4154287576675415	1194569.2677003369
1.419689416885376	952903.5312141178
1.4239463806152344	851198.5093512665
1.4281994104385376	1465420.9555935448
1.4324485063552856	1250595.906617658
1.436693549156189	1529405.3182400656
1.440934419631958	1313314.8581872284
1.4451709985733032	1597972.2944451047
1.449403166770935	1778262.2509091608
1.453631043434143	1933170.7446776882
1.4578542709350586	2635920.9707501074
1.4620729684829712	2373805.1803654497
1.4662868976593018	2523609.66955445
1.4704961776733398	2592509.6159066614
1.4747005701065063	2558270.10210329
1.4788999557495117	2834626.869730954
1.4830944538116455	2739902.89543244
1.4872838258743286	3005243.261744084
1.491468071937561	3167494.148996901
1.4956470727920532	3222520.9343609614
1.4998208284378052	3438045.0682797744
1.5039892196655273	3523805.6920271832
1.5081522464752197	3653801.950973937
1.5123097896575928	3785777.16182176
1.5164618492126465	3849971.303253624
1.5206083059310913	3916284.2200481603
1.5247491598129272	4093513.5832333886
1.5288842916488647	3894087.577316771
1.5330137014389038	4335375.961950201
1.5371372699737549	4525837.142834775
1.541254997253418	4561154.545366088
1.545366883277893	4653127.675190053
1.5494728088378906	4790593.628566386
1.5535727739334106	4859025.760186089
1.5576666593551636	4932807.47044901
1.561754584312439	5026800.026358421
1.5658363103866577	5114707.09849441
1.5699119567871094	5224770.114333586
1.5739814043045044	5315553.391451654
1.5780447721481323	5397789.657959274
1.582101821899414	5478490.470304938
1.5861525535583496	5514912.137170791
1.5901970863342285	5611812.415412708
1.5942351818084717	5701329.774121437
1.5982669591903687	5800362.910997448
1.6022924184799194	5881562.468945123
1.606311559677124	5943245.5964883305
1.6103241443634033	6033082.745442673
1.6143304109573364	6112868.927453375
1.6183301210403442	6180946.574007049
1.6223233938217163	6095487.82556477
1.6263102293014526	5927876.4179020645
1.6302905082702637	5743991.697833321
1.634264349937439	5995085.12772448
1.638231635093689	6441561.230310856
1.6421923637390137	6539511.667257634
1.646146535873413	6541082.045820761
1.6500942707061768	6565857.40370511
1.6540353298187256	6504116.268239855
1.6579699516296387	6530771.162314394
1.661897897720337	6713966.17806667
1.6658192873001099	5995893.14710131
1.6697341203689575	6082398.626005532
1.6736423969268799	7118708.579256036
1.677544116973877	7139309.910440171
1.6814392805099487	6999092.415957193
1.6853278875350952	6905137.156965297
1.6892099380493164	7409276.544580617
1.6930854320526123	6466906.771243941
1.696954369544983	6882143.32019351
1.7008168697357178	6002139.200137713
1.7046726942062378	6120538.8415175
1.708522081375122	6787642.150428973
1.712364912033081	7708982.698096175
1.7162011861801147	7895837.556930066
1.7200311422348022	7668066.555033566
1.723854422569275	6766976.156910184
1.7276713848114014	6880400.015222377
1.731481909751892	6853648.742483166
1.7352858781814575	6634251.641207631
1.7390835285186768	7510127.005564837
1.7428747415542603	7443057.826892181
1.7466596364974976	7862881.803507384
1.7504380941390991	8019969.718482599
1.7542102336883545	6813938.3963475805
1.7579760551452637	6692440.791687849
1.7617355585098267	6652772.187351227
1.7654887437820435	6159156.181544865
1.7692357301712036	6120972.948259897
1.7729763984680176	6249592.6960514225
1.776710867881775	4926741.417040406
1.7804391384124756	5715588.773806778
1.7841613292694092	4453083.932339177
1.7878772020339966	4579808.130142921
1.7915871143341064	4270278.396633956
1.7952908277511597	5004544.026932944
1.7989884614944458	5431686.313717299
1.8026801347732544	3967211.9205661216
1.806365728378296	3844082.20037251
1.8100452423095703	3327673.6088107303
1.8137187957763672	4632001.954142114
1.817386507987976	5193428.268481904
1.8210482597351074	4643278.184446028
1.8247040510177612	6082922.323444431
1.828354001045227	5003490.07328458
1.8319982290267944	4804935.804236018
1.8356364965438843	4722055.756597184
1.8392690420150757	4546232.5299855275
1.8428958654403687	4774786.919214058
1.8465168476104736	4378019.361946741
1.8501322269439697	4746019.023263406
1.8537418842315674	5961579.400928307
1.8573459386825562	4498225.35682411
1.860944390296936	2920909.9984826385
1.864537239074707	2789217.168055273
1.8681244850158691	3173071.7175179925
1.871706247329712	3391409.791903
1.8752825260162354	3874113.682149109
1.8788533210754395	5927021.106396467
1.8824186325073242	5855657.5699471915
1.8859784603118896	4800195.843685625
1.8895330429077148	5098502.255184605
1.8930821418762207	5735213.868981769
1.8966259956359863	6644633.47425783
1.9001644849777222	5437032.860432661
1.9036977291107178	5848020.41403016
1.9072256088256836	7427627.792370013
1.9107483625411987	7389714.788290322
1.9142658710479736	5541997.776423903
1.9177782535552979	8017770.560664412
1.9212853908538818	6157028.173708867
1.9247875213623047	5663174.349476149
1.9282845258712769	6214207.912154544
1.9317764043807983	5340307.560152328
1.9352631568908691	6332705.52918523
1.9387450218200684	3314475.283696928
1.942221760749817	4601236.856353926
1.9456936120986938	4924509.948434786
1.9491604566574097	4763385.3310431205
1.952622413635254	6587462.5612458885
1.956079363822937	4918260.8416654095
1.959531545639038	4024464.9363789344
1.962978720664978	4891508.972674276
1.966421127319336	7238914.202673969
1.9698586463928223	6999129.9133016225
1.9732913970947266	7934458.77976121
1.9767193794250488	7346285.809829736
1.9801424741744995	6948652.459779302
1.9835609197616577	8170481.345808389
1.9869745969772339	9130590.518567368
1.990383505821228	7048952.431239945
1.9937876462936401	8109784.475984049
1.9971871376037598	8680246.291537665
2.000581979751587	7939539.667653426
2.003972291946411	9527525.118651142
2.007357597351074	10142149.786455434
2.0107386112213135	10772656.011608014
2.0141148567199707	12100276.325045306
2.017486572265625	10808489.272369796
2.0208535194396973	12361287.546180388
2.0242159366607666	13184817.688087488
2.027573823928833	12237181.920746323
2.0309269428253174	11926769.151847392
2.034275770187378	13753930.515700959
2.0376198291778564	14061950.611019112
2.040959596633911	13881644.753100613
2.044294595718384	14143897.394166045
2.0476250648498535	13589156.534936737
2.0509510040283203	13236196.558335895
2.054272413253784	13978162.559683312
2.057589530944824	14260587.844952304
2.0609018802642822	13508966.12101452
2.0642096996307373	13890028.558764275
2.0675129890441895	14424550.79125237
2.0708119869232178	14761488.533392355
2.074106216430664	15099194.66118709
2.0773961544036865	15208102.433731653
2.080681324005127	15659109.884647746
2.0839622020721436	15613220.744054554
2.087238311767578	15401431.164802829
2.090510129928589	15576946.170009462
2.0937774181365967	15767990.495327972
2.0970399379730225	15895861.112350963
2.1002981662750244	15693651.51779354
2.1035518646240234	15837049.70104904
2.1068007946014404	16030782.806057947
2.1100454330444336	15590823.359675659
2.1132853031158447	15114909.956927476
2.116520881652832	15432466.426913219
2.1197516918182373	16223387.2668311
2.1229779720306396	16537849.05467028
2.12619948387146	16585945.301362537
2.1294167041778564	16609113.636255959
2.132629156112671	16710025.286946645
2.1358368396759033	16856417.914624788
2.139039993286133	16919649.564782407
2.1422386169433594	16867551.264994573
2.145432472229004	16853780.64597865
2.1486217975616455	16588912.063225746
2.151806354522705	15883002.942621527
2.1549863815307617	15165802.728472847
2.1581614017486572	16177039.277444733
2.16133189201355	16654900.368396176
2.1644976139068604	16989307.31029585
2.167658567428589	17226511.66528359
2.1708147525787354	17142510.976896275
2.173966407775879	16841398.39229184
2.1771130561828613	17197714.24970352
2.1802549362182617	17465085.70511133
2.183391809463501	17297869.055831745
2.1865241527557373	17355231.3090612
2.1896514892578125	17531944.143894017
2.1927738189697266	17620466.320990674
2.1958916187286377	16868799.962003693
2.1990041732788086	14352043.825292278
2.2021119594573975	13671461.270576939
2.2052149772644043	15509627.066265685
2.208312749862671	17457279.72659053
2.2114057540893555	17907358.155300215
2.214493751525879	17061390.76241586
2.217576742172241	15900219.326466821
2.2206547260284424	16248709.994072182
2.2237277030944824	15864104.239163162
2.2267956733703613	15223782.318820043
2.2298583984375	15112750.997671982
2.2329163551330566	15117019.22357837
2.235969066619873	15878215.364413617
2.2390167713165283	14522726.774523921
2.2420592308044434	12762304.172636244
2.2450966835021973	14073650.332628649
2.248128890991211	13631109.20645382
2.2511560916900635	13148942.433425719
2.254178285598755	12665880.975510443
2.257194995880127	13061669.210892119
2.260206699371338	13882957.484748108
2.2632133960723877	13382626.317325758
2.266214609146118	13886653.233815288
2.2692108154296875	14529068.422044786
2.2722020149230957	15131118.620026458
2.2751877307891846	14041522.353488734
2.278168201446533	13881224.569186013
2.2811436653137207	16278288.401553651
2.284113883972168	14133973.730901325
2.287078857421875	11700935.653720181
2.290038824081421	13253225.82095144
2.2929933071136475	12275574.529178014
2.295942783355713	10863402.759536432
2.298887014389038	10525262.910853114
2.301826238632202	12572145.340587206
2.304760217666626	15217754.788745774
2.3076889514923096	15933669.379826145
2.310612440109253	16200432.7139378
2.3135311603546143	15086559.907567175
2.3164443969726562	10783508.680257548
2.319352865219116	10639253.316898208
2.322256088256836	11297047.33417243
2.3251543045043945	9979254.360597555
2.328047275543213	10273352.553785715
2.330935478210449	10498420.344461834
2.3338186740875244	10923531.538927287
2.3366971015930176	11476056.214889249
2.3395702838897705	11629819.1384043
2.3424389362335205	10999009.375953952
2.3453025817871094	9963044.894369511
2.348161458969116	9331517.247603392
2.351015567779541	10111819.55432468
2.353865146636963	11751051.472023366
2.3567099571228027	12507063.964397252
2.3595502376556396	13366402.865907716
2.3623859882354736	14876907.234345056
2.3652172088623047	15824200.769609272
2.368043899536133	12135843.520404119
2.370866537094116	8658458.490781771
2.3736846446990967	7968014.094460173
2.3764986991882324	8006579.223241053
2.3793084621429443	10490246.629986241
2.3821144104003906	12546895.767013475
2.384916305541992	12055176.037737027
2.387714147567749	12616260.5693943
2.3905084133148193	16045920.745785538
2.393299102783203	16871560.41492921
2.3960859775543213	14020352.428488804
2.398869514465332	10101922.02925596
2.4016497135162354	7972644.411209992
2.4044265747070312	7955274.554533757
2.407200336456299	9211781.967954135
2.409970998764038	11047111.695690837
2.4127390384674072	11593211.840934664
2.415503978729248	9971534.505030207
2.418266534805298	8545458.808479505
2.4210267066955566	8478127.366823096
2.4237842559814453	8632288.472442048
2.426539897918701	7853028.308669277
2.429293394088745	7899181.425440235
2.4320452213287354	9207512.560633248
2.4347951412200928	8806679.97153291
2.4375438690185547	8774536.16002785
2.440291166305542	10077929.12727066
2.443037271499634	9965448.894255348
2.445782423019409	9377577.7374037
2.4485268592834473	8804437.718162253
2.451270818710327	7709645.643518993
2.454014539718628	7897779.899640615
2.4567582607269287	9222552.233792316
2.4595019817352295	10402065.235307055
2.4622461795806885	11589107.107668672
2.4649908542633057	10976901.251161328
2.4677364826202393	7805430.005118239
2.4704833030700684	6457858.748284445
2.473231554031372	7317857.643586226
2.4759814739227295	8361479.8557547545
2.4787333011627197	8125927.225713226
2.481487512588501	7272468.426826194
