#wavelength	surface flux
0.6450077295303345	1449.18919365135
0.6472567915916443	1535.7642044746763
0.6494921445846558	1625.9998459029077
0.6517150402069092	1720.5028287779705
0.6539263725280762	1817.630958285544
0.6561272740364075	1920.0549093300474
0.6583186388015747	2024.0304245937803
0.6605015397071838	2143.291050093608
0.6626768708229065	2260.9206917265255
0.6648455858230591	2383.644210243631
0.6670085787773132	2511.911446483713
0.6691668033599854	2644.2306177512837
0.6713210344314575	2690.463206355004
0.6734722256660461	2930.937387703963
0.6756211519241333	3082.9324541610913
0.6777685880661011	3237.9647946730174
0.6799154281616211	3406.1512123640778
0.6820623278617859	3574.412786474456
0.6842101216316223	3745.5082962212655
0.6863595843315125	3924.6092591504953
0.688511312007904	4085.2401120259865
0.6906660795211792	4223.078911773186
0.6928245425224304	4475.832529596631
0.6949873566627502	4737.226786438998
0.6971551775932312	4979.102786465747
0.6993286609649658	5186.489062726982
0.7015084028244019	5495.397519341701
0.7036949396133423	5782.902263883425
0.7058889269828796	6065.645294666343
0.7080909013748169	6354.1630891420755
0.710301399230957	6656.392578811037
0.712520956993103	6975.672110536053
0.7147500514984131	7304.51478848725
0.7169892191886902	7625.9443051439375
0.7192389369010925	8014.068181000585
0.7214996814727783	8387.97580228352
0.723771870136261	8785.508877370079
0.7260559797286987	9202.877393999239
0.7283523678779602	9633.425679120957
0.7306615710258484	10073.71780171359
0.7329838871955872	10543.826820665598
0.7353196740150452	10912.930338328966
0.7376693487167358	11457.845464097698
0.7400332689285278	11957.825502306603
0.7424117922782898	12460.62902044069
0.7448052167892456	13015.52098432943
0.7472138404846191	13697.856896081292
0.7496379613876343	14409.134086815933
0.7520779371261597	15067.863325270891
0.7545340061187744	15813.108188770579
0.7570064663887024	16553.14559768976
0.7594954967498779	17269.68216733746
0.7620013952255249	17890.986780765445
0.7645244002342224	17275.625084292267
0.7670646905899048	12146.76445995197
0.7696225643157959	14105.108934949185
0.7721980810165405	20399.05498483946
0.7747915983200073	22575.568583683526
0.7774031162261963	23790.907051800776
0.7800329327583313	23607.754666534674
0.7826811671257019	26139.15855979851
0.7853479981422424	27367.684445999635
0.7880334854125977	28620.294414390486
0.7907378077507019	29941.65568162721
0.7934610247612	31000.898000341844
0.7962033748626709	32303.583761940274
0.7989648580551147	34209.54140075168
0.801745593547821	35755.16114537553
0.8045456409454346	37457.180418672484
0.8073651194572449	39210.68911232964
0.8102040886878967	40928.80322790305
0.8130625486373901	42873.51443309636
0.8159406185150146	44878.54502262954
0.8188382983207703	46799.22073706444
0.8217556476593018	49079.36677712854
0.8246926665306091	51292.04869725358
0.8276493549346924	53594.541732691374
0.8306257724761963	56074.41804289286
0.8336219191551208	58673.17407351601
0.8366377949714661	61315.35047377479
0.8396733403205872	64036.132043858706
0.8427285552024841	66997.30241850116
0.8458034992218018	69952.17655415549
0.8488980531692505	73123.63688763187
0.8520121574401855	76404.79658286311
0.8551458716392517	79710.48524860611
0.8582990765571594	83239.4328862417
0.8614717125892639	86895.10137810883
0.8646637797355652	90513.27794234987
0.8678751587867737	94626.20044793621
0.8711057901382446	98960.39560842873
0.8743556141853333	103401.42313139339
0.87762451171875	108063.0812561356
0.8809124231338501	112851.14480510123
0.8842192888259888	117696.21409266371
0.8875449895858765	122941.7037395343
0.8908893465995789	127787.1179814694
0.894252359867096	133367.03985602787
0.8976338505744934	137496.7024241842
0.9010337591171265	144969.51835391382
0.9044519662857056	151616.36757399398
0.9078882932662964	158052.21025200302
0.9113426208496094	164931.87783407315
0.914814829826355	171607.53002570698
0.9183048605918884	178578.3065773797
0.9218124747276306	186101.01221642463
0.925337553024292	192475.63671071373
0.9288799166679382	198191.82854267137
0.9324395060539246	200866.89712578105
0.9360161423683167	208510.46872907336
0.9396095871925354	225908.45576524778
0.943219780921936	236957.3632586649
0.9468464851379395	236412.39741699104
0.9504896402359009	245966.5353133664
0.9541489481925964	261344.3199536663
0.9578243494033813	274375.3942242487
0.9615156054496765	282319.1948421269
0.9652225375175476	296134.4924931376
0.9689450263977051	311981.41740643803
0.9726828336715698	320162.9032281024
0.9764357805252075	336153.58888787025
0.9802037477493286	348591.9284460554
0.983986496925354	363450.1659977702
0.9877838492393494	377335.3465776954
0.9915955662727356	392802.6312845852
0.9954215884208679	408136.6533700115
0.9992615580558777	423489.4560962112
1.0031154155731201	438919.26244724647
1.0069829225540161	455384.34871383535
1.0108637809753418	472378.63976802386
1.0147579908370972	489745.6031874001
1.018665075302124	507494.4294072887
1.022585153579712	526026.052781797
1.0265177488327026	544956.438150825
1.0304628610610962	564413.3847475824
1.0344202518463135	584404.7052979829
1.0383895635604858	604963.6367267303
1.0423706769943237	626109.0192229428
1.0463634729385376	647730.3266456692
1.0503677129745483	669723.7832485073
1.0543830394744873	692854.3884343798
1.058409333229065	716183.8615328423
1.0624464750289917	741677.4558338769
1.0664942264556885	766999.8152469092
1.0705522298812866	792678.2610390927
1.0746204853057861	819328.4138137279
1.0786986351013184	845314.7861380288
1.0827864408493042	873410.732278971
1.086883783340454	900758.7120558706
1.0909905433654785	928341.0606134334
1.0951062440872192	954685.1789910893
1.0992310047149658	966818.1900123929
1.10336434841156	1000122.605690085
1.1075061559677124	1043018.0874301407
1.1116561889648438	1072046.226746384
1.115814208984375	954905.9839170998
1.1199802160263062	1066564.5562592223
1.124153733253479	1003795.4656823511
1.1283347606658936	1141036.5450681355
1.1325229406356812	1229654.4769364542
1.1367181539535522	1222607.958456306
1.1409201622009277	1318460.8346449619
1.145128846168518	1291985.8234016327
1.1493438482284546	1239485.3429909425
1.1535650491714478	1422834.7122726357
1.1577922105789185	1477823.2822116206
1.1620250940322876	1499302.137623189
1.1662636995315552	1542626.1697360664
1.170507550239563	1555855.9433855135
1.174756646156311	1633751.1661939372
1.1790107488632202	1691353.1636429613
1.1832695007324219	1744929.8301808145
1.1875330209732056	1782867.4963493405
1.191800832748413	1843561.276915368
1.1960728168487549	1887489.549054442
1.2003488540649414	1936291.523247639
1.2046287059783936	1990552.7847656447
1.2089121341705322	2042130.6556981527
1.2131990194320679	2085757.285594636
1.2174891233444214	2148608.776727049
1.2217823266983032	2201218.1219265223
1.2260783910751343	2256704.882859411
1.230377197265625	2308821.753536093
1.2346785068511963	2368317.456608681
1.238982081413269	2425862.242863178
1.2432878017425537	2482234.4793137396
1.2475954294204712	2539565.7050704225
1.2519049644470215	2599551.7567707542
1.256216049194336	2659122.704362405
1.2605286836624146	2720279.553752323
1.2648425102233887	2783459.6042020586
1.2691574096679688	2841876.4073062623
1.2734732627868652	2902439.199690307
1.2777899503707886	2970930.4742671354
1.2821072340011597	3024846.871932607
1.2864248752593994	3093701.295200965
1.2907428741455078	3155037.199973253
1.2950609922409058	3166470.8259765077
1.2993791103363037	3252508.3858878645
1.303696870803833	3352530.7621535966
1.3080145120620728	3421254.156168775
1.3123314380645752	3486662.583729117
1.3166478872299194	3548164.460964727
1.3209635019302368	3610260.071528109
1.3252781629562378	3693247.5327901007
1.3295916318893433	3755071.671701854
1.3339040279388428	3701323.254594936
1.3382149934768677	3478403.777170601
1.3425244092941284	3001284.7519136546
1.3468321561813354	3002075.17662538
1.3511382341384888	3120131.236308426
1.3554422855377197	3144174.8143803407
1.3597444295883179	3484855.7847549384
1.3640443086624146	3358435.7218616097
1.3683418035507202	3511405.604911925
1.3726370334625244	4005374.477508555
1.3769296407699585	4111368.0501559507
1.381219506263733	4272097.603487407
1.3855066299438477	3703065.3482159283
1.3897908926010132	3923510.962983042
1.3940720558166504	3863950.5254379953
1.3983501195907593	3947743.6468664096
1.4026249647140503	4331412.6628608685
1.4068963527679443	4406405.041128523
1.4111642837524414	4660589.058363209
1.4154287576675415	4119647.267179154
1.419689416885376	4107435.7729961625
1.4239463806152344	3765552.6502287006
1.4281994104385376	4818462.828179307
1.4324485063552856	4631157.506066907
1.436693549156189	5115130.878328572
1.440934419631958	4992685.74857896
1.4451709985733032	5181602.426239316
1.449403166770935	5147155.43130291
1.453631043434143	4923176.379424601
1.4578542709350586	5677574.760918711
1.4620729684829712	5705491.29051024
1.4662868976593018	5861132.525573074
1.4704961776733398	6136649.856684345
1.4747005701065063	5992104.24893224
1.4788999557495117	6355037.923668298
1.4830944538116455	6262248.120719659
1.4872838258743286	6512643.133816504
1.491468071937561	6787677.25516699
1.4956470727920532	6841033.108686515
1.4998208284378052	6859541.955535963
1.5039892196655273	7036665.972172735
1.5081522464752197	7160324.008044004
1.5123097896575928	7237364.349423362
1.5164618492126465	7393693.573382089
1.5206083059310913	7422761.632355196
1.5247491598129272	7498169.203187268
1.5288842916488647	7310402.884380199
1.5330137014389038	7744986.008039231
1.5371372699737549	7978429.3447533995
1.541254997253418	8068417.214399973
1.545366883277893	8181888.085109761
1.5494728088378906	8290136.787845263
1.5535727739334106	8409129.704832908
1.5576666593551636	8479199.642976306
1.561754584312439	8570718.301929757
1.5658363103866577	8715136.615117222
1.5699119567871094	8827585.432869168
1.5739814043045044	8940135.713934917
1.5780447721481323	9039871.3955403
1.582101821899414	9141127.836941902
1.5861525535583496	9226726.35425697
1.5901970863342285	9335290.881817037
1.5942351818084717	9449874.326259319
1.5982669591903687	9552101.932042258
1.6022924184799194	9659160.164206283
1.606311559677124	9757917.510041105
1.6103241443634033	9853809.240612127
1.6143304109573364	9960190.797336658
1.6183301210403442	10061865.687177876
1.6223233938217163	10113700.022290979
1.6263102293014526	10137708.543903831
1.6302905082702637	10234280.488616353
1.634264349937439	10323608.93033166
1.638231635093689	10541628.47286862
1.6421923637390137	10637761.369539997
1.646146535873413	10713300.639238885
1.6500942707061768	10817234.318891441
1.6540353298187256	10869280.669796523
1.6579699516296387	10902580.144068107
1.661897897720337	11071615.88841224
1.6658192873001099	10828566.60966573
1.6697341203689575	10971827.358846555
1.6736423969268799	11415148.582329724
1.677544116973877	11460263.663446415
1.6814392805099487	11505684.91760944
1.6853278875350952	11557557.500544261
1.6892099380493164	11824104.964004694
1.6930854320526123	11555702.921361651
1.696954369544983	11844482.0528007
1.7008168697357178	11699976.966213906
1.7046726942062378	11813485.181871098
1.708522081375122	12101672.612236928
1.712364912033081	12368534.727628417
1.7162011861801147	12476008.35289295
1.7200311422348022	12482504.15244661
1.723854422569275	12234549.030154599
1.7276713848114014	12271454.641527923
1.731481909751892	12341914.013451062
1.7352858781814575	12005912.640304813
1.7390835285186768	12401555.890689977
1.7428747415542603	12355785.140893742
1.7466596364974976	13033632.526928646
1.7504380941390991	13195349.233769465
1.7542102336883545	12936308.07651851
1.7579760551452637	12845162.903450713
1.7617355585098267	12948848.481197692
1.7654887437820435	12415446.250337133
1.7692357301712036	12041347.989050327
1.7729763984680176	12694221.368744114
1.776710867881775	11542313.971376162
1.7804391384124756	12852025.688283999
1.7841613292694092	12328770.231531855
1.7878772020339966	12071419.492152363
1.7915871143341064	10502599.429193186
1.7952908277511597	11984355.313602991
1.7989884614944458	12247133.370099526
1.8026801347732544	12027288.953216152
1.806365728378296	11602432.620397052
1.8100452423095703	9963197.09444696
1.8137187957763672	12562835.233149746
1.817386507987976	13527586.111325204
1.8210482597351074	13474822.469625501
1.8247040510177612	14736970.21749072
1.828354001045227	14762283.64013366
1.8319982290267944	13247163.029504262
1.8356364965438843	14365716.928288586
1.8392690420150757	13806348.273344275
1.8428958654403687	14350964.735505765
1.8465168476104736	13088554.11446731
1.8501322269439697	13338808.284006184
1.8537418842315674	14858379.703160824
1.8573459386825562	13217863.081890564
1.860944390296936	10506469.914427804
1.864537239074707	11574291.191802466
1.8681244850158691	11011055.912691703
1.871706247329712	11564282.508553272
1.8752825260162354	12409701.309629582
1.8788533210754395	15133052.59970069
1.8824186325073242	14227934.075310526
1.8859784603118896	12968098.77988292
1.8895330429077148	13901013.861467427
1.8930821418762207	14050057.964240424
1.8966259956359863	14755792.504484931
1.9001644849777222	14141924.692702726
1.9036977291107178	13838972.728644801
1.9072256088256836	16171961.561177626
1.9107483625411987	16185707.82008809
1.9142658710479736	15235804.550819905
1.9177782535552979	16424099.856223451
1.9212853908538818	14975879.873367315
1.9247875213623047	13839284.992791649
1.9282845258712769	16049819.760702448
1.9317764043807983	15767152.694243643
1.9352631568908691	15833123.57364504
1.9387450218200684	11838085.380634107
1.942221760749817	12895000.884440953
1.9456936120986938	12882892.742283784
1.9491604566574097	13330514.083464721
1.952622413635254	14979638.154312627
1.956079363822937	11911511.880722651
1.959531545639038	12649179.581828816
1.962978720664978	15382197.167543245
1.966421127319336	17092166.199282456
1.9698586463928223	16758196.569871185
1.9732913970947266	17424889.454878315
1.9767193794250488	16691613.736076394
1.9801424741744995	17148863.55587059
1.9835609197616577	17117441.609360505
1.9869745969772339	16662612.99955178
1.990383505821228	15004991.848478463
1.9937876462936401	16696406.009717079
1.9971871376037598	17544521.752495207
2.000581979751587	16423424.817724857
2.003972291946411	16914271.20655896
2.007357597351074	18290549.87844441
2.0107386112213135	18845484.476614088
2.0141148567199707	19026946.364870947
2.017486572265625	18137902.171940356
2.0208535194396973	18866019.742414717
2.0242159366607666	19330541.13383741
2.027573823928833	18716810.668570977
2.0309269428253174	18357359.584824294
2.034275770187378	19471095.59448322
2.0376198291778564	19815261.779179174
2.040959596633911	19915071.907180727
2.044294595718384	19894463.082529012
2.0476250648498535	19258165.826072186
2.0509510040283203	19122998.05196606
2.054272413253784	19825325.569850694
2.057589530944824	19934446.227194544
2.0609018802642822	19524893.889880326
2.0642096996307373	19947837.5066047
2.0675129890441895	20290118.992971517
2.0708119869232178	20543325.832869146
2.074106216430664	20736740.150726292
2.0773961544036865	20851551.40442717
2.080681324005127	20964006.4255081
2.0839622020721436	20946184.263943892
2.087238311767578	20900581.5170407
2.090510129928589	21056366.126907755
2.0937774181365967	21162395.259085007
2.0970399379730225	21235749.255062114
2.1002981662750244	21253993.226853516
2.1035518646240234	21401872.811434753
2.1068007946014404	21435135.16734911
2.1100454330444336	21194277.81778462
2.1132853031158447	20989107.492989667
2.116520881652832	21262508.32359413
2.1197516918182373	21635846.37949182
2.1229779720306396	21805951.668320082
2.12619948387146	21863178.366459906
2.1294167041778564	21898223.727431234
2.132629156112671	21969819.645851716
2.1358368396759033	22069298.088727217
2.139039993286133	22130526.20512536
2.1422386169433594	22154355.725750387
2.145432472229004	22205530.899467394
2.1486217975616455	22224525.025877323
2.151806354522705	22163725.59484495
2.1549863815307617	22013150.179891758
2.1581614017486572	22250692.138222154
2.16133189201355	22413666.990958616
2.1644976139068604	22483049.838082004
2.167658567428589	22577435.318547722
2.1708147525787354	22589905.089802098
2.173966407775879	22566716.055963565
2.1771130561828613	22733363.264094517
2.1802549362182617	22836934.810303282
2.183391809463501	22893024.700576145
2.1865241527557373	22917577.41949802
2.1896514892578125	22940808.621546242
2.1927738189697266	23001791.962637942
2.1958916187286377	22922426.898768
2.1990041732788086	22581361.10124748
2.2021119594573975	22609282.674447596
2.2052149772644043	22933015.916490518
2.208312749862671	23217569.3514283
2.2114057540893555	23311417.461786773
2.214493751525879	23100695.96339509
2.217576742172241	22935407.0898366
2.2206547260284424	23058836.40246625
2.2237277030944824	22922964.74141465
2.2267956733703613	22838456.284681104
2.2298583984375	23114987.958150886
2.2329163551330566	23263439.124800622
2.235969066619873	23327818.45358053
2.2390167713165283	23106381.9558299
2.2420592308044434	22856736.79808586
2.2450966835021973	23175547.014860068
2.248128890991211	22986110.46924508
2.2511560916900635	22605805.547691755
2.254178285598755	21704550.304907594
2.257194995880127	21917318.42461109
2.260206699371338	22957309.217494465
2.2632133960723877	23318573.592067335
2.266214609146118	23499093.025624923
2.2692108154296875	23343040.40504363
2.2722020149230957	23322447.195379417
2.2751877307891846	23305549.63828921
2.278168201446533	23449240.60711641
2.2811436653137207	23910518.0857118
2.284113883972168	22480217.228871293
2.287078857421875	20400186.777190976
2.290038824081421	21388166.73310775
2.2929933071136475	21149295.467291143
2.295942783355713	21038192.90394058
2.298887014389038	22316191.28057231
2.301826238632202	23490348.118635558
2.304760217666626	23950372.41735431
2.3076889514923096	24194473.835167173
2.310612440109253	24366606.282551315
2.3135311603546143	23646475.026297063
2.3164443969726562	21886273.000484195
2.319352865219116	21773039.157944076
2.322256088256836	21194515.144226693
2.3251543045043945	20570103.413514446
2.328047275543213	21722845.41944011
2.330935478210449	21658446.65684345
2.3338186740875244	21175810.92308455
2.3366971015930176	22141824.70737484
2.3395702838897705	23032852.568508238
2.3424389362335205	22852140.724579334
2.3453025817871094	21167408.938013736
2.348161458969116	20267273.166966993
2.351015567779541	21462985.635588177
2.353865146636963	21734908.10549737
2.3567099571228027	20321575.563092172
2.3595502376556396	20144774.946371306
2.3623859882354736	21509069.7156641
2.3652172088623047	21212266.111951176
2.368043899536133	18551418.28275136
2.370866537094116	18621584.384645242
2.3736846446990967	19712432.126896057
2.3764986991882324	19936609.43374435
2.3793084621429443	19114878.37921742
2.3821144104003906	19730434.115390632
2.384916305541992	21712350.82149116
2.387714147567749	22391465.01816758
2.3905084133148193	23801638.440183952
2.393299102783203	24552463.087143496
2.3960859775543213	24351020.87851843
2.398869514465332	22721502.34454001
2.4016497135162354	20973547.96592884
2.4044265747070312	21203484.318871766
2.407200336456299	22184528.374986373
2.409970998764038	22785742.59429381
2.4127390384674072	21879229.869297124
2.415503978729248	19969074.393570125
2.418266534805298	20501834.179906905
2.4210267066955566	21548843.486851383
2.4237842559814453	21348482.204134576
2.426539897918701	20478142.662892275
2.429293394088745	19353428.926326312
2.4320452213287354	19241959.628869023
2.4347951412200928	19437201.668398593
2.4375438690185547	19977524.703538727
2.440291166305542	20035492.5139714
2.443037271499634	20449941.74007092
2.445782423019409	22118388.218421172
2.4485268592834473	22542077.49334173
2.451270818710327	21754986.423162725
2.454014539718628	21348610.70499203
2.4567582607269287	20465194.279942635
2.4595019817352295	20273634.89515454
2.4622461795806885	22180484.823640652
2.4649908542633057	24124397.25809755
2.4677364826202393	23687061.120886642
2.4704833030700684	22448329.0337368
2.473231554031372	21694960.0376338
2.4759814739227295	21567464.913965497
