#wavelength	surface flux
0.676892	1343.5670975265377
0.678297	1393.4364822598293
0.679702	1445.1282512590699
0.681109	1499.1954820809633
0.682517	1554.4635910024554
0.683926	1611.6620590134632
0.685337	1670.8294720484303
0.686749	1731.6628675468908
0.688164	1794.6812759155575
0.689581	1859.404427264688
0.691	1926.180744556218
0.692422	1994.283997096379
0.693847	2066.4557596173445
0.695274	2141.8493534652234
0.696705	2218.902259636971
0.698139	2297.4857267860925
0.699576	2378.705757144057
0.701017	2464.208505879819
0.702461	2551.3604247241883
0.70391	2641.751262090165
0.705362	2735.059562843139
0.706819	2831.331573627096
0.70828	2930.5599528065313
0.709745	3032.5271388308693
0.711216	3139.6736984816803
0.71269	3248.788751109854
0.71417	3361.936934354756
0.715655	3476.97072372142
0.717145	3590.008218101846
0.71864	3721.2863884036624
0.72014	3852.196198615871
0.721647	3987.080294503712
0.723158	4124.969428480742
0.724676	4267.164926420819
0.726199	4413.86052014732
0.727728	4567.136353356977
0.729264	4722.09845588068
0.730805	4882.494493002187
0.732353	5053.339433626586
0.733907	5221.540497164078
0.735468	5395.5076029229585
0.737035	5582.853696154449
0.738609	5770.831182715732
0.74019	5965.928069325954
0.741777	6163.352209714584
0.743372	6373.495810443085
0.744973	6581.093541962488
0.746582	6803.044732346079
0.748197	7028.631957883774
0.74982	7258.78113126556
0.751451	7484.860993876473
0.753088	7713.727244346605
0.754734	7935.575469208308
0.756386	8142.385373727483
0.758047	8314.916484674208
0.759715	8420.94734682295
0.76139	8383.562903219414
0.763074	8038.122551124723
0.764765	7145.706857952706
0.766464	5990.232374142124
0.768172	6794.664594164393
0.769887	6603.736899166483
0.77161	8176.709317408015
0.773341	10020.239405727943
0.775081	11120.496624151616
0.776829	11882.068339996804
0.778585	12324.830702673335
0.780349	11912.09699666927
0.782121	13509.73219202413
0.783902	14158.547813397065
0.785691	14699.316180405156
0.787489	15239.069089282832
0.789295	15789.541023214366
0.79111	16347.56847937904
0.792933	16844.488726652926
0.794764	16332.012250612283
0.796604	17918.67678720084
0.798453	18744.542819882012
0.80031	19393.815780486617
0.802176	20063.483859616885
0.804051	20757.06355718139
0.805934	21464.16167529797
0.807826	22195.73643887097
0.809727	22935.64558316727
0.811636	23684.979089743614
0.813554	24461.266571847733
0.81548	25319.11705429509
0.817416	26174.711157008347
0.81936	27082.407256758524
0.821313	28007.0331639114
0.823274	28870.276487037438
0.825244	29915.999251654302
0.827223	30907.741346121184
0.829211	31937.66194042025
0.831208	33008.91045761874
0.833213	34127.874720709944
0.835227	35261.26206387847
0.837249	36424.077988446195
0.83928	37645.90819570065
0.841321	38909.42932719778
0.843369	40210.39843720797
0.845427	41531.72874708525
0.847493	42909.90670191596
0.849567	44325.21344021637
0.851651	45789.02636307608
0.853742	47280.79958695529
0.855843	48845.50650549042
0.857952	50441.99916958611
0.86007	52053.67659589824
0.862196	53494.48623547853
0.864331	55251.92633663775
0.866474	57201.40406882489
0.868626	59080.802218588986
0.870786	60993.1636732784
0.872955	62980.055600913845
0.875132	65035.92603654657
0.877317	67146.72679915994
0.879511	69305.14185872728
0.881713	71539.70283215349
0.883923	73846.21092638545
0.886142	76204.90615550619
0.888369	78624.86650110163
0.890604	81035.57602699277
0.892847	83468.59595203075
0.895099	86126.8216769089
0.897358	88441.62505976578
0.899626	91372.69812120062
0.901901	94574.50001690784
0.904185	97650.17047993239
0.906476	100667.18435203058
0.908776	103690.80346813622
0.911083	106841.11988638276
0.913398	110240.7887353104
0.915721	113546.56123733782
0.918051	116960.99014749828
0.92039	120492.01129951343
0.922736	124402.22648764357
0.925089	127662.59904637671
0.927451	130085.94494761128
0.929819	131528.7047203937
0.932195	133579.43562796875
0.934579	136902.0324326407
0.93697	143754.10606548816
0.939369	151507.27936904313
0.941774	156665.21253512273
0.944187	160048.9556284847
0.946607	162986.20582859658
0.949035	167813.92272838595
0.951469	173903.29591110506
0.953911	179362.5360673493
0.956359	181469.0474212931
0.958814	189818.6024723621
0.961277	195064.36134896756
0.963746	201936.8847172886
0.966222	207997.95832885287
0.968705	215330.72816568834
0.971194	220810.75322623347
0.97369	226676.8559148447
0.976193	234232.3946476329
0.978702	241316.72270299136
0.981217	248046.8991431365
0.983739	255370.3757453253
0.986268	262771.48359886033
0.988802	270319.62991216336
0.991343	278049.07944000565
0.99389	285783.78553854715
0.996444	293890.03185337083
0.999003	301799.3763106117
1.00157	309681.04832790035
1.00414	318058.8849117621
1.00672	326576.6583753612
1.0093	335208.8832121666
1.01189	344163.36989101756
1.01448	353198.349166067
1.01708	362443.4532329442
1.01969	371951.56417849514
1.0223	381590.22302463616
1.02492	391461.39036555245
1.02754	401520.53429833223
1.03017	411790.3427547356
1.0328	422232.29771665484
1.03544	432998.243474143
1.03808	443855.7818855788
1.04073	455030.41401956807
1.04339	466405.0891739355
1.04604	477924.2895116227
1.04871	489742.4827095119
1.05138	501816.4510306012
1.05405	514098.0309112024
1.05673	526640.1127072715
1.05941	539277.9760186067
1.0621	553117.0844707467
1.06479	567180.4586645988
1.06749	580513.0671550164
1.07019	594446.3512188204
1.07289	608541.3170781014
1.0756	622906.8391056876
1.07832	637304.1150062785
1.08104	652187.8920268639
1.08376	667437.4016366999
1.08649	682376.8932161711
1.08922	697810.1720698203
1.09195	712760.3763635836
1.09469	728069.2732704555
1.09743	741192.6419585792
1.10018	753766.4842177267
1.10293	765543.1867021812
1.10568	777143.5132155813
1.10844	790812.105122687
1.1112	790626.1848118244
1.11396	780805.1143499971
1.11673	796421.2524571454
1.1195	831828.7907416935
1.12228	807767.5254654376
1.12505	820491.4570524369
1.12783	901183.101234807
1.13062	941543.7585270605
1.13341	889097.064696
1.1362	943519.8876231395
1.13899	1010550.6594545769
1.14178	1033248.2665065732
1.14458	1025643.7724011306
1.14738	1016892.1098796364
1.15019	1054089.0279719657
1.153	1101778.1550520556
1.1558	1112070.81717555
1.15862	1155486.1988533451
1.16143	1174256.3489199793
1.16425	1183366.1728990637
1.16707	1230781.2014679662
1.16989	1249906.554691576
1.17271	1278943.9434161505
1.17554	1308797.5884984774
1.17837	1340998.3838128946
1.1812	1376967.8762257553
1.18403	1402247.1306942261
1.18686	1431273.3520040244
1.1897	1457808.7620875868
1.19253	1489728.359928797
1.19537	1519284.3351388357
1.19822	1546404.424080274
1.20106	1577525.0156375747
1.2039	1605859.3411444067
1.20675	1636447.3361137589
1.2096	1666486.2858573806
1.21245	1695174.0029930044
1.2153	1728400.9637207221
1.21815	1760639.3542967872
1.221	1791249.2567612457
1.22385	1823474.0115495792
1.22671	1856309.994057189
1.22957	1889490.3165701856
1.23242	1922221.7787839375
1.23528	1957808.0950053062
1.23814	1991017.7475049424
1.241	2023898.38035761
1.24387	2059444.0955032369
1.24673	2093276.1539845837
1.24959	2128279.0458194427
1.25245	2163134.976195937
1.25532	2199656.8189453236
1.25818	2236023.6113232262
1.26105	2273220.2873721854
1.26392	2310260.077392544
1.26678	2347431.2596503263
1.26965	2384916.2174159223
1.27252	2421014.0512424824
1.27538	2461716.159561587
1.27825	2498786.943810454
1.28112	2537252.530388922
1.28399	2572563.452043027
1.28686	2611498.5914137345
1.28973	2651224.967014695
1.2926	2684711.128546307
1.29546	2711557.520333297
1.29833	2758809.4054453596
1.3012	2802797.0295242616
1.30407	2847684.6780587705
1.30694	2892133.404475491
1.30981	2937111.191015435
1.31267	2974923.895354469
1.31554	3014248.092490594
1.31841	3035025.2998890984
1.32128	3101572.587506596
1.32414	3135554.020842785
1.32701	3173927.1671888027
1.32987	3169173.1240819814
1.33274	3133039.0136613743
1.3356	3083944.3394526686
1.33847	2617427.833445307
1.34133	2384885.8266137955
1.34419	2283552.457670333
1.34705	1996051.7880357278
1.34991	2038849.0743044005
1.35277	2457775.9585692566
1.35563	1818957.3269478919
1.35849	1683013.9386984853
1.36135	1887644.7492190588
1.3642	2468240.1111916555
1.36706	2614787.6152185863
1.36991	2722834.068396558
1.37277	2917683.251585331
1.37562	2908126.8089763382
1.37847	3134756.156348036
1.38132	2610111.903025411
1.38417	2453563.986075409
1.38701	2194738.1442370205
1.38986	2685673.743261619
1.39271	2595160.794361754
1.39555	2375621.734417099
1.39839	2851272.7531929747
1.40123	2931116.0248420956
1.40407	3191449.944576998
1.40691	3199753.1530477265
1.40974	3116161.379200858
1.41258	3235567.0372398617
1.41541	3198253.065124197
1.41824	2626022.1444862015
1.42107	2968519.468472596
1.4239	2890485.6710956893
1.42673	3531006.347198668
1.42955	3687685.45942742
1.43237	3339396.615908311
1.43519	3629924.607270593
1.43801	3911399.3884891844
1.44083	3821973.2717442545
1.44365	4134586.3814117266
1.44646	4243239.211209336
1.44927	4394044.96466153
1.45208	4513639.7870716285
1.45489	4439065.151534832
1.45769	4926946.59778219
1.4605	5163117.694529632
1.4633	4922643.8569845725
1.4661	5248042.553780364
1.4689	5112958.87159813
1.47169	5361920.129422901
1.47449	5405418.7199639985
1.47728	5490171.256753229
1.48007	5571006.272913785
1.48286	5574881.932829794
1.48564	5730462.665658983
1.48842	5794632.72678816
1.4912	5914239.437433215
1.49398	6009447.323093022
1.49676	6035025.234576979
1.49953	6194612.606323684
1.5023	6213556.104923964
1.50507	6363485.631494797
1.50784	6429240.138361783
1.51061	6530010.706819326
1.51337	6607999.321816082
1.51613	6720307.610294115
1.51888	6800641.739507469
1.52164	6882484.973119209
1.52439	6945102.55884486
1.52714	6987174.585554931
1.52989	7090626.756849417
1.53263	7223819.095650683
1.53538	7279668.446285883
1.53812	7346522.364573022
1.54086	7414860.6281614555
1.54359	7460204.316982785
1.54632	7563432.408845323
1.54905	7636212.672649845
1.55178	7737205.89985411
1.5545	7803151.446141252
1.55723	7859262.123158124
1.55995	7907880.638661319
1.56266	7976319.862829335
1.56538	8076164.923044026
1.56809	8168173.653640637
1.5708	8208897.360707752
1.57351	8289528.969384804
1.57621	8382072.0103905955
1.57891	8435942.347874409
1.58161	8504801.430207642
1.5843	8567156.42361363
1.587	8612323.9700483
1.58969	8696126.414620357
1.59238	8771675.299299195
1.59506	8841754.355291724
1.59774	8907277.41387619
1.60042	8984073.123051632
1.6031	9046479.01410715
1.60577	9112022.728338044
1.60844	9181230.206390383
1.61111	9251848.033018364
1.61378	9315758.799320925
1.61644	9380749.753042921
1.6191	9440334.451002706
1.62176	9463680.634345211
1.62441	9419933.01114937
1.62707	9397892.435098667
1.62971	9281562.997665143
1.63236	9334571.145294946
1.635	9657876.277802167
1.63764	9839481.471404647
1.64028	9861831.38383358
1.64292	9960619.241212524
1.64555	9974028.834066397
1.64818	10080152.66274679
1.65081	10159062.969074726
1.65343	10195802.68229202
1.65605	10135662.895279821
1.65867	10286050.171093894
1.66128	10384262.30885086
1.6639	10338947.39584694
1.66651	9732978.751348503
1.66911	9910057.489516066
1.67172	10596721.025147984
1.67432	10756374.16833974
1.67692	10767429.52613476
1.67951	10834156.979556557
1.68211	10759806.30483911
1.6847	10763304.31941307
1.68728	10996016.309142059
1.68987	11076513.352811363
1.69245	10857741.073819008
1.69503	10777221.539495815
1.6976	11056387.996379996
1.70018	10826419.536323348
1.70275	10854846.825326666
1.70531	11016735.150472067
1.70788	11162991.478443122
1.71044	11452126.12541662
1.713	11603167.241090829
1.71556	11677350.16208103
1.71811	11735652.902976166
1.72066	11652900.660950396
1.72321	11350254.031109441
1.72575	11305783.288205437
1.7283	11362607.054259013
1.73084	11447737.702249348
1.73337	11403548.518064007
1.73591	11048838.44921976
1.73844	11427586.111482618
1.74097	11461782.45556904
1.74349	11575215.918255437
1.74602	11886315.615876041
1.74854	12120455.316168379
1.75105	12088282.063040093
1.75357	11575341.288123002
1.75608	11098613.352258248
1.75859	11394909.889312988
1.7611	11504695.423575703
1.7636	11340907.25127604
1.7661	10855038.127343275
1.7686	10719986.124448037
1.7711	11233958.438748697
1.77359	10647748.008112235
1.77608	9508821.314986153
1.77857	9948251.274440194
1.78105	10070500.437673446
1.78354	9181032.637320453
1.78602	8676074.51691976
1.78849	9244511.308366768
1.79097	8574233.76805599
1.79344	8476231.213562272
1.79591	8780370.323327946
1.79837	9074344.837924993
1.80084	7322213.056575922
1.8033	7319450.037002714
1.80576	7556836.920899209
1.80821	6963792.7369832825
1.81067	6672862.534498328
1.81312	8055523.993752452
1.81557	9133121.880099718
1.81801	8507961.313420404
1.82046	8083905.498971909
1.8229	9409280.540096719
1.82533	10021160.548002748
1.82777	8965233.146519799
1.8302	8542213.910722071
1.83263	8722067.763046915
1.83506	8535717.945182312
1.83749	8344732.010434924
1.83991	8189935.130265359
1.84233	8908074.932381893
1.84475	9890917.89681002
1.84716	8792092.904094724
1.84957	8721550.051931208
1.85198	9915985.656491486
1.85439	9472211.298937226
1.8568	8397314.242795456
1.8592	7358777.274156828
1.8616	6335329.105471133
1.864	6273311.048254514
1.86639	6503622.601271677
1.86878	6126999.191359201
1.87118	6480565.072646815
1.87356	7030036.585006676
1.87595	8467055.322769241
1.87833	10420068.856300471
1.88071	11036165.268678898
1.88309	10219281.706591416
1.88547	9179643.374415
1.88784	9634204.447268767
1.89021	9814911.555561727
1.89258	10597563.507706333
1.89494	11231667.727976423
1.89731	10360724.600866938
1.89967	9065689.181759913
1.90203	9038815.881400093
1.90439	9338747.160085335
1.90674	10729586.142051809
1.90909	11932087.322065955
1.91144	10349432.180217626
1.91379	9164269.141939277
1.91613	10406452.286378901
1.91848	10995501.586335689
1.92082	9640810.806294607
1.92315	8890887.745634962
1.92549	9915487.0979161
1.92782	10397934.364049518
1.93015	9658083.809392223
1.93248	10079643.383719305
1.93481	10399897.210246205
1.93713	8345024.322616347
1.93945	6494682.558468138
1.94177	7895617.608671898
1.94409	8997259.368419008
1.94641	8788697.01671604
1.94872	8973170.253839182
1.95103	10418568.980873153
1.95334	10565893.96147032
1.95564	8882855.577204755
1.95795	8772952.534068704
1.96025	9307927.371719256
1.96255	9859026.785643604
1.96484	11414867.916663567
1.96714	12310095.504776144
1.96943	11774971.771040758
1.97172	11577336.250680385
1.97401	11638686.76244211
1.97629	11888507.418439524
1.97858	12656781.365055146
1.98086	12543330.173423281
1.98314	13132055.975563817
1.98541	13888123.485478723
1.98769	12925729.930224383
1.98996	11923829.391326407
1.99223	12758200.071411809
1.9945	14001449.468819208
1.99677	13957017.569631007
1.99903	13200963.41346343
2.00129	13218742.633691244
2.00355	13954433.715020489
2.00581	14684151.208348507
2.00806	14849630.996474616
2.01031	14981183.025890198
2.01256	15506540.87177868
2.01481	15573837.794643346
2.01706	15026417.304890698
2.0193	15070927.779890127
2.02154	15708260.306781594
2.02378	15863280.902404273
2.02602	15550921.580707844
2.02825	15173930.49552816
2.03049	14950731.756428814
2.03272	15371967.729540085
2.03494	15902615.726969842
2.03717	16022645.625476226
2.03939	16053883.784906536
2.04162	16068315.251805766
2.04384	16036917.844921345
2.04605	15815988.705877706
2.04827	15324098.267788066
2.05048	15268229.004534746
2.05269	15669265.783784818
2.0549	15931590.740597246
2.05711	15952782.469735011
2.05931	15677110.931663614
2.06151	15553571.446392277
2.06371	15771830.334244855
2.06591	15960006.442122214
2.06811	16081774.305358946
2.0703	16181130.424971286
2.07249	16265764.593287844
2.07468	16317694.751842478
2.07686	16346600.706952237
2.07905	16378734.051625296
2.08123	16396886.487611244
2.08341	16360018.053469826
2.08559	16274882.755237615
2.08776	16266109.486976394
2.08994	16322326.578557007
2.09211	16343890.721582443
2.09428	16366089.452145034
2.09645	16376415.998428538
2.09861	16350030.433174742
2.10077	16353003.687183645
2.10293	16401405.090594288
2.10509	16423010.1476275
2.10725	16367410.369868975
2.1094	16225414.488400511
2.11155	16032788.06937615
2.1137	15965210.33347847
2.11585	16090043.560058145
2.11799	16253136.381456135
2.12013	16368508.682668071
2.12227	16418696.571169691
2.12441	16421826.35630485
2.12655	16413379.506055076
2.12868	16404501.284559218
2.13081	16400672.41376459
2.13294	16414230.029354436
2.13507	16433774.108305292
2.13719	16440617.822233757
2.13931	16434746.322935456
2.14143	16418018.704547217
2.14355	16404693.181971572
2.14567	16394303.078177271
2.14778	16362142.191061318
2.14989	16314130.024294997
2.152	16213485.269713646
2.1541	16039064.674488867
2.15621	16024521.592735186
2.15831	16191105.666005377
2.16041	16263468.478152597
2.16251	16281292.490728019
2.1646	16304516.925529225
2.1667	16320255.974513466
2.16879	16323349.072516939
2.17087	16278594.697092945
2.17296	16214691.634631502
2.17504	16216017.240666132
2.17713	16265162.542130467
2.1792	16291304.0278126
2.18128	16291877.942542804
2.18336	16282197.121077482
2.18543	16263309.116770968
2.1875	16232556.216088971
2.18957	16209953.952585928
2.19163	16202040.543554028
2.1937	16175816.898959309
2.19576	16070687.540556403
2.19782	15820804.268299935
2.19987	15612793.501995135
2.20193	15619799.071832877
2.20398	15763954.949418949
2.20603	15933143.242964964
2.20808	16044464.895096734
2.21012	16084427.018242296
2.21217	16048970.412783012
2.21421	15904085.213571653
2.21625	15727476.123443116
2.21828	15671598.483465565
2.22032	15698942.907572173
2.22235	15641680.769842723
2.22438	15458518.015627593
2.22641	15297114.498716328
2.22843	15307593.755565664
2.23046	15430536.959721675
2.23248	15519354.060567064
2.2345	15563703.07722567
2.23651	15513415.05990987
2.23853	15202919.594039744
2.24054	14788697.08475057
2.24255	14668859.052273484
2.24456	14835388.92090662
2.24657	14848878.769985002
2.24857	14770963.040152
2.25057	14647754.688977636
2.25257	14359095.15736693
2.25457	13871996.653546989
2.25656	13909589.459200582
2.25856	14472808.629408184
2.26055	14765190.02308614
2.26254	14722613.549004702
2.26453	14683890.479985226
2.26651	14780579.233701961
2.2685	14914282.38543359
2.27048	14953614.979437679
2.27246	14971974.531171516
2.27443	14875806.047076989
2.27641	14764147.606274556
2.27838	14874350.67277918
2.28036	15112680.403490836
2.28233	14953543.8435592
2.28429	14008726.597181987
2.28626	12834725.376358699
2.28823	12738975.055036684
2.29019	13359336.272349715
2.29215	13420093.151860522
2.29411	13132111.325640881
2.29607	13175602.492217025
2.29802	13654615.429263081
2.29998	14152599.225775506
2.30193	14574674.214980572
2.30388	14795961.116250169
2.30583	14942948.524753515
2.30778	15060766.142631477
2.30972	15123606.680162443
2.31167	15047349.108459227
2.31361	14519606.99319858
2.31555	13530986.597074093
2.31749	13018340.263459167
2.31943	13251089.23215331
2.32137	13481703.428617863
2.32331	13410200.015873373
2.32524	13405120.811810879
2.32718	13625835.142352115
2.32911	13680878.037949929
2.33104	13720164.951636821
2.33297	13836533.560617024
2.3349	14008341.490976257
2.33683	14077290.979819791
2.33876	14092562.594366191
2.34068	14091492.972138613
2.34261	14035542.74184861
2.34453	13680271.876061678
2.34646	12909548.624710709
2.34838	12573997.967816435
2.3503	12815913.858577862
2.35223	13232074.464403376
2.35415	13158361.529660849
2.35607	12802864.181467174
2.35799	12701018.307810592
2.35991	12856862.937806379
2.36183	13315747.579272334
2.36375	14072850.53578034
2.36566	14555996.44739009
2.36758	14050553.205556389
2.3695	13035037.93661561
2.37142	12315073.185629431
2.37334	11911453.829941062
2.37526	11959550.199670995
2.37718	12328026.918076282
2.3791	12934372.22134058
2.38101	13383459.93979745
2.38293	13685551.290794099
2.38485	13527541.870754367
2.38677	13361149.774404822
2.3887	13722309.949813792
2.39062	14547199.67398428
2.39254	14966072.366636766
2.39446	14787136.66268892
2.39639	13938438.054367606
2.39831	13128088.707412386
2.40024	12769323.504959615
2.40216	12881884.167808896
2.40409	13301400.45371796
2.40602	14056760.238494487
2.40795	14567959.218627585
2.40989	14576289.15801252
2.41182	14100885.105276061
2.41376	13095645.648977831
2.4157	12295491.721374732
2.41764	12352689.644284418
2.41958	13052768.671568152
2.42152	13580063.661445111
