#wavelength	surface flux
0.7	745.120622932723
0.7001166666666666	747.6222265938682
0.7002333527777778	750.050294360386
0.700350058336574	752.2939617227195
0.7004667833462966	754.6007216213611
0.7005835278101878	756.9547757714092
0.7007002917314895	759.188228420855
0.7008170751134447	761.4172637520452
0.7009338779592968	763.734778989435
0.7010507002722901	766.0437974976186
0.7011675420556689	768.3416139463781
0.701284403312678	770.682693436406
0.7014012840465635	773.039472699506
0.7015181842605713	775.2901255175127
0.701635103957948	777.4832851151979
0.701752043141941	779.5419157858789
0.701869001815798	781.8846817887854
0.7019859799827672	784.4251091751073
0.7021029776460976	786.6967565984302
0.7022199948090387	788.9556304157333
0.7023370314748403	791.328954434867
0.7024540876467528	793.8389153967329
0.702571163328027	796.5079325565254
0.7026882585219152	798.995160226246
0.7028053732316688	801.4169891130246
0.7029225074605406	803.7089746733
0.7030396612117841	805.9069329731975
0.7031568344886527	807.9207641824793
0.7032740272944008	810.4379681612187
0.7033912396322832	813.2489628438015
0.7035084715055552	815.8408495868842
0.7036257229174727	818.3740002702214
0.7037429938712924	820.7601244612218
0.7038602843702709	823.2116287655526
0.7039775944176659	825.7250006012707
0.7040949240167356	828.2089146698556
0.7042122731707383	830.6842711613212
0.7043296418829335	833.1436133074681
0.7044470301565806	835.5946242982593
0.70456443799494	838.032964820644
0.7046818654012724	840.5855866622644
0.7047993123788394	843.1881090021253
0.7049167789309024	845.5319700776786
0.7050342650607243	847.9886628494493
0.7051517707715678	850.7226076990032
0.7052692960666963	853.3621422705944
0.705386840949374	855.9360802110168
0.7055044054228656	858.4340920989904
0.7056219894904361	860.9507751537773
0.7057395931553511	863.589100469737
0.705857216420877	866.2086237087261
0.7059748592902804	868.808265416469
0.7060925217668288	871.4063132539463
0.70621020385379	874.0053835837961
0.7063279055544321	876.6169011170637
0.7064456268720246	879.2339793600406
0.7065633678098366	881.8595938021823
0.7066811283711383	884.4835838549593
0.7067989085592001	887.1070800255487
0.7069167083772933	889.6232790678387
0.7070345278286895	892.0611823739185
0.707152366916661	894.3120068327872
0.7072702256444803	896.469966840562
0.7073881040154211	898.5650328445648
0.7075060020327569	901.9055641019903
0.7076239196997625	905.2962286268325
0.7077418570197124	908.3330207279447
0.7078598139958823	911.1749732542363
0.7079777906315483	913.8274794312451
0.7080957869299869	916.4779793993242
0.7082138028944751	919.1489530638246
0.7083318385282908	921.9759274212921
0.7084498938347124	924.7786361155337
0.708567968817018	927.5480125723946
0.7086860634784875	930.0932990523312
0.7088041778224007	932.5333967239994
0.7089223118520377	934.3731325449027
0.7090404655706796	936.8995906525175
0.709158638981608	940.7445100495764
0.709276832088105	943.7316947327648
0.7093950448934531	946.2572109595917
0.7095132774009353	947.1650372309148
0.7096315296138355	949.040322517942
0.7097498015354378	953.7717053147733
0.7098680931690269	957.4102581276047
0.7099864045178884	960.2430645061032
0.7101047355853081	963.2761491404355
0.7102230863745722	966.3229392626727
0.7103414568889679	969.317654691151
0.7104598471317828	972.3353521764567
0.7105782571063047	975.3755493293513
0.7106966868158224	978.0729250040578
0.710815136263625	980.7506586931225
0.7109336054530023	983.8188387990521
0.7110520943872445	986.8587261106086
0.7111706030696424	989.8624029140464
0.7112891315034873	992.84949249586
0.7114076796920712	995.8300306691729
0.7115262476386865	998.7906706907337
0.7116448353466263	1001.7031968461478
0.711763442819184	1004.5362380117581
0.711882070059654	1007.5338041581617
0.7120007170713306	1010.6044324203516
0.7121193838575091	1013.5891953421288
0.7122380704214853	1016.6055964106115
0.7123567767665555	1019.6884532624031
0.7124755028960166	1022.5504065703124
0.7125942488131658	1025.2860606867382
0.7127130145213015	1028.0504737162762
0.7128318000237216	1030.9422893431326
0.7129506053237256	1034.1779392415222
0.7130694304246129	1037.3476003703834
0.7131882753296837	1040.4704520429823
0.7133071400422386	1043.4478787081243
0.7134260245655789	1046.0396241728458
0.7135449289030065	1047.3106340521442
0.7136638530578235	1050.4721150857106
0.7137827970333332	1055.2646793074623
0.7139017608328388	1058.641385352855
0.7140207444596443	1061.8041721759782
0.7141397479170543	1065.0861248424
0.7142587712083737	1068.0773575370952
0.7143778143369084	1070.770432903922
0.7144968773059646	1074.3574510674202
0.7146159601188489	1078.0721280837772
0.7147350627788687	1081.2860090799268
0.7148541852893318	1084.5111087153855
0.7149733276535467	1087.749550809054
0.7150924898748222	1090.671095256247
0.715211671956468	1093.5727264397287
0.7153308739017941	1097.1303857589596
0.715450095714111	1100.6459534783542
0.71556933739673	1104.1031977412022
0.7156885989529628	1107.3155489124595
0.7158078803861218	1110.4373286678724
0.7159271816995193	1113.472818080448
0.7160465028964692	1116.1209835398115
0.7161658439802853	1118.1621912329658
0.7162852049542819	1119.836356998517
0.7164045858217744	1121.4362979951054
0.716523986586078	1124.859003284947
0.7166434072505089	1124.5939204337005
0.716762847818384	1117.8687791759774
0.7168823082930204	1123.7286497344107
0.7170017886777359	1135.1977038762059
0.7171212889758488	1141.808814776401
0.7172408091906781	1146.530672850944
0.7173603493255433	1147.6066748583178
0.7174799093837642	1149.9608570545226
0.7175994893686615	1152.949675542682
0.7177190892835562	1157.6958743115565
0.7178387091317702	1162.7748036821963
0.7179583489166254	1168.5327716494658
0.7180780086414448	1172.0578321656862
0.7181976883095517	1174.390554757242
0.7183173879242699	1179.1771027562304
0.718437107488924	1183.582633384733
0.7185568470068389	1187.031126042061
0.7186766064813399	1189.3681228313046
0.7187963859157535	1191.0789671736884
0.7189161853134061	1196.2962664391587
0.719036004677625	1201.154185432446
0.7191558440117378	1204.9201827216295
0.7192757033190732	1208.5985440677498
0.7193955826029597	1212.2260277798332
0.7195154818667269	1215.424316962865
0.7196354011137046	1218.682817111639
0.7197553403472235	1222.1236258240344
0.7198752995706147	1225.901394721797
0.7199952787872098	1229.8793351267338
0.720115278000341	1233.3045308115165
0.7202352972133411	1236.6918523795503
0.7203553364295432	1240.0418649914113
0.7204753956522815	1243.34038431835
0.7205954748848902	1246.6086134414074
0.7207155741307044	1250.486482995125
0.7208356933930594	1254.4539694617097
0.7209558326752915	1258.5761681217307
0.7210759919807375	1262.0491629040046
0.7211961713127342	1265.144950249753
0.7213163706746197	1267.3630887993086
0.7214365900697322	1270.151938016969
0.7215568295014103	1274.3110835706427
0.721677088972994	1278.853798360671
0.7217973684878227	1283.6117199370296
0.7219176680492374	1286.1271389681226
0.7220379876605789	1289.3599970528599
0.722158327325189	1294.2564431230712
0.7222786870464099	1298.859970122851
0.7223990668275843	1303.3086762613145
0.7225194666720555	1307.219743594161
0.7226398865831676	1311.0290731354135
0.7227603265642646	1314.6407662054178
0.722880786618692	1317.4261578510313
0.7230012667497951	1319.8271822005854
0.7231217669609201	1324.2353086665303
0.7232422872554135	1328.343383829731
0.7233628276366229	1331.8955853469715
0.7234833881078956	1336.1259588821824
0.7236039686725803	1340.5632799258176
0.7237245693340255	1342.1843145571306
0.7238451900955812	1345.1060661597382
0.7239658309605971	1350.1993538361942
0.7240864919324239	1355.3853826686093
0.7242071730144127	1360.522718266602
0.724327874209915	1364.3019111919098
0.7244485955222832	1368.3906276967464
0.7245693369548704	1372.9385641231265
0.7246900985110294	1377.1138646891227
0.7248108801941148	1381.1720448980361
0.7249316820074803	1385.3246682326976
0.7250525039544815	1389.4265676865493
0.7251733460384739	1393.4622373105033
0.7252942082628137	1397.2317292335736
0.7254150906308574	1400.893617198133
0.7255359931459625	1404.3266908941598
0.7256569158114868	1407.9387909533418
0.7257778586307888	1411.7522139595997
0.7258988216072273	1416.2026391647044
0.7260198047441617	1420.7912374987732
0.7261408080449525	1425.3541693429618
0.72626183151296	1429.533048222991
0.7263828751515454	1433.3441762358573
0.7265039389640706	1437.7754044950436
0.726625022953898	1442.095773528972
0.7267461271243904	1445.5964375860226
0.7268672514789111	1449.2180740810902
0.7269883960208241	1452.9367697896719
0.7271095607534942	1457.9580656515607
0.7272307456802866	1462.8744747524952
0.7273519508045666	1467.0748980721905
0.7274731761297006	1470.934135501324
0.7275944216590555	1474.5694882295813
0.7277156873959987	1478.3968503065162
0.7278369733438982	1481.4529976515043
0.727958279506122	1482.7282045384195
0.7280796058860397	1488.2347995545194
0.7282009524870207	1495.9406641198036
0.7283223193124353	1501.1792717706107
0.7284437063656539	1506.1148808921228
0.7285651136500483	1510.511142070217
0.7286865411689898	1514.661756794946
0.7288079889258514	1518.6594487335926
0.7289294569240056	1521.8868217087584
0.7290509451668262	1525.6043010045069
0.7291724536576875	1530.0004115682118
0.7292939823999636	1535.0998170603552
0.7294155313970303	1540.3431457402162
0.7295371006522632	1545.158037754576
0.7296586901690385	1549.59275408486
0.7297802999507332	1553.6198400849198
0.7299019300007252	1556.3408267661346
0.7300235803223919	1559.118665019179
0.7301452509191123	1563.1823048617582
0.7302669417942654	1567.1065086805045
0.7303886529512311	1570.9167542370478
0.7305103843933897	1569.7288706556885
0.7306321361241218	1571.5185464155975
0.7307539081468093	1583.0471714591076
0.7308757004648336	1590.7183383781069
0.7309975130815778	1596.040526079105
0.7311193460004248	1601.2381399391807
0.7312411992247582	1606.475933939076
0.7313630727579622	1611.7966965420048
0.7314849666034219	1616.4357037899135
0.7316068807645224	1620.7007269796297
0.7317288152446498	1623.6618057414626
0.7318507700471907	1627.405384329617
0.7319727451755319	1632.246221753135
0.732094740633061	1638.3859545048963
0.7322167564231665	1644.5539510315302
0.7323387925492371	1648.5475402312297
0.7324608490146619	1653.4191580175936
0.732582925822831	1659.1742659957424
0.7327050229771347	1664.3461783141468
0.7328271404809642	1669.3252296459223
0.7329492783377112	1673.9595242696068
0.7330714365507675	1678.7666930870141
0.7331936151235259	1683.696879873962
0.7333158140593796	1688.0346048519502
0.7334380333617229	1692.4744463446123
0.7335602730339499	1697.211919879172
0.7336825330794556	1702.2427103945513
0.7338048135016354	1707.3701022878613
0.7339271143038857	1711.398356144246
0.734049435489603	1713.9913707981186
0.7341717770621846	1714.467416017969
0.7342941390250283	1720.580694450105
0.7344165213815324	1728.1073072914073
0.734538924135096	1733.8536635887303
0.7346613472891185	1739.3736179975251
0.734783790847	1744.668100985706
0.7349062548121412	1747.7486128017272
0.7350287391879431	1748.763783299943
0.7351512439778078	1744.1418219567176
0.7352737691851374	1751.1270578602173
0.735396314813335	1765.7867520417165
0.7355188808658037	1772.186131307283
0.7356414673459482	1778.4468466643766
0.7357640742571725	1784.9364436965163
0.7358867016028818	1790.0832650403047
0.7360093493864824	1794.6421297981492
0.7361320176113801	1798.8153614013245
0.736254706280982	1802.6089354250132
0.7363774153986956	1805.9304058098903
0.7365001449679286	1805.07360486964
0.7366228949920899	1804.7774822559334
0.7367456654745885	1811.0393109409367
0.7368684564188344	1821.37179084682
0.7369912678282374	1834.9366182985107
0.7371140997062088	1842.2096536923796
0.7372369520561599	1848.366770560002
0.7373598248815024	1853.0476833631985
0.7374827181856494	1858.093274174723
0.7376056319720137	1863.3150500865231
0.7377285662440091	1868.5080038433252
0.7378515210050496	1872.9526945314562
0.7379744962585505	1876.3592878494003
0.738097492007927	1881.7492330323878
0.7382205082565949	1887.4364394496513
0.738343545007971	1892.0126872649214
0.7384666022654723	1897.5995482834812
0.7385896800325165	1904.0434765410466
0.7387127783125219	1909.7927062686977
0.7388358971089073	1915.4182762124785
0.7389590364250921	1920.8966900266544
0.7390821962644963	1926.5231044157126
0.7392053766305403	1932.2249757911638
0.7393285775266454	1937.9541833662104
0.7394517989562333	1943.645699037145
0.7395750409227259	1949.2848666971568
0.7396983034295463	1955.1087495293405
0.739821586480118	1960.8648826758672
0.7399448900778645	1966.0782758018556
0.7400682142262109	1971.2637869381747
0.740191558928582	1976.426930760243
0.7403149241884034	1981.0843034311833
0.7404383100091014	1985.8265963320514
0.7405617163941028	1990.8392351664063
0.7406851433468352	1996.3090810919168
0.7408085908707264	2001.617617503716
0.7409320589692048	2002.013460820521
0.7410555476456997	2007.026781577896
0.7411790569036406	2017.689493754273
0.7413025867464579	2023.7841345491536
0.7414261371775823	2029.2041725003965
0.7415497082004452	2035.584871725743
0.7416732998184786	2041.5975649686134
0.741796912035115	2047.3579955873993
0.7419205448537874	2051.2761206939012
0.7420441982779297	2056.2437035878706
0.742167872310976	2063.182775428139
0.7422915669563612	2070.6265921370878
0.7424152822175206	2078.0290330999787
0.7425390180978901	2083.876165991709
0.7426627746009065	2089.020738749061
0.7427865517300065	2093.48261170957
0.7429103494886282	2100.8815856327387
0.7430341678802096	2108.2766072914983
0.7431580069081896	2114.7199964409456
0.7432818665760077	2120.788036943707
0.7434057468871037	2126.6416410610004
0.7435296478449182	2132.0371005860466
0.7436535694528923	2137.8028365816426
0.7437775117144678	2144.0547133074524
0.7439014746330868	2148.567926526227
0.7440254582121922	2153.2805007916413
0.7441494624552276	2160.25520756592
0.7442734873656368	2165.354071959868
0.7443975329468645	2169.1627475655378
0.7445215992023557	2175.0934414289572
0.7446456861355559	2181.444023846126
0.7447697937499119	2188.4407646059053
0.7448939220488703	2195.232044625235
0.7450180710358784	2201.975849651061
0.7451422407143843	2208.8256201508216
0.7452664310878367	2215.572701831756
0.7453906421596846	2222.2306163845014
0.7455148739333779	2228.6670643284106
0.7456391264123667	2235.066596035486
0.7457633996001021	2241.4239903666803
0.7458876935000356	2247.7097835459144
0.7460120081156189	2253.994538810621
0.7461363434503048	2260.544555026818
0.7462606995075466	2266.7747525352765
0.7463850762907978	2272.669388446176
0.7465094738035127	2278.4372691739813
0.7466338920491467	2284.63214853728
0.746758331031155	2292.0127295948705
0.7468827907529935	2298.6219442147253
0.7470072712181189	2304.886093220812
0.7471317724299886	2311.840499675743
0.7472562943920602	2318.4841957053663
0.7473808371077922	2324.750957027302
0.7475054005806435	2329.572043053343
0.7476299848140736	2334.8516236162477
0.7477545898115426	2342.406406689912
0.7478792155765113	2349.642083739876
0.7480038621124406	2356.614166440562
0.7481285294227926	2361.0499971931654
0.7482532175110298	2367.360454139095
0.7483779263806148	2376.188993335744
0.7485026560350116	2382.999859062939
0.7486274064776842	2389.389356139716
0.748752177712097	2395.8216072346495
0.7488769697417158	2403.2496194157407
0.749001782570006	2411.283337047103
0.7491266162004343	2418.3762299306263
0.7492514706364677	2425.2414960684537
0.7493763458815739	2431.781629812163
0.7495012419392209	2438.6938226698026
0.7496261588128773	2445.569813467751
0.7497510965060128	2451.9785747476985
0.7498760550220971	2458.8194971352063
0.7500010343646007	2465.9366586192555
0.7501260345369949	2472.7984503394946
0.750251055542751	2479.6309445370716
0.7503760973853414	2486.4204692588137
0.7505011600682389	2493.1506112167717
0.750626243594917	2499.7997353080655
0.7507513479688495	2506.1944281385595
0.7508764731935109	2512.977875749131
0.7510016192723765	2520.0083169402824
0.7511267862089218	2526.9770026726314
0.7512519740066232	2533.9823079186567
0.7513771826689577	2541.038737458913
0.7515024121994025	2548.457818022747
0.7516276626014359	2555.8281895480986
0.751752933878536	2562.7393532499564
0.7518782260341824	2569.209472499606
0.7520035390718548	2575.462815839011
0.7521288729950334	2583.3775329659757
0.7522542278071992	2591.06566061585
0.7523796035118337	2598.45608726307
0.7525050001124189	2605.58000315982
0.7526304176124378	2612.400439932988
0.7527558560153731	2618.4328142554505
0.752881315324709	2626.2309867159047
0.7530067955439299	2634.927708759745
0.7531322966765205	2642.560855842427
0.7532578187259665	2650.033477514573
0.7533833616957542	2657.317854784687
0.75350892558937	2664.6310802698968
0.7536345104103016	2671.9425278953154
0.7537601161620366	2679.236140916782
0.7538857428480638	2686.4060080581944
0.7540113904718717	2693.525747695516
0.7541370590369503	2700.7150346156795
0.7542627485467898	2707.73012538724
0.7543884590048808	2714.5704238146845
0.7545141904147151	2722.8600036086154
0.7546399427797842	2731.0805889454905
0.7547657161035808	2738.8367959667003
0.754891510389598	2746.449747454191
0.7550173256413296	2754.006131915208
0.7551431618622698	2761.5407750369536
0.7552690190559135	2769.003900736084
0.7553948972257561	2776.408330577326
0.7555207963752938	2784.2810994427527
0.755646716508023	2792.1245792153313
0.755772657627441	2799.88401132246
0.7558986197370455	2807.625628431221
0.756024602840335	2815.369848984167
0.7561506069408084	2823.1426099556456
0.7562766320419653	2830.937349472612
0.7564026781473054	2838.747447447936
0.75652874526033	2846.5922893574557
0.7566548333845401	2854.426882869181
0.7567809425234375	2862.2477630508433
0.7569070726805247	2869.9016190047355
0.7570332238593047	2877.596507306683
0.7571593960632813	2885.4877226718836
0.7572855892959586	2893.317836206033
0.7574118035608413	2901.0682429641333
0.7575380388614347	2908.3216827985866
0.7576642952012449	2916.16781072664
0.7577905725837782	2924.585348485172
0.7579168710125422	2932.6038807815435
0.7580431904910444	2940.7229717206797
0.7581695310227928	2949.0966080416893
0.7582958926112967	2957.3689353323853
0.7584222752600652	2965.604952528017
0.7585486789726085	2973.818736652406
0.7586751037524372	2982.017566595847
0.7588015496030628	2990.2032478290857
0.7589280165279966	2998.119504901034
0.7590545045307512	3006.081241416553
0.7591810136148396	3014.1026362732778
0.7593075437837755	3022.5650677965727
0.7594340950410726	3030.985334957251
0.7595606673902461	3039.078250132361
0.7596872608348112	3047.149883207838
0.7598138753782836	3055.2510244342616
0.75994051102418	3063.6652915134428
0.7600671677760173	3072.135055308273
0.7601938456373134	3080.654148843541
0.7603205446115863	3089.1457985864163
0.7604472647023548	3097.556949224803
0.7605740059131385	3105.8342528583194
0.7607007682474575	3114.2910017146937
0.7608275517088319	3122.762422235345
0.7609543563007835	3131.117536157028
0.7610811820268336	3139.614053893285
0.7612080288905045	3148.17704159032
0.7613348968953197	3156.5389891070263
0.7614617860448022	3164.918413319554
0.7615886963424764	3173.3161834028147
0.7617156277918667	3182.048720421098
0.7618425803964988	3190.8268896231884
0.7619695541598982	3199.629474535169
0.7620965490855914	3208.267108595085
0.7622235651771058	3216.8958301844623
0.7623506024379685	3225.7109929700873
0.7624776608717082	3234.3882816154264
0.7626047404818536	3242.977149978823
0.7627318412719337	3251.535960967587
0.762858963245479	3260.1126294206156
0.7629861064060198	3268.709723939341
0.7631132707570876	3277.339967141342
0.7632404563022137	3286.0096946912468
0.7633676630449308	3294.754100312801
0.7634948909887717	3303.6727959706486
0.7636221401372697	3312.565596533169
0.7637494104939593	3321.0501576570023
0.7638767020623748	3329.673377619972
0.7640040148460518	3338.387491612442
0.7641313488485262	3347.069909198117
0.7642587040733344	3355.482914228839
0.7643860805240132	3363.5805133557405
0.7645134782041005	3371.8861874310173
0.7646408971171346	3380.1576033047054
0.764768337266654	3388.301316234499
0.7648957986561985	3395.580146287101
0.7650232812893079	3402.6903877672285
0.7651507851695227	3410.323550151879
