#wavelength	surface flux
0.7	116.70996115751815
0.7001166666666666	117.22732956275655
0.7002333527777778	117.71400669430973
0.700350058336574	118.1238532255422
0.7004667833462966	118.55411073545413
0.7005835278101878	118.99965506778099
0.7007002917314895	119.44057695865091
0.7008170751134447	119.88194408448405
0.7009338779592968	120.3300619158951
0.7010507002722901	120.77533362926994
0.7011675420556689	121.21686967896689
0.701284403312678	121.65722539442865
0.7014012840465635	122.09691862023315
0.7015181842605713	122.51385127107766
0.701635103957948	122.9194419006005
0.701752043141941	123.29849923230988
0.701869001815798	123.76111071607282
0.7019859799827672	124.28183592235524
0.7021029776460976	124.7079269452634
0.7022199948090387	125.1298375449132
0.7023370314748403	125.59378208288443
0.7024540876467528	126.06970036129297
0.702571163328027	126.55955000673043
0.7026882585219152	126.99623102044943
0.7028053732316688	127.4169213811636
0.7029225074605406	127.86550955304514
0.7030396612117841	128.31211603005477
0.7031568344886527	128.7547782333473
0.7032740272944008	129.2541462077953
0.7033912396322832	129.78662517965208
0.7035084715055552	130.2819979128608
0.7036257229174727	130.75309004464728
0.7037429938712924	131.14824840828442
0.7038602843702709	131.61039759361046
0.7039775944176659	132.13591995890158
0.7040949240167356	132.59439929113438
0.7042122731707383	133.04518438763643
0.7043296418829335	133.56520947043697
0.7044470301565806	134.06456711052664
0.70456443799494	134.53295420570146
0.7046818654012724	135.03203458360582
0.7047993123788394	135.54449948725235
0.7049167789309024	135.98926014088784
0.7050342650607243	136.45720676597966
0.7051517707715678	136.98234328081213
0.7052692960666963	137.48935828701732
0.705386840949374	137.98378241682045
0.7055044054228656	138.47883783361826
0.7056219894904361	138.98082928037385
0.7057395931553511	139.51240271850511
0.705857216420877	140.02929804335986
0.7059748592902804	140.5306868092199
0.7060925217668288	141.03063173118613
0.70621020385379	141.53147418950292
0.7063279055544321	142.0453508361983
0.7064456268720246	142.55306341493235
0.7065633678098366	143.0509838721275
0.7066811283711383	143.530822918425
0.7067989085592001	144.0025387340176
0.7069167083772933	144.54330352391713
0.7070345278286895	145.0655855055992
0.707152366916661	145.54158704006284
0.7072702256444803	145.96721791377857
0.7073881040154211	146.35869448934878
0.7075060020327569	147.00681742836892
0.7076239196997625	147.65955494424577
0.7077418570197124	148.2169210619587
0.7078598139958823	148.75837045488296
0.7079777906315483	149.28434513509146
0.7080957869299869	149.81764574615732
0.7082138028944751	150.35654982853066
0.7083318385282908	150.92451089965337
0.7084498938347124	151.4894439305487
0.708567968817018	152.05020439078257
0.7086860634784875	152.51330484208714
0.7088041778224007	152.93553879904155
0.7089223118520377	153.2335821560722
0.7090404655706796	153.7148989998823
0.709158638981608	154.5481183860237
0.709276832088105	155.1860135183536
0.7093950448934531	155.71877376485122
0.7095132774009353	155.92403995832493
0.7096315296138355	156.30973860577703
0.7097498015354378	157.23119846235986
0.7098680931690269	157.95663271041488
0.7099864045178884	158.53753994529058
0.7101047355853081	159.13101328072352
0.7102230863745722	159.7236982891816
0.7103414568889679	160.30613902507235
0.7104598471317828	160.8883623678326
0.7105782571063047	161.47037508193327
0.7106966868158224	161.97447908227565
0.710815136263625	162.4822762619722
0.7109336054530023	163.13456949737667
0.7110520943872445	163.76555869112974
0.7111706030696424	164.36935783931978
0.7112891315034873	164.97162162135962
0.7114076796920712	165.57243020869734
0.7115262476386865	166.15867029862684
0.7116448353466263	166.7361145441025
0.711763442819184	167.29902305426472
0.711882070059654	167.88778186257596
0.7120007170713306	168.48797128500928
0.7121193838575091	169.06484463874955
0.7122380704214853	169.65695199489835
0.7123567767665555	170.28121859521403
0.7124755028960166	170.87559919142896
0.7125942488131658	171.45290755061356
0.7127130145213015	172.03720313015396
0.7128318000237216	172.62193670457995
0.7129506053237256	173.20674004287673
0.7130694304246129	173.79133351041784
0.7131882753296837	174.37580572523612
0.7133071400422386	175.0231287175878
0.7134260245655789	175.62242689047164
0.7135449289030065	176.0255390355774
0.7136638530578235	176.69323531742876
0.7137827970333332	177.5892178051087
0.7139017608328388	178.22086505069473
0.7140207444596443	178.8172922281379
0.7141397479170543	179.4583132249764
0.7142587712083737	180.05402190465287
0.7143778143369084	180.60325851539287
0.7144968773059646	181.36249687927977
0.7146159601188489	182.1488761173026
0.7147350627788687	182.79925853684733
0.7148541852893318	183.42912015950537
0.7149733276535467	184.03436001475197
0.7150924898748222	184.59964102256228
0.715211671956468	185.17664226762417
0.7153308739017941	185.9672896027455
0.715450095714111	186.7059620203246
0.71556933739673	187.3728445589896
0.7156885989529628	187.88600925181856
0.7158078803861218	188.36342150635033
0.7159271816995193	189.08704991944168
0.7160465028964692	189.69159960970185
0.7161658439802853	190.10956622218657
0.7162852049542819	190.21352199148728
0.7164045858217744	190.18780320805212
0.716523986586078	190.06779726848512
0.7166434072505089	189.62490961071708
0.716762847818384	188.61646860748309
0.7168823082930204	189.43172751124894
0.7170017886777359	191.0772572494845
0.7171212889758488	193.16682710297653
0.7172408091906781	194.72123505579967
0.7173603493255433	195.24286080060494
0.7174799093837642	195.2959415908328
0.7175994893686615	195.1164594490423
0.7177190892835562	196.46952669732397
0.7178387091317702	197.96133190794484
0.7179583489166254	199.72921564867366
0.7180780086414448	200.79579818743184
0.7181976883095517	201.48789361894262
0.7183173879242699	202.27429099668086
0.718437107488924	202.90605580937796
0.7185568470068389	203.18918889728724
0.7186766064813399	203.22109556578505
0.7187963859157535	203.11143969369584
0.7189161853134061	205.05828266841013
0.719036004677625	206.79298905407109
0.7191558440117378	207.88435220348893
0.7192757033190732	208.6051491370456
0.7193955826029597	209.1097813979533
0.7195154818667269	209.7645332480154
0.7196354011137046	210.50907821424084
0.7197553403472235	211.45419192368618
0.7198752995706147	212.27818948588896
0.7199952787872098	213.03038582343893
0.720115278000341	213.69199851695433
0.7202352972133411	214.28960452651174
0.7203553364295432	214.74230788133588
0.7204753956522815	215.32783229891584
0.7205954748848902	215.99210447764932
0.7207155741307044	216.87462814880638
0.7208356933930594	217.8254656548013
0.7209558326752915	218.91751516455886
0.7210759919807375	219.79707135684728
0.7211961713127342	220.5531444426533
0.7213163706746197	221.12402549362312
0.7214365900697322	221.82195422987647
0.7215568295014103	222.82414715956187
0.721677088972994	223.76210536649668
0.7217973684878227	224.66414834329123
0.7219176680492374	225.04757488558502
0.7220379876605789	225.64947260663968
0.722158327325189	226.75006405150816
0.7222786870464099	227.79133607994154
0.7223990668275843	228.8012636817442
0.7225194666720555	229.49470609839244
0.7226398865831676	230.24246173591206
0.7227603265642646	231.10478409602845
0.722880786618692	231.6575478014861
0.7230012667497951	232.06470682282094
0.7231217669609201	233.0762209950943
0.7232422872554135	233.88957001153395
0.7233628276366229	234.33606842821163
0.7234833881078956	235.1045826615272
0.7236039686725803	235.9810992317872
0.7237245693340255	235.80969168610733
0.7238451900955812	236.33248035223173
0.7239658309605971	238.01433942781279
0.7240864919324239	239.35003650811166
0.7242071730144127	240.53216629446652
0.724327874209915	241.44696280079322
0.7244485955222832	242.25494822351936
0.7245693369548704	242.90428585535219
0.7246900985110294	243.8180538776141
0.7248108801941148	244.83473013079245
0.7249316820074803	245.9807364872999
0.7250525039544815	246.94693093952858
0.7251733460384739	247.67902813191245
0.7252942082628137	248.28661971538665
0.7254150906308574	248.86271117836074
0.7255359931459625	249.46459529997117
0.7256569158114868	250.33404903968503
0.7257778586307888	251.50449066274416
0.7258988216072273	252.15327499464135
0.7260198047441617	252.7689507234297
0.7261408080449525	253.8125384943321
0.72626183151296	254.23701845028947
0.7263828751515454	254.06862544271405
0.7265039389640706	255.76186564562485
0.726625022953898	257.5145631524307
0.7267461271243904	258.3168750736838
0.7268672514789111	259.12141754654596
0.7269883960208241	259.9277740914336
0.7271095607534942	261.11267317324507
0.7272307456802866	262.3480750748263
0.7273519508045666	263.6137504968396
0.7274731761297006	264.55662301875515
0.7275944216590555	265.2875187260558
0.7277156873959987	265.86811633035836
0.7278369733438982	266.3144281267724
0.727958279506122	266.4708675684397
0.7280796058860397	267.8583846827622
0.7282009524870207	269.8856374624857
0.7283223193124353	271.1821929502608
0.7284437063656539	272.37873002563316
0.7285651136500483	273.39728691860876
0.7286865411689898	274.17944398806867
0.7288079889258514	274.8065443492593
0.7289294569240056	274.58424791375035
0.7290509451668262	274.91681601581564
0.7291724536576875	276.017932247685
0.7292939823999636	277.1906182968697
0.7294155313970303	278.40405097537706
0.7295371006522632	279.75166400721594
0.7296586901690385	280.814866871982
0.7297802999507332	281.5731477100082
0.7299019300007252	282.61366595396476
0.7300235803223919	283.4359629110385
0.7301452509191123	283.1231087737523
0.7302669417942654	283.37714120794743
0.7303886529512311	284.09497030763356
0.7305103843933897	282.92552396478203
0.7306321361241218	283.0579097201295
0.7307539081468093	287.36300696658566
0.7308757004648336	290.1390802821363
0.7309975130815778	291.98404511923786
0.7311193460004248	292.82707075405045
0.7312411992247582	293.82224985095854
0.7313630727579622	295.15613255971556
0.7314849666034219	296.2804631918776
0.7316068807645224	297.27632901257516
0.7317288152446498	297.64587574500314
0.7318507700471907	298.07148652536506
0.7319727451755319	298.57570245203004
0.732094740633061	300.3623488263572
0.7322167564231665	302.30402243171903
0.7323387925492371	302.9000267363346
0.7324608490146619	303.9836754896024
0.732582925822831	305.5580036261722
0.7327050229771347	306.77282753452295
0.7328271404809642	307.83440601914083
0.7329492783377112	308.5638363332379
0.7330714365507675	309.6692314326239
0.7331936151235259	311.0417129256683
0.7333158140593796	312.08716599407666
0.7334380333617229	312.9984090911196
0.7335602730339499	313.6522466846043
0.7336825330794556	314.97049686073757
0.7338048135016354	316.58846610219126
0.7339271143038857	317.7108916801218
0.734049435489603	318.5738253867976
0.7341717770621846	319.05397892533273
0.7342941390250283	320.3018702641568
0.7344165213815324	321.68993512231526
0.734538924135096	322.5000677293784
0.7346613472891185	323.64666577474236
0.734783790847	325.12835308675903
0.7349062548121412	325.58046524742934
0.7350287391879431	325.5185534750589
0.7351512439778078	324.29201376277837
0.7352737691851374	326.052163326409
0.735396314813335	329.78705298675266
0.7355188808658037	331.17364935001416
0.7356414673459482	332.6076644835592
0.7357640742571725	334.2767308463357
0.7358867016028818	335.4422538815303
0.7360093493864824	336.4075008233273
0.7361320176113801	337.47385021283463
0.736254706280982	338.4143772229851
0.7363774153986956	339.19845711087726
0.7365001449679286	339.4736228132654
0.7366228949920899	339.7414581593663
0.7367456654745885	340.47801867955496
0.7368684564188344	342.4505884259244
0.7369912678282374	345.40458553102786
0.7371140997062088	347.063860910134
0.7372369520561599	348.48593914059717
0.7373598248815024	349.5866259637694
0.7374827181856494	350.72106510934236
0.7376056319720137	351.87849888798826
0.7377285662440091	353.1714828579947
0.7378515210050496	354.274989184535
0.7379744962585505	355.1156264868948
0.738097492007927	356.4494256142994
0.7382205082565949	357.82774524386235
0.738343545007971	358.78287689214613
0.7384666022654723	359.90399647756504
0.7385896800325165	361.1658900407221
0.7387127783125219	362.7286401260279
0.7388358971089073	364.217592113236
0.7389590364250921	365.45994908911655
0.7390821962644963	366.686468242273
0.7392053766305403	367.9041828520347
0.7393285775266454	369.0999354034824
0.7394517989562333	370.34309121533715
0.7395750409227259	371.65155178777553
0.7396983034295463	372.85677708475316
0.739821586480118	374.03282667004754
0.7399448900778645	375.19443909844296
0.7400682142262109	376.52222906340654
0.740191558928582	377.98436024235207
0.7403149241884034	379.0145183592608
0.7404383100091014	380.05389906963774
0.7405617163941028	381.1840781538967
0.7406851433468352	382.5585345106595
0.7408085908707264	383.9827039391479
0.7409320589692048	384.6009793854865
0.7410555476456997	385.90096756950794
0.7411790569036406	388.0349968348423
0.7413025867464579	389.4696801266145
0.7414261371775823	390.8056054699741
0.7415497082004452	392.305287618722
0.7416732998184786	393.6652083404475
0.741796912035115	394.9292763845189
0.7419205448537874	395.8603853763663
0.7420441982779297	396.9676967014819
0.742167872310976	398.40707285312703
0.7422915669563612	400.1229132633537
0.7424152822175206	401.86688205656765
0.7425390180978901	403.12083084903713
0.7426627746009065	404.16376298031497
0.7427865517300065	405.0016412027939
0.7429103494886282	406.8244752187111
0.7430341678802096	408.67487743736984
0.7431580069081896	410.28212232020525
0.7432818665760077	411.73103627670514
0.7434057468871037	413.0956393325613
0.7435296478449182	414.3949613731288
0.7436535694528923	415.64502598410945
0.7437775117144678	416.8303144890038
0.7439014746330868	417.87496661826935
0.7440254582121922	419.01619982080376
0.7441494624552276	420.6516172269247
0.7442734873656368	422.07062538974014
0.7443975329468645	423.3408323000259
0.7445215992023557	424.67727840337534
0.7446456861355559	426.22031700000144
0.7447697937499119	428.11551799180967
0.7448939220488703	429.7597714229724
0.7450180710358784	431.33242947630913
0.7451422407143843	432.95791196382373
0.7452664310878367	434.454548011467
0.7453906421596846	435.83915219608144
0.7455148739333779	437.27350841213075
0.7456391264123667	438.73373067634645
0.7457633996001021	440.241181641833
0.7458876935000356	441.6030259897134
0.7460120081156189	442.904238181839
0.7461363434503048	444.2059227795978
0.7462606995075466	445.6808431067185
0.7463850762907978	447.3374870741404
0.7465094738035127	448.9039681308657
0.7466338920491467	450.4696103288817
0.746758331031155	452.0655165414883
0.7468827907529935	453.5460745400597
0.7470072712181189	454.9838072176981
0.7471317724299886	456.6656580210758
0.7472562943920602	458.2960295299346
0.7473808371077922	459.86393080713907
0.7475054005806435	461.14844639184537
0.7476299848140736	462.5155704732349
0.7477545898115426	464.30566543618335
0.7478792155765113	465.93345621986737
0.7480038621124406	467.4544771871772
0.7481285294227926	468.543659012584
0.7482532175110298	469.9747988970579
0.7483779263806148	471.86525621467416
0.7485026560350116	473.50596287324043
0.7486274064776842	475.1113279009789
0.748752177712097	476.7814882096446
0.7488769697417158	478.47620992536446
0.749001782570006	480.18559196379056
0.7491266162004343	481.8461085850574
0.7492514706364677	483.490519338822
0.7493763458815739	485.111842893831
0.7495012419392209	486.7552274936636
0.7496261588128773	488.39169681880804
0.7497510965060128	489.9820655511919
0.7498760550220971	491.6000426729031
0.7500010343646007	493.2347997189576
0.7501260345369949	494.7410570840859
0.750251055542751	496.3082430618822
0.7503760973853414	497.96361002641976
0.7505011600682389	499.56791165365604
0.750626243594917	501.1582659131626
0.7507513479688495	502.74104424095435
0.7508764731935109	504.46619738516307
0.7510016192723765	506.2812785174074
0.7511267862089218	508.0367499899445
0.7512519740066232	509.749056877079
0.7513771826689577	511.4004225046737
0.7515024121994025	513.0926250538846
0.7516276626014359	514.8008470278354
0.751752933878536	516.532989527682
0.7518782260341824	518.1781193918954
0.7520035390718548	519.7762886509818
0.7521288729950334	521.5571331120203
0.7522542278071992	523.2886419922955
0.7523796035118337	524.9553291077381
0.7525050001124189	526.6877308186304
0.7526304176124378	528.4080696042556
0.7527558560153731	530.0503993452563
0.752881315324709	531.8507164615297
0.7530067955439299	533.7305209998119
0.7531322966765205	535.4980478937322
0.7532578187259665	537.2847802103169
0.7533833616957542	539.0939578073778
0.75350892558937	540.807794732401
0.7536345104103016	542.5239820427798
0.7537601161620366	544.2844725847489
0.7538857428480638	546.0159905757288
0.7540113904718717	547.7438100107207
0.7541370590369503	549.5685152163227
0.7542627485467898	551.3315055718664
0.7543884590048808	553.03257024432
0.7545141904147151	554.9275923840863
0.7546399427797842	556.81360175668
0.7547657161035808	558.6378157628502
0.754891510389598	560.4758116489306
0.7550173256413296	562.3142785010127
0.7551431618622698	564.1224539583314
0.7552690190559135	565.9292622594604
0.7553948972257561	567.7349974182462
0.7555207963752938	569.561369255421
0.755646716508023	571.4097387755893
0.755772657627441	573.2937445934587
0.7558986197370455	575.1392405275003
0.756024602840335	576.967132630225
0.7561506069408084	578.765879470612
0.7562766320419653	580.6193593022465
0.7564026781473054	582.5067006477508
0.75652874526033	584.3234936784968
0.7566548333845401	586.1601089730704
0.7567809425234375	588.022399699789
0.7569070726805247	589.9033684008496
0.7570332238593047	591.7869989773168
0.7571593960632813	593.6683660551604
0.7572855892959586	595.5153260523439
0.7574118035608413	597.3469223258127
0.7575380388614347	599.1866068082197
0.7576642952012449	601.0563365048946
0.7577905725837782	602.9550416207519
0.7579168710125422	604.8291271043287
0.7580431904910444	606.7169145395543
0.7581695310227928	608.6346647328924
0.7582958926112967	610.5228380529934
0.7584222752600652	612.4010733714966
0.7585486789726085	614.2761075558077
0.7586751037524372	616.1568722338307
0.7588015496030628	618.0414328883705
0.7589280165279966	619.9085404846729
0.7590545045307512	621.7427108066115
0.7591810136148396	623.5332686690601
0.7593075437837755	625.4471811920301
0.7594340950410726	627.3621754297072
0.7595606673902461	629.2206256131495
0.7596872608348112	631.0664906010995
0.7598138753782836	632.9077835088682
0.75994051102418	634.7569702278272
0.7600671677760173	636.6109799536528
0.7601938456373134	638.4692980115499
0.7603205446115863	640.3227311486492
0.7604472647023548	642.1496792929295
0.7605740059131385	643.9323279242361
0.7607007682474575	645.6681444792699
0.7608275517088319	647.4020982720531
0.7609543563007835	649.1723901357834
0.7610811820268336	650.9142554252177
0.7612080288905045	652.6389077689062
0.7613348968953197	654.3438340248297
0.7614617860448022	656.0126718379713
0.7615886963424764	657.6434560983897
0.7617156277918667	659.218311345075
0.7618425803964988	660.8030173411532
0.7619695541598982	662.4178797432036
0.7620965490855914	663.9861005085135
0.7622235651771058	665.5227961726773
0.7623506024379685	666.9851445907061
0.7624776608717082	668.3904483126227
0.7626047404818536	669.7560428602028
0.7627318412719337	671.0315756565108
0.762858963245479	672.2635154294555
0.7629861064060198	673.4450148666001
0.7631132707570876	674.5288898050466
0.7632404563022137	675.5478785015754
0.7633676630449308	676.4532558534178
0.7634948909887717	677.2638300596136
0.7636221401372697	678.0104743584387
0.7637494104939593	678.6067185688676
0.7638767020623748	679.0750772564082
0.7640040148460518	679.44921550628
0.7641313488485262	679.520225689845
0.7642587040733344	679.4153908354571
0.7643860805240132	679.1048493925148
0.7645134782041005	678.7108317757721
0.7646408971171346	678.1781560959331
0.764768337266654	677.3737933404863
0.7648957986561985	676.4265434771733
0.7650232812893079	675.2806145778225
0.7651507851695227	673.4570590542145
