#wavelength	surface flux
0.7	380.4122621315432
0.7001166666666666	381.7708932505898
0.7002333527777778	383.08562555500765
0.700350058336574	384.290309785611
0.7004667833462966	385.5276212810447
0.7005835278101878	386.7893920843687
0.7007002917314895	388.016382105568
0.7008170751134447	389.2401246479529
0.7009338779592968	390.47748069122446
0.7010507002722901	391.69707322118774
0.7011675420556689	392.8934294212117
0.701284403312678	394.15237080305127
0.7014012840465635	395.43431026306433
0.7015181842605713	396.60781354900047
0.701635103957948	397.75917434653894
0.701752043141941	398.8586556869422
0.701869001815798	400.1125902599284
0.7019859799827672	401.4739706645696
0.7021029776460976	402.71978381581897
0.7022199948090387	403.95261646116643
0.7023370314748403	405.19817299232596
0.7024540876467528	406.5401486200572
0.702571163328027	407.9943754541757
0.7026882585219152	409.3371494728112
0.7028053732316688	410.6401291578779
0.7029225074605406	411.87015525453796
0.7030396612117841	413.0521838325606
0.7031568344886527	414.14021263459665
0.7032740272944008	415.4866595177751
0.7033912396322832	416.9839344337026
0.7035084715055552	418.36219363601856
0.7036257229174727	419.70438611150144
0.7037429938712924	420.95191386103096
0.7038602843702709	422.26736145098516
0.7039775944176659	423.6470687240663
0.7040949240167356	424.9979066799574
0.7042122731707383	426.3431322077533
0.7043296418829335	427.69741951526026
0.7044470301565806	429.02042557674963
0.70456443799494	430.2965091985686
0.7046818654012724	431.64961488233615
0.7047993123788394	433.0363173347585
0.7049167789309024	434.2988512891883
0.7050342650607243	435.6219816878741
0.7051517707715678	437.09379888776664
0.7052692960666963	438.5330797686126
0.705386840949374	439.9497811126828
0.7055044054228656	441.2665273533439
0.7056219894904361	442.5917566493536
0.7057395931553511	444.0080523988058
0.705857216420877	445.4324738829067
0.7059748592902804	446.86546377805286
0.7060925217668288	448.2488157739076
0.70621020385379	449.62491067420683
0.7063279055544321	451.0651550108319
0.7064456268720246	452.49484735565835
0.7065633678098366	453.9077227858764
0.7066811283711383	455.29488604558304
0.7067989085592001	456.67056230926
0.7069167083772933	458.0555647973391
0.7070345278286895	459.37702502762454
0.707152366916661	460.54463447978475
0.7072702256444803	461.65331049881144
0.7073881040154211	462.72205888476344
0.7075060020327569	464.5987967292375
0.7076239196997625	466.4951885635103
0.7077418570197124	468.1115427827434
0.7078598139958823	469.6529340360785
0.7079777906315483	471.121439397576
0.7080957869299869	472.5665063606291
0.7082138028944751	474.0159764614472
0.7083318385282908	475.5385921292105
0.7084498938347124	477.04526706483006
0.708567968817018	478.53006562903954
0.7086860634784875	479.8581756155359
0.7088041778224007	481.11605395165685
0.7089223118520377	482.0458807693188
0.7090404655706796	483.38864005397676
0.709158638981608	485.52422937188277
0.709276832088105	487.1875721721269
0.7093950448934531	488.5967337145298
0.7095132774009353	489.02935623688677
0.7096315296138355	490.01366663349165
0.7097498015354378	492.63318075648215
0.7098680931690269	494.6197364594626
0.7099864045178884	496.1396049558039
0.7101047355853081	497.8082029469526
0.7102230863745722	499.4841450134002
0.7103414568889679	501.10997183064256
0.7104598471317828	502.7385426593113
0.7105782571063047	504.3698044743765
0.7106966868158224	505.79889597124105
0.710815136263625	507.2226414683644
0.7109336054530023	508.91934000932457
0.7110520943872445	510.59273562941695
0.7111706030696424	512.236345045678
0.7112891315034873	513.8952784155389
0.7114076796920712	515.5561349425972
0.7115262476386865	517.1693613821956
0.7116448353466263	518.754286926749
0.711763442819184	520.2924726643299
0.711882070059654	521.9163863519416
0.7120007170713306	523.5783817729634
0.7121193838575091	525.196634512569
0.7122380704214853	526.8282599461045
0.7123567767665555	528.4879082095764
0.7124755028960166	530.0065963490623
0.7125942488131658	531.4446701661849
0.7127130145213015	532.9385336372118
0.7128318000237216	534.5033946605373
0.7129506053237256	536.2543385260899
0.7130694304246129	537.9715268765542
0.7131882753296837	539.6647751929385
0.7133071400422386	541.2547733435212
0.7134260245655789	542.6227974471269
0.7135449289030065	543.2383720202972
0.7136638530578235	544.9977487334096
0.7137827970333332	547.7439851481411
0.7139017608328388	549.6337835175599
0.7140207444596443	551.383193321809
0.7141397479170543	553.1526995248437
0.7142587712083737	554.7604795637345
0.7143778143369084	556.2023963096897
0.7144968773059646	558.2079239569549
0.7146159601188489	560.2863547717714
0.7147350627788687	562.0002103464888
0.7148541852893318	563.725612280909
0.7149733276535467	565.4647992012549
0.7150924898748222	567.0207984725749
0.715211671956468	568.5702552787374
0.7153308739017941	570.5448375467396
0.715450095714111	572.4877485222612
0.71556933739673	574.3868192438595
0.7156885989529628	576.1850421312735
0.7158078803861218	577.9416572245226
0.7159271816995193	579.6011428971859
0.7160465028964692	581.019359429601
0.7161658439802853	582.0595158868508
0.7162852049542819	582.8325320509723
0.7164045858217744	583.5436654349187
0.716523986586078	585.3856777505207
0.7166434072505089	585.0862559200971
0.716762847818384	581.0356092555056
0.7168823082930204	584.3927605814333
0.7170017886777359	591.0507240897024
0.7171212889758488	594.7925408443268
0.7172408091906781	597.3881551290589
0.7173603493255433	597.7718841419235
0.7174799093837642	598.8285401584945
0.7175994893686615	600.219299528323
0.7177190892835562	602.9746813705874
0.7178387091317702	605.9588300409059
0.7179583489166254	609.408537012337
0.7180780086414448	611.4053039292675
0.7181976883095517	612.626200342628
0.7183173879242699	615.3528237650314
0.718437107488924	617.8241069517856
0.7185568470068389	619.6602068382577
0.7186766064813399	620.7288068895458
0.7187963859157535	621.365002284394
0.7189161853134061	624.4983538416949
0.719036004677625	627.3877417019681
0.7191558440117378	629.5275058726751
0.7192757033190732	631.5603334644538
0.7193955826029597	633.5309077945636
0.7195154818667269	635.2402553802572
0.7196354011137046	637.0139770587699
0.7197553403472235	638.9649234257415
0.7198752995706147	641.092640957825
0.7199952787872098	643.3253794534829
0.720115278000341	645.1590685286511
0.7202352972133411	646.9763499011951
0.7203553364295432	648.793088469107
0.7204753956522815	650.567084948487
0.7205954748848902	652.3158735228601
0.7207155741307044	654.4836727759891
0.7208356933930594	656.6911355532734
0.7209558326752915	658.9531531936634
0.7210759919807375	660.8513110755113
0.7211961713127342	662.5380518632059
0.7213163706746197	663.6872282662275
0.7214365900697322	665.1985005334719
0.7215568295014103	667.5777797709322
0.721677088972994	670.088921042161
0.7217973684878227	672.6741149290123
0.7219176680492374	673.9798631507125
0.7220379876605789	675.7321500671028
0.722158327325189	678.5142733588646
0.7222786870464099	681.1259719041805
0.7223990668275843	683.6475881017179
0.7225194666720555	685.8085457846103
0.7226398865831676	687.9022321447629
0.7227603265642646	689.8653893368048
0.722880786618692	691.3312220851745
0.7230012667497951	692.5657911761789
0.7231217669609201	695.0170524001546
0.7232422872554135	697.306337651919
0.7233628276366229	699.2955368198393
0.7234833881078956	701.6147662912575
0.7236039686725803	704.0196636755544
0.7237245693340255	704.611290417001
0.7238451900955812	706.1015173833289
0.7239658309605971	709.092008830504
0.7240864919324239	712.0766862585131
0.7242071730144127	715.0111321836464
0.724327874209915	717.1826574762549
0.7244485955222832	719.4829580303984
0.7245693369548704	721.9742656482786
0.7246900985110294	724.2385082552897
0.7248108801941148	726.4449379630012
0.7249316820074803	728.8461174279342
0.7250525039544815	731.1522065602876
0.7251733460384739	733.3344073339788
0.7252942082628137	735.3879755054446
0.7254150906308574	737.3846432840504
0.7255359931459625	739.236222191895
0.7256569158114868	741.2306621510063
0.7257778586307888	743.3857740542438
0.7258988216072273	745.8048725012219
0.7260198047441617	748.2931437325129
0.7261408080449525	750.8313575462129
0.72626183151296	753.1055003615918
0.7263828751515454	755.1267770909848
0.7265039389640706	757.7124251451122
0.726625022953898	760.2312733818924
0.7267461271243904	762.1355372794727
0.7268672514789111	764.0957098408956
0.7269883960208241	766.1007488113131
0.7271095607534942	768.9772104108441
0.7272307456802866	771.7902334419109
0.7273519508045666	774.1442013130842
0.7274731761297006	776.3008081365891
0.7275944216590555	778.327903160853
0.7277156873959987	780.3683210859961
0.7278369733438982	781.9070897496505
0.727958279506122	782.2997784806453
0.7280796058860397	785.3873640229496
0.7282009524870207	789.8765192444674
0.7283223193124353	792.9114164004736
0.7284437063656539	795.7418087585157
0.7285651136500483	798.2082403579633
0.7286865411689898	800.5331887792672
0.7288079889258514	802.7538976015175
0.7289294569240056	804.3014424174355
0.7290509451668262	806.2616731093759
0.7291724536576875	808.793409033352
0.7292939823999636	811.6626337986269
0.7294155313970303	814.602168002635
0.7295371006522632	817.3443418522447
0.7296586901690385	819.8548665067113
0.7297802999507332	822.117015557954
0.7299019300007252	823.6187214164547
0.7300235803223919	825.0895920276821
0.7301452509191123	827.0431586434992
0.7302669417942654	829.0117348527442
0.7303886529512311	830.9926506292841
0.7305103843933897	829.9315411794244
0.7306321361241218	830.7975454176026
0.7307539081468093	837.9114896820792
0.7308757004648336	842.5226482211556
0.7309975130815778	845.6097244542549
0.7311193460004248	848.5525081698146
0.7312411992247582	851.4983038795414
0.7313630727579622	854.4554368211195
0.7314849666034219	857.0280959871933
0.7316068807645224	859.387639962829
0.7317288152446498	860.9749686934755
0.7318507700471907	862.9991552104523
0.7319727451755319	865.6359291071981
0.732094740633061	869.1526708013699
0.7322167564231665	872.6888640162115
0.7323387925492371	874.7542322828219
0.7324608490146619	877.4361228096932
0.732582925822831	880.7383712989472
0.7327050229771347	883.6557223700049
0.7328271404809642	886.4549340049648
0.7329492783377112	889.0587819736313
0.7330714365507675	891.7869991455457
0.7331936151235259	894.6036826676195
0.7333158140593796	896.9696798505931
0.7334380333617229	899.4054082670666
0.7335602730339499	902.0501166212422
0.7336825330794556	904.9132070861417
0.7338048135016354	907.8520359976598
0.7339271143038857	910.0673881814557
0.734049435489603	911.4082453371824
0.7341717770621846	911.4592463492953
0.7342941390250283	914.8477723396703
0.7344165213815324	919.08253782578
0.734538924135096	922.3241565359439
0.7346613472891185	925.4653149819076
0.734783790847	928.5064265269125
0.7349062548121412	930.1275051626412
0.7350287391879431	930.4649259555364
0.7351512439778078	927.3207287652931
0.7352737691851374	931.3385191042587
0.735396314813335	940.0916630031592
0.7355188808658037	943.8574432015656
0.7356414673459482	947.4687490155927
0.7357640742571725	951.0798197369977
0.7358867016028818	954.0165478881994
0.7360093493864824	956.6439997771959
0.7361320176113801	958.9076915916281
0.736254706280982	960.9692115801516
0.7363774153986956	962.7793295261171
0.7365001449679286	962.4220518095236
0.7366228949920899	962.317923263922
0.7367456654745885	965.4511444898427
0.7368684564188344	971.2171281309558
0.7369912678282374	979.0736556313252
0.7371140997062088	983.2588196712964
0.7372369520561599	986.806287738774
0.7373598248815024	989.5236766615456
0.7374827181856494	992.3309647117068
0.7376056319720137	995.1822187635727
0.7377285662440091	998.0349485992477
0.7378515210050496	1000.4390897723624
0.7379744962585505	1002.220901489896
0.738097492007927	1005.2355061351036
0.7382205082565949	1008.4416861211378
0.738343545007971	1010.991506051424
0.7384666022654723	1014.2022395397239
0.7385896800325165	1017.9734604635076
0.7387127783125219	1021.226535339312
0.7388358971089073	1024.3704126401697
0.7389590364250921	1027.3635100438769
0.7390821962644963	1030.5471811301502
0.7392053766305403	1033.8241264417832
0.7393285775266454	1037.0578242823394
0.7394517989562333	1040.263195684239
0.7395750409227259	1043.4292939289364
0.7396983034295463	1046.6954422835192
0.739821586480118	1049.9258708148543
0.7399448900778645	1052.86688117027
0.7400682142262109	1055.7937137582867
0.740191558928582	1058.7091820268947
0.7403149241884034	1061.3143866939047
0.7404383100091014	1063.9295875410398
0.7405617163941028	1066.617165453262
0.7406851433468352	1069.8010832378318
0.7408085908707264	1072.9835720500753
0.7409320589692048	1073.1583513670203
0.7410555476456997	1076.0107479462722
0.7411790569036406	1082.1391578015368
0.7413025867464579	1085.6237947662419
0.7414261371775823	1088.6564945396622
0.7415497082004452	1092.0158930231992
0.7416732998184786	1095.2673594323107
0.741796912035115	1098.4449178274012
0.7419205448537874	1100.6167403625386
0.7420441982779297	1103.4229355220725
0.742167872310976	1107.4159030037747
0.7422915669563612	1111.6993038669475
0.7424152822175206	1115.948030251042
0.7425390180978901	1119.2247051037507
0.7426627746009065	1122.0430844364205
0.7427865517300065	1124.4161210426666
0.7429103494886282	1128.7177325360856
0.7430341678802096	1133.0412302177153
0.7431580069081896	1136.8042324563605
0.7432818665760077	1140.2298754042158
0.7434057468871037	1143.4771246516793
0.7435296478449182	1146.6104580534345
0.7436535694528923	1149.8741923601879
0.7437775117144678	1153.3090672521269
0.7439014746330868	1155.8653074662482
0.7440254582121922	1158.5466525801585
0.7441494624552276	1162.4653612961504
0.7442734873656368	1165.3607746189175
0.7443975329468645	1167.552379807965
0.7445215992023557	1170.8199826596224
0.7446456861355559	1174.372966843393
0.7447697937499119	1178.3779634894338
0.7448939220488703	1182.166676220089
0.7450180710358784	1185.920693562002
0.7451422407143843	1189.8776434508745
0.7452664310878367	1193.7410773563845
0.7453906421596846	1197.523259553286
0.7455148739333779	1201.188799589996
0.7456391264123667	1204.8659363425634
0.7457633996001021	1208.588382957329
0.7458876935000356	1212.187008595891
0.7460120081156189	1215.7403512217304
0.7461363434503048	1219.351005998591
0.7462606995075466	1222.884721785309
0.7463850762907978	1226.3376947234062
0.7465094738035127	1229.6609819455393
0.7466338920491467	1233.1998092677952
0.746758331031155	1237.3610000310337
0.7468827907529935	1241.1239905131813
0.7470072712181189	1244.7159937411093
0.7471317724299886	1248.7791112210698
0.7472562943920602	1252.6288861433127
0.7473808371077922	1256.2198722220676
0.7475054005806435	1259.0096001263864
0.7476299848140736	1262.0374309870756
0.7477545898115426	1266.2757122828325
0.7478792155765113	1270.2952673187613
0.7480038621124406	1274.1521533423743
0.7481285294227926	1276.8358100719745
0.7482532175110298	1280.5024712492082
0.7483779263806148	1285.4895277733583
0.7485026560350116	1289.3641692752724
0.7486274064776842	1293.006782100572
0.748752177712097	1296.6739500597885
0.7488769697417158	1300.881224761501
0.749001782570006	1305.4170898036434
0.7491266162004343	1309.445495406187
0.7492514706364677	1313.3514104701023
0.7493763458815739	1317.0823502199794
0.7495012419392209	1321.01623073644
0.7496261588128773	1324.9312052329801
0.7497510965060128	1328.5944501869405
0.7498760550220971	1332.4929655090832
0.7500010343646007	1336.541896671777
0.7501260345369949	1340.4541958412055
0.750251055542751	1344.3513626695394
0.7503760973853414	1348.2263079659408
0.7505011600682389	1352.070485141651
0.750626243594917	1355.871441812808
0.7507513479688495	1359.5357770693254
0.7508764731935109	1363.4301255331404
0.7510016192723765	1367.4717017909156
0.7511267862089218	1371.5604320243692
0.7512519740066232	1375.5788971026877
0.7513771826689577	1379.498075498037
0.7515024121994025	1383.6813546296767
0.7516276626014359	1387.8663726340583
0.751752933878536	1391.8486279967356
0.7518782260341824	1395.6460892270863
0.7520035390718548	1399.3524095731111
0.7521288729950334	1403.7417429590605
0.7522542278071992	1408.0581094274457
0.7523796035118337	1412.2785137979683
0.7525050001124189	1416.4754927867893
0.7526304176124378	1420.4968385592786
0.7527558560153731	1423.9826862190234
0.752881315324709	1428.3351784904648
0.7530067955439299	1433.1334848356973
0.7531322966765205	1437.493214677483
0.7532578187259665	1441.8347776668256
0.7533833616957542	1446.1549370903638
0.75350892558937	1450.3911499946269
0.7536345104103016	1454.6032936234606
0.7537601161620366	1458.7848867530893
0.7538857428480638	1462.9004038009864
0.7540113904718717	1466.9894181204847
0.7541370590369503	1471.1180046257323
0.7542627485467898	1475.152657570279
0.7543884590048808	1479.093055325831
0.7545141904147151	1483.8249621855125
0.7546399427797842	1488.520108975727
0.7547657161035808	1492.9635868736034
0.754891510389598	1497.330461196149
0.7550173256413296	1501.671834511576
0.7551431618622698	1506.0311704748701
0.7552690190559135	1510.4022506688866
0.7553948972257561	1514.7831340944938
0.7555207963752938	1519.214892038128
0.755646716508023	1523.6912064763042
0.755772657627441	1528.238976113202
0.7558986197370455	1532.6102516939682
0.756024602840335	1536.9545817808223
0.7561506069408084	1541.3881518666717
0.7562766320419653	1545.8552170606447
0.7564026781473054	1550.3445825308227
0.75652874526033	1554.8549359755011
0.7566548333845401	1559.3751664461504
0.7567809425234375	1563.9080103858116
0.7569070726805247	1568.4593665958405
0.7570332238593047	1573.0110405635196
0.7571593960632813	1577.5533972210253
0.7572855892959586	1581.9779473968274
0.7574118035608413	1586.3429525647434
0.7575380388614347	1590.6696551692569
0.7576642952012449	1595.2733105889379
0.7577905725837782	1600.143981508233
0.7579168710125422	1604.7348937386762
0.7580431904910444	1609.332362644768
0.7581695310227928	1613.9853215859216
0.7582958926112967	1618.6818316052443
0.7584222752600652	1623.3965401237645
0.7585486789726085	1628.1298999278865
0.7586751037524372	1632.8563717250481
0.7588015496030628	1637.5770112411933
0.7589280165279966	1642.1877361375252
0.7590545045307512	1646.8657087578388
0.7591810136148396	1651.6322740378343
0.7593075437837755	1656.4178514046566
0.7594340950410726	1661.1674732942872
0.7595606673902461	1665.8094816473892
0.7596872608348112	1670.4661531875945
0.7598138753782836	1675.1511322352126
0.75994051102418	1680.009739737996
0.7600671677760173	1684.8999788882854
0.7601938456373134	1689.8183358678436
0.7603205446115863	1694.7237640679616
0.7604472647023548	1699.5725404163134
0.7605740059131385	1704.3266789094207
0.7607007682474575	1709.0984974514765
0.7608275517088319	1713.9102022726502
0.7609543563007835	1718.8478294799597
0.7610811820268336	1723.7360939118137
0.7612080288905045	1728.602353959272
0.7613348968953197	1733.5493810874639
0.7614617860448022	1738.3700176758916
0.7615886963424764	1743.057390622428
0.7617156277918667	1747.8958229191132
0.7618425803964988	1752.8166002888438
0.7619695541598982	1757.8706722572138
0.7620965490855914	1762.8649174409315
0.7622235651771058	1767.864432534219
0.7623506024379685	1772.9682796949512
0.7624776608717082	1777.9740006398101
0.7626047404818536	1782.9116063532801
0.7627318412719337	1787.6956026181954
0.762858963245479	1792.5567794480812
0.7629861064060198	1797.5070766003764
0.7631132707570876	1802.4780779512796
0.7632404563022137	1807.3995965598547
0.7633676630449308	1812.2088324188423
0.7634948909887717	1817.0048666155587
0.7636221401372697	1821.800376389631
0.7637494104939593	1826.6130622857859
0.7638767020623748	1831.4144286100122
0.7640040148460518	1836.2019752610263
0.7641313488485262	1840.7868716733467
0.7642587040733344	1845.2739645613858
0.7643860805240132	1849.6465166698677
0.7645134782041005	1853.961929500663
0.7646408971171346	1858.1625074585133
0.764768337266654	1862.134300872126
0.7648957986561985	1865.5367155602294
0.7650232812893079	1868.728244310484
0.7651507851695227	1871.8172758265353
0.7652783103003843	1874.2834995271471
0.7654058566854343	1876.26843599995
