#wavelength	surface flux
0.6450077295303345	11.47021493390185
0.6472567915916443	12.433827843400303
0.6494921445846558	13.467350256922538
0.6517150402069092	14.564139136615369
0.6539263725280762	15.74221263748677
0.6561272740364075	16.993465062408255
0.6583186388015747	18.336833625994142
0.6605015397071838	19.763455290598515
0.6626768708229065	21.285279694528047
0.6648455858230591	22.91036133644007
0.6670085787773132	24.639096786351278
0.6691668033599854	26.483338493066917
0.6713210344314575	28.445618594049918
0.6734722256660461	30.53439764375022
0.6756211519241333	32.758217933221104
0.6777685880661011	35.12569593503039
0.6799154281616211	37.645017662751606
0.6820623278617859	40.32601681072
0.6842101216316223	43.18024332016632
0.6863595843315125	46.21847597251461
0.688511312007904	49.447816596615496
0.6906660795211792	52.87609108057092
0.6928245425224304	56.43625779597197
0.6949873566627502	60.39735521370262
0.6971551775932312	64.56704774840681
0.6993286609649658	68.91589655674704
0.7015084028244019	73.63832510360209
0.7036949396133423	78.6170497677469
0.7058889269828796	83.94091242279592
0.7080909013748169	89.55260233564466
0.710301399230957	95.53244114073345
0.712520956993103	101.93858352746318
0.7147500514984131	108.69115921394334
0.7169892191886902	115.11585631328836
0.7192389369010925	123.42865749248521
0.7214996814727783	131.68851236596774
0.723771870136261	140.31229091624473
0.7260559797286987	149.59949192155554
0.7283523678779602	159.53150620038562
0.7306615710258484	169.5901061546405
0.7329838871955872	181.25936525049323
0.7353196740150452	192.8280865413373
0.7376693487167358	205.82404156752008
0.7400332689285278	219.45678491650906
0.7424117922782898	233.80022056410135
0.7448052167892456	249.13951080381
0.7472138404846191	265.5116506424766
0.7496379613876343	282.9845628334485
0.7520779371261597	301.4587274275094
0.7545340061187744	321.15948871411257
0.7570064663887024	342.0965734262657
0.7594954967498779	364.29466895964856
0.7620013952255249	387.74914020156064
0.7645244002342224	411.3528493571976
0.7670646905899048	434.5046158268203
0.7696225643157959	463.4781770833819
0.7721980810165405	497.60090646208175
0.7747915983200073	531.597295358941
0.7774031162261963	566.525189911918
0.7800329327583313	602.0727581612388
0.7826811671257019	642.7088963738696
0.7853479981422424	684.5374376057264
0.7880334854125977	728.7450825956023
0.7907378077507019	776.0132581471804
0.7934610247612	826.2398588654329
0.7962033748626709	879.415351556368
0.7989648580551147	936.7478258958512
0.801745593547821	997.3820708965413
0.8045456409454346	1061.9877724184096
0.8073651194572449	1130.382990086952
0.8102040886878967	1198.800618279383
0.8130625486373901	1272.6041792242636
0.8159406185150146	1358.015201767309
0.8188382983207703	1442.2866525608622
0.8217556476593018	1540.0159399576376
0.8246926665306091	1637.9840512056544
0.8276493549346924	1744.1931121014202
0.8306257724761963	1855.8341776008433
0.8336219191551208	1977.6105321443645
0.8366377949714661	2101.5899752656633
0.8396733403205872	2237.2423276017757
0.8427285552024841	2383.687562634795
0.8458034992218018	2533.669793295467
0.8488980531692505	2695.4742982026723
0.8520121574401855	2868.037545868706
0.8551458716392517	3050.3221375049793
0.8582990765571594	3243.6470833151116
0.8614717125892639	3437.210699440131
0.8646637797355652	3650.251213732964
0.8678751587867737	3889.7425309520354
0.8711057901382446	4131.175197571633
0.8743556141853333	4391.212781296562
0.87762451171875	4666.228580773533
0.8809124231338501	4956.558214329494
0.8842192888259888	5265.177429378595
0.8875449895858765	5589.950124317993
0.8908893465995789	5911.1625947364455
0.894252359867096	6266.798394000868
0.8976338505744934	6525.62574948874
0.9010337591171265	7032.3716563871085
0.9044519662857056	7513.2475064540085
0.9078882932662964	7949.560417627706
0.9113426208496094	8414.803354017296
0.914814829826355	8929.465027080976
0.9183048605918884	9436.326292850563
0.9218124747276306	10026.59463145652
0.925337553024292	10516.51090554225
0.9288799166679382	10677.726311477876
0.9324395060539246	10400.511909141624
0.9360161423683167	11636.842628827113
0.9396095871925354	13115.097310234643
0.943219780921936	13865.983751247222
0.9468464851379395	13884.062209193604
0.9504896402359009	14679.49461843201
0.9541489481925964	15974.176818754268
0.9578243494033813	17067.244222628768
0.9615156054496765	17987.75879781964
0.9652225375175476	19201.541361205716
0.9689450263977051	20765.1815657543
0.9726828336715698	21485.97800384046
0.9764357805252075	23107.139950859237
0.9802037477493286	24290.220349314804
0.983986496925354	25947.86642842771
0.9877838492393494	27467.250322786585
0.9915955662727356	29046.35354842203
0.9954215884208679	30705.739246814486
0.9992615580558777	32373.918331208977
1.0031154155731201	34060.91449829215
1.0069829225540161	35859.81204168896
1.0108637809753418	37753.40280655479
1.0147579908370972	39716.6119296875
1.018665075302124	41775.968838898334
1.022585153579712	43924.82296813073
1.0265177488327026	46168.58891892404
1.0304628610610962	48510.08451563337
1.0344202518463135	50961.20968740144
1.0383895635604858	53513.65073747948
1.0423706769943237	56173.10610013378
1.0463634729385376	58946.054250671725
1.0503677129745483	61842.21579321409
1.0543830394744873	64866.53875604319
1.058409333229065	67992.76972075301
1.0624464750289917	71454.2167208269
1.0664942264556885	74925.05361323364
1.0705522298812866	78528.02454863593
1.0746204853057861	82281.03820121191
1.0786986351013184	86020.8652633608
1.0827864408493042	90115.72210324535
1.086883783340454	94064.7240268283
1.0909905433654785	98194.29871674451
1.0951062440872192	102265.95885312988
1.0992310047149658	105237.38851030038
1.10336434841156	107602.82227715543
1.1075061559677124	110769.2133985567
1.1116561889648438	110115.13210932317
1.115814208984375	97307.48872594436
1.1199802160263062	113580.43735110463
1.124153733253479	100195.83180898783
1.1283347606658936	129006.31614573848
1.1325229406356812	133316.41429109374
1.1367181539535522	142327.59669420877
1.1409201622009277	159885.4166259343
1.145128846168518	153151.59585255815
1.1493438482284546	146625.15197956213
1.1535650491714478	169493.6879139772
1.1577922105789185	184106.23418415626
1.1620250940322876	189021.26918535604
1.1662636995315552	199344.03427583404
1.170507550239563	205453.54344221685
1.174756646156311	216780.027942829
1.1790107488632202	230645.86264266915
1.1832695007324219	241747.89647487056
1.1875330209732056	251872.53118062732
1.191800832748413	262789.1629604229
1.1960728168487549	272988.39453519054
1.2003488540649414	283256.84691572323
1.2046287059783936	295300.4953631808
1.2089121341705322	305891.00197382964
1.2131990194320679	316492.8200109949
1.2174891233444214	329918.18820687366
1.2217823266983032	341827.8241947044
1.2260783910751343	354639.3216548556
1.230377197265625	367272.69422870467
1.2346785068511963	380869.98005397775
1.238982081413269	394636.8149685029
1.2432878017425537	408420.96342433355
1.2475954294204712	422424.46308864176
1.2519049644470215	437143.7468149618
1.256216049194336	452202.7055946689
1.2605286836624146	467487.3083592344
1.2648425102233887	482987.7039148108
1.2691574096679688	498844.12842381286
1.2734732627868652	514436.8781928146
1.2777899503707886	531727.0628580534
1.2821072340011597	546771.5499080023
1.2864248752593994	563301.8524237294
1.2907428741455078	580513.7144679775
1.2950609922409058	587483.3795586346
1.2993791103363037	610516.2774096907
1.303696870803833	630322.2850561803
1.3080145120620728	653726.387003694
1.3123314380645752	669688.8590414706
1.3166478872299194	686774.2930665577
1.3209635019302368	704915.8176854542
1.3252781629562378	726778.7953230655
1.3295916318893433	727748.740950117
1.3339040279388428	716615.1967140055
1.3382149934768677	535624.3379073648
1.3425244092941284	458350.79564471444
1.3468321561813354	385030.27675367525
1.3511382341384888	425089.18681085506
1.3554422855377197	320339.11729807267
1.3597444295883179	272228.799737991
1.3640443086624146	427822.67268507223
1.3683418035507202	411444.88925800374
1.3726370334625244	537552.6445454642
1.3769296407699585	596366.8452948437
1.381219506263733	509964.3138652681
1.3855066299438477	397222.887268272
1.3897908926010132	550728.6370908818
1.3940720558166504	452753.67011454003
1.3983501195907593	543478.1686576366
1.4026249647140503	628383.6852643583
1.4068963527679443	625927.2955624078
1.4111642837524414	632763.7724362436
1.4154287576675415	627168.8299080988
1.419689416885376	522292.60006751283
1.4239463806152344	494419.9814354318
1.4281994104385376	800580.6102151383
1.4324485063552856	658363.6129198141
1.436693549156189	861752.4713414973
1.440934419631958	800612.0040301161
1.4451709985733032	898510.7382986774
1.449403166770935	1010816.6080755839
1.453631043434143	1098656.6209269844
1.4578542709350586	1326497.094558031
1.4620729684829712	1273138.0710235266
1.4662868976593018	1400724.4352427132
1.4704961776733398	1384112.534498726
1.4747005701065063	1437955.3188417773
1.4788999557495117	1528322.0586480808
1.4830944538116455	1517008.75029149
1.4872838258743286	1623637.9195741408
1.491468071937561	1680647.435545696
1.4956470727920532	1722992.5824422608
1.4998208284378052	1819591.2963994318
1.5039892196655273	1870837.467679701
1.5081522464752197	1929134.8927019835
1.5123097896575928	2005327.6435962254
1.5164618492126465	2062638.673524906
1.5206083059310913	2118627.9836395616
1.5247491598129272	2197052.746728133
1.5288842916488647	2190657.949101814
1.5330137014389038	2319841.8450394087
1.5371372699737549	2388241.0957979467
1.541254997253418	2424892.2833737554
1.545366883277893	2467991.89935548
1.5494728088378906	2529312.5593839763
1.5535727739334106	2585922.6458918247
1.5576666593551636	2637505.0000006864
1.561754584312439	2692178.8080775375
1.5658363103866577	2746671.521796343
1.5699119567871094	2805062.2418962554
1.5739814043045044	2856415.043127831
1.5780447721481323	2906811.338236358
1.582101821899414	2956012.7089209706
1.5861525535583496	2998837.8084304994
1.5901970863342285	3055923.1032732027
1.5942351818084717	3110054.9842903996
1.5982669591903687	3166137.501935663
1.6022924184799194	3221096.7326852106
1.606311559677124	3269193.903570305
1.6103241443634033	3325707.865142623
1.6143304109573364	3378229.2035451774
1.6183301210403442	3422077.0059021516
1.6223233938217163	3402841.1908956543
1.6263102293014526	3348487.616346942
1.6302905082702637	3240375.5743413744
1.634264349937439	3430418.5143456794
1.638231635093689	3628219.685474921
1.6421923637390137	3686544.3825243255
1.646146535873413	3706732.4078496536
1.6500942707061768	3752347.600567326
1.6540353298187256	3768145.4178648763
1.6579699516296387	3791091.057679458
1.661897897720337	3915258.6522162766
1.6658192873001099	3502128.6634733058
1.6697341203689575	3616500.740453375
1.6736423969268799	4127067.0492227883
1.677544116973877	4150023.6821845258
1.6814392805099487	4122082.030006621
1.6853278875350952	4100815.239116921
1.6892099380493164	4320060.514781546
1.6930854320526123	3962261.3581926497
1.696954369544983	4175437.9172227513
1.7008168697357178	3843791.7880443074
1.7046726942062378	3953096.4532827204
1.708522081375122	4219814.787404166
1.712364912033081	4606239.2870033
1.7162011861801147	4726021.228402924
1.7200311422348022	4665419.913047504
1.723854422569275	4326790.2014662055
1.7276713848114014	4353380.319467855
1.731481909751892	4425384.419626819
1.7352858781814575	4327499.710911624
1.7390835285186768	4751788.167729375
1.7428747415542603	4801057.4008459505
1.7466596364974976	4864832.622371377
1.7504380941390991	4973664.004213795
1.7542102336883545	4437879.564391354
1.7579760551452637	4397694.529932759
1.7617355585098267	4357248.290645455
1.7654887437820435	4108739.358364524
1.7692357301712036	4016413.5843979605
1.7729763984680176	4062259.752770643
1.776710867881775	3272543.2246078346
1.7804391384124756	3638627.630229431
1.7841613292694092	2957504.552310076
1.7878772020339966	3076912.574758097
1.7915871143341064	2856178.1280635684
1.7952908277511597	3125950.931680894
1.7989884614944458	3234040.427880532
1.8026801347732544	2340381.861598173
1.806365728378296	2547576.9741945
1.8100452423095703	2426223.8499009944
1.8137187957763672	3002517.4514468396
1.817386507987976	3158848.7414653474
1.8210482597351074	2852841.6987063484
1.8247040510177612	3753930.1810144046
1.828354001045227	2917244.931769164
1.8319982290267944	2996786.3452683087
1.8356364965438843	2931566.513351828
1.8392690420150757	2801533.8813960715
1.8428958654403687	3084109.1866282295
1.8465168476104736	3023243.7150883577
1.8501322269439697	3161580.976448251
1.8537418842315674	3617838.0336039173
1.8573459386825562	2760969.9294077633
1.860944390296936	1860138.431977269
1.864537239074707	1951418.6381842138
1.8681244850158691	2014865.3886892241
1.871706247329712	2133737.6494986997
1.8752825260162354	2595314.705397553
1.8788533210754395	3898223.727036149
1.8824186325073242	3935539.205415024
1.8859784603118896	3461854.8445550445
1.8895330429077148	3603466.242882386
1.8930821418762207	3928962.118293657
1.8966259956359863	4274803.170798379
1.9001644849777222	3319497.7670980575
1.9036977291107178	3614083.06119085
1.9072256088256836	4564018.656849073
1.9107483625411987	4503805.206957162
1.9142658710479736	3383023.7615200505
1.9177782535552979	4775934.425829254
1.9212853908538818	3660348.3258861788
1.9247875213623047	3610837.720347066
1.9282845258712769	3939717.6507228
1.9317764043807983	3421468.8867538054
1.9352631568908691	3859782.586294576
1.9387450218200684	2229885.7243902474
1.942221760749817	3169122.9113936755
1.9456936120986938	3318700.117897605
1.9491604566574097	3272471.7798660942
1.952622413635254	4246765.066789717
1.956079363822937	3235487.83521731
1.959531545639038	2999683.3536826405
1.962978720664978	3435113.13329511
1.966421127319336	5007773.930219366
1.9698586463928223	5106007.699892306
1.9732913970947266	5192251.42593418
1.9767193794250488	5042683.51097276
1.9801424741744995	4969371.376238641
1.9835609197616577	5688903.250499935
1.9869745969772339	6108314.09386935
1.990383505821228	4723881.743128997
1.9937876462936401	5763827.5108708795
1.9971871376037598	6117082.509423898
2.000581979751587	5568763.5489704665
2.003972291946411	6588699.605720092
2.007357597351074	7090316.784371405
2.0107386112213135	7474176.293215663
2.0141148567199707	8239469.195556819
2.017486572265625	7806141.854385612
2.0208535194396973	8316523.654226411
2.0242159366607666	8747267.69899929
2.027573823928833	8367077.906394787
2.0309269428253174	8069256.213888242
2.034275770187378	8824787.667538118
2.0376198291778564	8995405.053326648
2.040959596633911	8987546.820488034
2.044294595718384	9107002.200134322
2.0476250648498535	8548879.374441925
2.0509510040283203	8441405.388826126
2.054272413253784	9049146.284979334
2.057589530944824	9113054.291285763
2.0609018802642822	8833298.317178495
2.0642096996307373	9003213.044774124
2.0675129890441895	9193532.506628007
2.0708119869232178	9406979.885121744
2.074106216430664	9594226.213752951
2.0773961544036865	9676067.60804298
2.080681324005127	9737218.970723167
2.0839622020721436	9700082.56679564
2.087238311767578	9660702.138968876
2.090510129928589	9741457.5915293
2.0937774181365967	9801293.335400045
2.0970399379730225	9851989.546672875
2.1002981662750244	9844436.361965353
2.1035518646240234	9936901.851717412
2.1068007946014404	9934517.237008095
2.1100454330444336	9673708.59879687
2.1132853031158447	9414800.807452234
2.116520881652832	9648423.173704835
2.1197516918182373	9981395.114684198
2.1229779720306396	10130485.083615392
2.12619948387146	10162048.22111014
2.1294167041778564	10175496.39586855
2.132629156112671	10214225.69508526
2.1358368396759033	10271467.868033202
2.139039993286133	10299443.562896904
2.1422386169433594	10290944.423614094
2.145432472229004	10292584.12219319
2.1486217975616455	10181407.89969524
2.151806354522705	9827191.202719856
2.1549863815307617	9484373.984135972
2.1581614017486572	9979050.02391878
2.16133189201355	10224334.694535859
2.1644976139068604	10359890.961700944
2.167658567428589	10450626.475529142
2.1708147525787354	10417799.649978038
2.173966407775879	10309115.361163946
2.1771130561828613	10448521.303258985
2.1802549362182617	10534707.064200304
2.183391809463501	10462385.996860474
2.1865241527557373	10513991.947888784
2.1896514892578125	10571716.613502586
2.1927738189697266	10581991.72346116
2.1958916187286377	10312321.001949891
2.1990041732788086	9337333.04438695
2.2021119594573975	8991791.336454589
2.2052149772644043	9730820.98460626
2.208312749862671	10507629.542815793
2.2114057540893555	10658118.088556282
2.214493751525879	10242665.126534965
2.217576742172241	9765859.241846696
2.2206547260284424	9937859.887106689
2.2237277030944824	9729601.544372292
2.2267956733703613	9275881.374091214
2.2298583984375	9113691.123248596
2.2329163551330566	9170431.656682048
2.235969066619873	9507514.170836506
2.2390167713165283	8752248.807644745
2.2420592308044434	7916182.080024834
2.2450966835021973	8489082.535651926
2.248128890991211	8353804.3116716575
2.2511560916900635	8179244.447936454
2.254178285598755	7907981.213468784
2.257194995880127	8249814.402477641
2.260206699371338	8614774.923332077
2.2632133960723877	8171561.519630783
2.266214609146118	8557872.921230553
2.2692108154296875	9096510.584359126
2.2722020149230957	9340178.229434492
2.2751877307891846	8879318.575507797
2.278168201446533	8951948.252319248
2.2811436653137207	9931026.74951795
2.284113883972168	8618220.045774277
2.287078857421875	7175685.93248259
2.290038824081421	7863491.088057862
2.2929933071136475	7494130.351582685
2.295942783355713	7111389.715331586
2.298887014389038	7345199.067243029
2.301826238632202	8176070.09835334
2.304760217666626	9145441.027894484
2.3076889514923096	9643887.180646315
2.310612440109253	9895119.742334366
2.3135311603546143	9177779.83452098
2.3164443969726562	6963480.779765248
2.319352865219116	6933695.014803527
2.322256088256836	7342712.948830661
2.3251543045043945	6855632.639981301
2.328047275543213	6968259.215942188
2.330935478210449	7259353.206540613
2.3338186740875244	7399515.401229426
2.3366971015930176	7216062.449824283
2.3395702838897705	7175473.106716638
2.3424389362335205	6926781.130769057
2.3453025817871094	6485525.616726185
2.348161458969116	6332638.71832587
2.351015567779541	6900355.000248346
2.353865146636963	7412167.202045506
2.3567099571228027	7399692.29971249
2.3595502376556396	7925401.918166262
2.3623859882354736	8993068.797997251
2.3652172088623047	9711904.554783592
2.368043899536133	7927910.323331356
2.370866537094116	5741801.830849124
2.3736846446990967	5368878.215944843
2.3764986991882324	5699244.505219593
2.3793084621429443	6979555.891139142
2.3821144104003906	7797630.459577998
2.384916305541992	7414645.320884822
2.387714147567749	7732431.8085247995
2.3905084133148193	9426494.642172605
2.393299102783203	9907931.851673732
2.3960859775543213	8697385.0431304
2.398869514465332	6975213.442538304
2.4016497135162354	6014558.279737203
2.4044265747070312	6405931.196650951
2.407200336456299	7626670.289577204
2.409970998764038	8251047.067720612
2.4127390384674072	7920034.426907332
2.415503978729248	6859044.883684464
2.418266534805298	6330308.243940195
2.4210267066955566	6861671.697176942
2.4237842559814453	7134453.388539567
2.426539897918701	6265309.06400981
2.429293394088745	6185089.965639087
2.4320452213287354	7006772.4257473685
2.4347951412200928	6513503.1865137825
2.4375438690185547	6159761.374833066
2.440291166305542	6976850.157993048
2.443037271499634	7405822.259860005
2.445782423019409	7703782.120487032
2.4485268592834473	7353470.242579133
2.451270818710327	5892072.900907161
2.454014539718628	5827862.746340477
2.4567582607269287	6992040.997201763
2.4595019817352295	7683536.560084892
2.4622461795806885	7973874.526877593
2.4649908542633057	7317508.840312582
2.4677364826202393	5412464.538018143
2.4704833030700684	4682789.764875094
2.473231554031372	5062794.367881599
2.4759814739227295	5481614.974165986
2.4787333011627197	5387734.236580066
2.481487512588501	5056213.907219384
2.4842441082000732	5522238.171318243
