#wavelength	surface flux
0.7	6914.99731185849
0.7001166666666666	6919.380227393345
0.7002333527777778	6932.803590140539
0.700350058336574	6968.819071049038
0.7004667833462966	6997.5275287564145
0.7005835278101878	7020.7710611184875
0.7007002917314895	7040.420163800148
0.7008170751134447	7058.580578251367
0.7009338779592968	7071.482614341755
0.7010507002722901	7075.3482373014685
0.7011675420556689	7067.424669039542
0.701284403312678	7096.865125873494
0.7014012840465635	7140.422105830909
0.7015181842605713	7160.583957828857
0.701635103957948	7171.3043990520155
0.701752043141941	7160.010314223562
0.701869001815798	7163.06444757303
0.7019859799827672	7176.094196015337
0.7021029776460976	7222.771936061848
0.7022199948090387	7269.769673098024
0.7023370314748403	7296.055549883858
0.7024540876467528	7319.131022644321
0.702571163328027	7338.4670834568415
0.7026882585219152	7351.46614900133
0.7028053732316688	7362.957367641063
0.7029225074605406	7386.137045395684
0.7030396612117841	7408.77522653979
0.7031568344886527	7430.351445088257
0.7032740272944008	7450.80070032678
0.7033912396322832	7470.594021754559
0.7035084715055552	7491.633570827351
0.7036257229174727	7512.016529828627
0.7037429938712924	7529.696406935987
0.7038602843702709	7547.099549714875
0.7039775944176659	7564.241076911282
0.7040949240167356	7587.048050020669
0.7042122731707383	7610.802115448726
0.7043296418829335	7631.190547829325
0.7044470301565806	7650.817889561485
0.70456443799494	7669.304620474988
0.7046818654012724	7687.307405033378
0.7047993123788394	7705.101591994399
0.7049167789309024	7726.914051213265
0.7050342650607243	7748.588450405606
0.7051517707715678	7769.864820607748
0.7052692960666963	7790.774614082145
0.705386840949374	7811.430248581647
0.7055044054228656	7830.530487704646
0.7056219894904361	7849.800382430305
0.7057395931553511	7870.65171964696
0.705857216420877	7891.697590202426
0.7059748592902804	7912.94871365874
0.7060925217668288	7933.664978649244
0.70621020385379	7954.233431272834
0.7063279055544321	7974.753243289514
0.7064456268720246	7995.311244480218
0.7065633678098366	8015.9276195440725
0.7066811283711383	8036.4053526803
0.7067989085592001	8056.82233508532
0.7069167083772933	8075.896745741426
0.7070345278286895	8094.947867457789
0.707152366916661	8113.968679522475
0.7072702256444803	8132.336121135331
0.7073881040154211	8150.261227368624
0.7075060020327569	8175.545685303059
0.7076239196997625	8201.00643436595
0.7077418570197124	8223.902440583377
0.7078598139958823	8245.65578141807
0.7079777906315483	8266.298109780691
0.7080957869299869	8287.551612707384
0.7082138028944751	8309.037779215825
0.7083318385282908	8331.193459326061
0.7084498938347124	8352.829686661931
0.708567968817018	8373.7547162365
0.7086860634784875	8393.734921802657
0.7088041778224007	8413.15961422322
0.7089223118520377	8426.972966634512
0.7090404655706796	8446.283949346001
0.709158638981608	8476.150158275008
0.709276832088105	8499.362883633607
0.7093950448934531	8518.994430880139
0.7095132774009353	8522.888233033522
0.7096315296138355	8535.554472453525
0.7097498015354378	8574.248285435935
0.7098680931690269	8604.863106753712
0.7099864045178884	8629.521428856491
0.7101047355853081	8652.176619623084
0.7102230863745722	8674.928142966173
0.7103414568889679	8699.14097384437
0.7104598471317828	8722.382797005115
0.7105782571063047	8744.674537052417
0.7106966868158224	8764.8838319933
0.710815136263625	8785.28696063603
0.7109336054530023	8810.196903527498
0.7110520943872445	8834.840553779164
0.7111706030696424	8859.14357130212
0.7112891315034873	8882.622537731288
0.7114076796920712	8905.80642570011
0.7115262476386865	8928.621282801407
0.7116448353466263	8950.992733118916
0.711763442819184	8972.63214796529
0.711882070059654	8995.716904181489
0.7120007170713306	9019.442923594273
0.7121193838575091	9042.367601406688
0.7122380704214853	9065.618950009286
0.7123567767665555	9089.557939848564
0.7124755028960166	9111.750141864426
0.7125942488131658	9132.94360575148
0.7127130145213015	9152.424865988805
0.7128318000237216	9173.477704477922
0.7129506053237256	9199.063677187398
0.7130694304246129	9223.180653828516
0.7131882753296837	9246.25335810625
0.7133071400422386	9266.48776815794
0.7134260245655789	9286.298594238904
0.7135449289030065	9305.699173153307
0.7136638530578235	9332.639442221569
0.7137827970333332	9366.085223006621
0.7139017608328388	9390.578744046908
0.7140207444596443	9413.653615659783
0.7141397479170543	9437.167466920106
0.7142587712083737	9458.836877156493
0.7143778143369084	9478.614649496114
0.7144968773059646	9507.17905882232
0.7146159601188489	9536.96838735787
0.7147350627788687	9561.646885816448
0.7148541852893318	9586.406514010696
0.7149733276535467	9611.26258318141
0.7150924898748222	9633.757192625013
0.715211671956468	9656.044364282254
0.7153308739017941	9682.675469652504
0.715450095714111	9709.170401070824
0.71556933739673	9735.475687570619
0.7156885989529628	9757.738601999701
0.7158078803861218	9778.061217640274
0.7159271816995193	9790.706122714602
0.7160465028964692	9810.10965496178
0.7161658439802853	9840.098133625641
0.7162852049542819	9860.547608655203
0.7164045858217744	9877.294522859786
0.716523986586078	9897.062722384864
0.7166434072505089	9898.810844284599
0.716762847818384	9868.99203360395
0.7168823082930204	9905.425495332578
0.7170017886777359	9971.538405435087
0.7171212889758488	10021.95414651787
0.7172408091906781	10060.620065759262
0.7173603493255433	10076.609888334908
0.7174799093837642	10093.045978219527
0.7175994893686615	10109.704957610153
0.7177190892835562	10145.546842785752
0.7178387091317702	10183.583792176918
0.7179583489166254	10226.0315725534
0.7180780086414448	10254.100158218014
0.7181976883095517	10274.490893993643
0.7183173879242699	10308.086419719979
0.718437107488924	10339.085591520801
0.7185568470068389	10363.717293452746
0.7186766064813399	10381.490829635337
0.7187963859157535	10395.401116176947
0.7189161853134061	10434.699591607518
0.719036004677625	10471.36936349993
0.7191558440117378	10500.07081787827
0.7192757033190732	10527.442506950605
0.7193955826029597	10554.040216859974
0.7195154818667269	10578.685461363097
0.7196354011137046	10604.110606278438
0.7197553403472235	10631.571230144025
0.7198752995706147	10659.773533782069
0.7199952787872098	10688.417781340975
0.720115278000341	10709.860846870626
0.7202352972133411	10726.716298783875
0.7203553364295432	10733.261340303812
0.7204753956522815	10763.487691027594
0.7205954748848902	10807.749323172997
0.7207155741307044	10840.507778603871
0.7208356933930594	10872.425521504343
0.7209558326752915	10903.413137210799
0.7210759919807375	10930.38487588764
0.7211961713127342	10955.02364938155
0.7213163706746197	10975.294636864764
0.7214365900697322	10997.561238626953
0.7215568295014103	11024.714577107445
0.721677088972994	11057.765579339937
0.7217973684878227	11094.12284899968
0.7219176680492374	11114.51618655702
0.7220379876605789	11138.705374859836
0.722158327325189	11171.893797649242
0.7222786870464099	11205.434372923364
0.7223990668275843	11239.164139479159
0.7225194666720555	11268.417690487227
0.7226398865831676	11297.007688473876
0.7227603265642646	11324.323337719616
0.722880786618692	11346.605599577586
0.7230012667497951	11366.54594678829
0.7231217669609201	11398.61878685122
0.7232422872554135	11428.57411207979
0.7233628276366229	11454.6064025782
0.7234833881078956	11485.607798070394
0.7236039686725803	11518.196361408409
0.7237245693340255	11532.230710285272
0.7238451900955812	11554.874356577695
0.7239658309605971	11591.890783942608
0.7240864919324239	11628.513506463627
0.7242071730144127	11664.523252832993
0.724327874209915	11693.241485156615
0.7244485955222832	11723.448479196473
0.7245693369548704	11755.863400675897
0.7246900985110294	11786.980544638336
0.7248108801941148	11817.75559933042
0.7249316820074803	11849.508748964508
0.7250525039544815	11879.99486073984
0.7251733460384739	11908.830225455751
0.7252942082628137	11936.640433728671
0.7254150906308574	11963.882031335
0.7255359931459625	11989.152343743892
0.7256569158114868	12016.713884316727
0.7257778586307888	12046.852399008374
0.7258988216072273	12077.104420979322
0.7260198047441617	12107.806274788365
0.7261408080449525	12140.66174734509
0.72626183151296	12168.322790683034
0.7263828751515454	12191.009690889685
0.7265039389640706	12227.175753878295
0.726625022953898	12263.065560877203
0.7267461271243904	12289.351553689654
0.7268672514789111	12316.843677189498
0.7269883960208241	12345.303224015723
0.7271095607534942	12381.570477540216
0.7272307456802866	12417.617576740931
0.7273519508045666	12450.573395955256
0.7274731761297006	12480.603432182119
0.7275944216590555	12508.713407001398
0.7277156873959987	12535.781183831745
0.7278369733438982	12558.162025046016
0.727958279506122	12569.96176712642
0.7280796058860397	12608.367875158183
0.7282009524870207	12660.624882504439
0.7283223193124353	12700.138101462391
0.7284437063656539	12737.162812750907
0.7285651136500483	12769.75834870761
0.7286865411689898	12800.23519616246
0.7288079889258514	12829.250599921423
0.7289294569240056	12849.604635539643
0.7290509451668262	12875.773217156537
0.7291724536576875	12909.994126331369
0.7292939823999636	12945.973411080106
0.7294155313970303	12982.291022339805
0.7295371006522632	13017.375791726587
0.7296586901690385	13049.144257743745
0.7297802999507332	13077.357014155761
0.7299019300007252	13102.135539380564
0.7300235803223919	13126.53216354196
0.7301452509191123	13152.092252991244
0.7302669417942654	13180.21635685027
0.7303886529512311	13210.439020196496
0.7305103843933897	13212.341157772964
0.7306321361241218	13231.117302513994
0.7307539081468093	13305.081298042898
0.7308757004648336	13358.698329741926
0.7309975130815778	13399.926040073069
0.7311193460004248	13434.24942498934
0.7312411992247582	13469.57806073438
0.7313630727579622	13507.15167491854
0.7314849666034219	13540.108312747514
0.7316068807645224	13570.774817363357
0.7317288152446498	13596.664415619798
0.7318507700471907	13624.535114848124
0.7319727451755319	13655.182575651002
0.732094740633061	13697.279263392713
0.7322167564231665	13739.731043942618
0.7323387925492371	13763.689019774929
0.7324608490146619	13798.40676174247
0.732582925822831	13843.951224090097
0.7327050229771347	13882.18457241678
0.7328271404809642	13918.027024031786
0.7329492783377112	13949.650100942486
0.7330714365507675	13984.33065394271
0.7331936151235259	14021.184487299213
0.7333158140593796	14050.939379259416
0.7334380333617229	14077.144624650418
0.7335602730339499	14096.35221243828
0.7336825330794556	14137.405310251077
0.7338048135016354	14187.785227439756
0.7339271143038857	14208.994561574364
0.734049435489603	14202.550467493178
0.7341717770621846	14155.32219012278
0.7342941390250283	14175.646929543576
0.7344165213815324	14216.828971494091
0.734538924135096	14261.835746520823
0.7346613472891185	14307.413523732579
0.734783790847	14353.559998650428
0.7349062548121412	14384.25948136441
0.7350287391879431	14403.027744341427
0.7351512439778078	14390.550083022734
0.7352737691851374	14440.876334440616
0.735396314813335	14532.72804756867
0.7355188808658037	14579.42053265882
0.7356414673459482	14626.154096845084
0.7357640742571725	14675.700928223716
0.7358867016028818	14716.264951125735
0.7360093493864824	14752.91562963585
0.7361320176113801	14787.221819556591
0.736254706280982	14819.629306431016
0.7363774153986956	14849.675214991194
0.7365001449679286	14854.048607005858
0.7366228949920899	14862.040352361239
0.7367456654745885	14911.078592013795
0.7368684564188344	14980.54468596903
0.7369912678282374	15066.232358435815
0.7371140997062088	15116.939483176942
0.7372369520561599	15160.322725148599
0.7373598248815024	15192.893218126379
0.7374827181856494	15228.42409818625
0.7376056319720137	15265.537543257093
0.7377285662440091	15305.598470668645
0.7378515210050496	15334.820729195815
0.7379744962585505	15349.008304840485
0.738097492007927	15339.73151499116
0.7382205082565949	15331.572080114864
0.738343545007971	15359.699451442368
0.7384666022654723	15400.23710558791
0.7385896800325165	15451.298793218877
0.7387127783125219	15495.284513976409
0.7388358971089073	15539.67819257859
0.7389590364250921	15586.628551507194
0.7390821962644963	15633.754517053247
0.7392053766305403	15680.98189779603
0.7393285775266454	15728.434773485369
0.7394517989562333	15773.828178993364
0.7395750409227259	15816.378090097674
0.7396983034295463	15857.655269693578
0.739821586480118	15894.460764714991
0.7399448900778645	15911.701175734279
0.7400682142262109	15934.994472022574
0.740191558928582	15963.180238593033
0.7403149241884034	16001.098230799716
0.7404383100091014	16040.512366450339
0.7405617163941028	16081.654920533123
0.7406851433468352	16127.88615342811
0.7408085908707264	16173.926470197068
0.7409320589692048	16186.75909512537
0.7410555476456997	16226.759257150048
0.7411790569036406	16299.997967228479
0.7413025867464579	16333.567444881433
0.7414261371775823	16348.560795834554
0.7415497082004452	16324.49341149592
0.7416732998184786	16337.03629180089
0.741796912035115	16374.706900834144
0.7419205448537874	16419.387935571413
0.7420441982779297	16468.22055519218
0.742167872310976	16524.18980653228
0.7422915669563612	16581.167860171765
0.7424152822175206	16637.289390000216
0.7425390180978901	16684.785470433588
0.7426627746009065	16729.609474682267
0.7427865517300065	16771.837057928322
0.7429103494886282	16831.184005788502
0.7430341678802096	16889.05517293883
0.7431580069081896	16937.563447718687
0.7432818665760077	16981.921226510447
0.7434057468871037	17024.25873892822
0.7435296478449182	17068.77894332383
0.7436535694528923	17114.380282084276
0.7437775117144678	17161.399552940195
0.7439014746330868	17195.200230034952
0.7440254582121922	17223.86839481644
0.7441494624552276	17244.00064106515
0.7442734873656368	17268.769915022673
0.7443975329468645	17296.730442627002
0.7445215992023557	17330.352879510403
0.7446456861355559	17343.210218943976
0.7447697937499119	17320.22266586562
0.7448939220488703	17349.260924264974
0.7450180710358784	17396.874537280197
0.7451422407143843	17455.266398718224
0.7452664310878367	17513.263036194843
0.7453906421596846	17570.917187422547
0.7455148739333779	17628.18308076726
0.7456391264123667	17684.266795200507
0.7457633996001021	17737.837170198512
0.7458876935000356	17789.541290042205
0.7460120081156189	17840.0990006901
0.7461363434503048	17887.183016423787
0.7462606995075466	17930.51503285156
0.7463850762907978	17969.91060247655
0.7465094738035127	18015.840230074173
0.7466338920491467	18065.220407387857
0.746758331031155	18121.428799094607
0.7468827907529935	18174.180969682162
0.7470072712181189	18225.165552659037
0.7471317724299886	18275.645268817745
0.7472562943920602	18326.39145177575
0.7473808371077922	18377.45889976212
0.7475054005806435	18412.392359256075
0.7476299848140736	18441.68878677393
0.7477545898115426	18462.446766830624
0.7478792155765113	18499.138009539645
0.7480038621124406	18544.66351598327
0.7481285294227926	18580.653119082115
0.7482532175110298	18630.297230155273
0.7483779263806148	18698.28248023278
0.7485026560350116	18751.28872874143
0.7486274064776842	18800.91816803791
0.748752177712097	18849.981059037527
0.7488769697417158	18903.02844593749
0.749001782570006	18958.52513265948
0.7491266162004343	19011.926274860874
0.7492514706364677	19062.403939106625
0.7493763458815739	19108.708507581377
0.7495012419392209	19156.343559711113
0.7496261588128773	19203.95209588212
0.7497510965060128	19250.271310344604
0.7498760550220971	19299.273709073866
0.7500010343646007	19349.964116602
0.7501260345369949	19395.776489068114
0.750251055542751	19437.587739685874
0.7503760973853414	19473.59740236182
0.7505011600682389	19517.83224338963
0.750626243594917	19561.814729134567
0.7507513479688495	19597.50942822913
0.7508764731935109	19621.072836559793
0.7510016192723765	19637.29993421482
0.7511267862089218	19682.7310761785
0.7512519740066232	19730.097095997702
0.7513771826689577	19780.186384731187
0.7515024121994025	19832.36714765364
0.7516276626014359	19884.175785204563
0.751752933878536	19933.0115167799
0.7518782260341824	19979.92173387686
0.7520035390718548	20025.86574830621
0.7521288729950334	20078.342037562157
0.7522542278071992	20129.877675017397
0.7523796035118337	20180.176432241253
0.7525050001124189	20228.46067724768
0.7526304176124378	20275.25019988986
0.7527558560153731	20318.580978200756
0.752881315324709	20370.263704270037
0.7530067955439299	20426.140967680287
0.7531322966765205	20476.001662979466
0.7532578187259665	20524.938923441325
0.7533833616957542	20572.79312368435
0.75350892558937	20614.761258489827
0.7536345104103016	20658.072472963697
0.7537601161620366	20707.2942264839
0.7538857428480638	20745.940787271218
0.7540113904718717	20780.310371734344
0.7541370590369503	20821.10994817973
0.7542627485467898	20865.89228400272
0.7543884590048808	20914.67089983129
0.7545141904147151	20968.294486265953
0.7546399427797842	21019.626635792858
0.7547657161035808	21064.974041444133
0.754891510389598	21110.034541373065
0.7550173256413296	21154.843003182243
0.7551431618622698	21198.72445159341
0.7552690190559135	21243.628682666713
0.7553948972257561	21289.376789853883
0.7555207963752938	21335.723155644613
0.755646716508023	21381.990560105387
0.755772657627441	21428.07636887748
0.7558986197370455	21472.57481194125
0.756024602840335	21516.484216665292
0.7561506069408084	21559.765617425015
0.7562766320419653	21602.083992681804
0.7564026781473054	21643.814201000605
0.75652874526033	21686.945064527932
0.7566548333845401	21729.364521245163
0.7567809425234375	21770.85709395952
0.7569070726805247	21812.07865300382
0.7570332238593047	21852.531907203884
0.7571593960632813	21890.961780413363
0.7572855892959586	21921.687383842287
0.7574118035608413	21949.465263639104
0.7575380388614347	21984.089607298367
0.7576642952012449	22022.496074000555
0.7577905725837782	22064.548810427335
0.7579168710125422	22102.13533286609
0.7580431904910444	22139.52730916251
0.7581695310227928	22177.233680910856
0.7582958926112967	22213.305324114826
0.7584222752600652	22248.390602160664
0.7585486789726085	22281.28064883301
0.7586751037524372	22313.933863014423
0.7588015496030628	22346.415858207336
0.7589280165279966	22378.01235377234
0.7590545045307512	22407.8829845162
0.7591810136148396	22435.47192908498
0.7593075437837755	22463.389803274647
0.7594340950410726	22490.149343089004
0.7595606673902461	22513.603797774515
0.7596872608348112	22535.138310278748
0.7598138753782836	22555.90665360885
0.75994051102418	22577.471257680216
0.7600671677760173	22596.599905075713
0.7601938456373134	22613.57072567744
0.7603205446115863	22626.491329840926
0.7604472647023548	22637.473211439752
0.7605740059131385	22645.541601282806
0.7607007682474575	22653.145588302086
0.7608275517088319	22658.60230574547
0.7609543563007835	22656.753214885463
0.7610811820268336	22651.85397394738
0.7612080288905045	22644.9688012257
0.7613348968953197	22634.084813590467
0.7614617860448022	22619.09497330657
0.7615886963424764	22599.77754496972
0.7617156277918667	22573.539350225554
0.7618425803964988	22543.665463986163
0.7619695541598982	22507.930441794317
0.7620965490855914	22465.795159855195
0.7622235651771058	22418.91651433844
0.7623506024379685	22360.088950909187
0.7624776608717082	22291.378810723814
0.7626047404818536	22215.78926349356
0.7627318412719337	22125.031605135002
0.762858963245479	22026.22610676574
0.7629861064060198	21918.117155395197
0.7631132707570876	21787.47796667144
0.7632404563022137	21645.846061133332
0.7633676630449308	21486.588988867312
0.7634948909887717	21303.513532849287
0.7636221401372697	21105.738911533146
0.7637494104939593	20876.785213475534
0.7638767020623748	20620.242075129714
0.7640040148460518	20343.825537665623
0.7641313488485262	20016.500064236938
0.7642587040733344	19658.280642226913
0.7643860805240132	19263.930548279433
0.7645134782041005	18810.064987834598
0.7646408971171346	18321.275034261365
0.764768337266654	17774.09799898587
0.7648957986561985	17155.848650837346
0.7650232812893079	16496.373867285718
0.7651507851695227	15757.741874370864
