#wavelength	surface flux
0.6450077295303345	216.86482931022314
0.6472567915916443	231.99460073065492
0.6494921445846558	247.92702744998024
0.6517150402069092	264.68021385331025
0.6539263725280762	282.37029875934917
0.6561272740364075	301.02233972194233
0.6583186388015747	320.7271257650722
0.6605015397071838	341.40192304832135
0.6626768708229065	363.14578658462835
0.6648455858230591	386.10522668634206
0.6670085787773132	410.2120845312978
0.6691668033599854	435.6240007517708
0.6713210344314575	461.0356988661365
0.6734722256660461	490.4511699781974
0.6756211519241333	520.0201265938363
0.6777685880661011	551.1161287479663
0.6799154281616211	583.8312929109793
0.6820623278617859	618.2160652387888
0.6842101216316223	654.39787387143
0.6863595843315125	692.3990143872901
0.688511312007904	732.3204079137328
0.6906660795211792	774.050948532206
0.6928245425224304	817.7157065695269
0.6949873566627502	865.1040887410645
0.6971551775932312	914.1681676249457
0.6993286609649658	964.889357460284
0.7015084028244019	1020.1052309224824
0.7036949396133423	1077.254013680063
0.7058889269828796	1137.4068268820545
0.7080909013748169	1200.231006100812
0.710301399230957	1266.497087767764
0.712520956993103	1336.6427359279544
0.7147500514984131	1410.0202700545412
0.7169892191886902	1483.3069859524967
0.7192389369010925	1568.788306542636
0.7214996814727783	1653.954144861682
0.723771870136261	1744.3310326851126
0.7260559797286987	1840.1483988604493
0.7283523678779602	1939.9646444725704
0.7306615710258484	2043.1373277220923
0.7329838871955872	2155.728386442352
0.7353196740150452	2266.6095632323872
0.7376693487167358	2392.0593596193426
0.7400332689285278	2522.1844158552663
0.7424117922782898	2656.505583658562
0.7448052167892456	2799.4594483105316
0.7472138404846191	2952.1669889470895
0.7496379613876343	3113.7984411833604
0.7520779371261597	3280.9119529290006
0.7545340061187744	3458.892574305268
0.7570064663887024	3645.112794720311
0.7594954967498779	3840.7584669357557
0.7620013952255249	4045.8697599581546
0.7645244002342224	4249.056581852953
0.7670646905899048	4285.688794192656
0.7696225643157959	4584.165059058907
0.7721980810165405	4974.40386873514
0.7747915983200073	5251.278985600454
0.7774031162261963	5532.7862501601785
0.7800329327583313	5812.796527629895
0.7826811671257019	6139.300311338477
0.7853479981422424	6466.634573581326
0.7880334854125977	6809.345505686425
0.7907378077507019	7171.576403979215
0.7934610247612	7548.161676572638
0.7962033748626709	7946.038662422493
0.7989648580551147	8374.009139960568
0.801745593547821	8816.963407434729
0.8045456409454346	9286.422228831869
0.8073651194572449	9778.100508223215
0.8102040886878967	10268.004630548256
0.8130625486373901	10824.228830503003
0.8159406185150146	11402.204110158686
0.8188382983207703	11968.300398655028
0.8217556476593018	12634.719576671361
0.8246926665306091	13293.362609901782
0.8276493549346924	13982.095742871054
0.8306257724761963	14724.441707218839
0.8336219191551208	15508.199480871106
0.8366377949714661	16313.880481157286
0.8396733403205872	17152.008103289543
0.8427285552024841	18060.382451175286
0.8458034992218018	18982.324441054323
0.8488980531692505	19972.68727279563
0.8520121574401855	21010.237255842258
0.8551458716392517	22092.03231494642
0.8582990765571594	23230.955852189723
0.8614717125892639	24417.88225168264
0.8646637797355652	25647.678665357445
0.8678751587867737	26974.03948521489
0.8711057901382446	28351.922388011084
0.8743556141853333	29790.596329136624
0.87762451171875	31308.100992948894
0.8809124231338501	32886.937067310464
0.8842192888259888	34531.62121849396
0.8875449895858765	36274.69429974047
0.8908893465995789	37958.77552784023
0.894252359867096	39864.75234674957
0.8976338505744934	41359.00356188655
0.9010337591171265	43864.933895781855
0.9044519662857056	46161.580369185875
0.9078882932662964	48424.659436737886
0.9113426208496094	50845.920486604526
0.914814829826355	53233.2697735929
0.9183048605918884	55743.27617092113
0.9218124747276306	58452.33242034446
0.925337553024292	60883.20836451071
0.9288799166679382	63190.445848222545
0.9324395060539246	64443.37085157307
0.9360161423683167	67125.72984384272
0.9396095871925354	73198.44110499919
0.943219780921936	77216.34434418319
0.9468464851379395	77504.6862318702
0.9504896402359009	81126.26127809659
0.9541489481925964	86687.43076882637
0.9578243494033813	91586.98871686916
0.9615156054496765	94869.30574654439
0.9652225375175476	100099.10252753449
0.9689450263977051	105975.10584841357
0.9726828336715698	109466.1532034329
0.9764357805252075	115474.09535023708
0.9802037477493286	120447.68806553198
0.983986496925354	126342.71985626617
0.9877838492393494	131909.51386797655
0.9915955662727356	138059.2417563415
0.9954215884208679	144256.62135068263
0.9992615580558777	150545.1544606013
1.0031154155731201	156865.56082332556
1.0069829225540161	163579.41145452196
1.0108637809753418	170556.8405878507
1.0147579908370972	177750.82969193693
1.018665075302124	185147.06460386614
1.022585153579712	192877.5416351177
1.0265177488327026	200843.31104306856
1.0304628610610962	209069.32059854726
1.0344202518463135	217592.6116181418
1.0383895635604858	226385.6494407453
1.0423706769943237	235476.58621640946
1.0463634729385376	244848.72045568028
1.0503677129745483	254492.98777063694
1.0543830394744873	264562.6453079738
1.058409333229065	274842.24740332464
1.0624464750289917	285974.0394027633
1.0664942264556885	297162.6407865901
1.0705522298812866	308628.9317744784
1.0746204853057861	320512.79372315545
1.0786986351013184	332236.30246235506
1.0827864408493042	344941.83239496325
1.086883783340454	357436.34594913863
1.0909905433654785	370216.2375872107
1.0951062440872192	382713.0935587493
1.0992310047149658	389962.25978279207
1.10336434841156	405277.61982779886
1.1075061559677124	424478.2976692856
1.1116561889648438	438685.03969327454
1.115814208984375	393067.38829207607
1.1199802160263062	439834.10448093596
1.124153733253479	416056.87428883003
1.1283347606658936	473206.1434583842
1.1325229406356812	514312.5255405507
1.1367181539535522	513842.4435995399
1.1409201622009277	555740.2437971056
1.145128846168518	547970.654440375
1.1493438482284546	525338.7706789676
1.1535650491714478	607478.7396314677
1.1577922105789185	633604.494725667
1.1620250940322876	645624.402325946
1.1662636995315552	667438.9323420039
1.170507550239563	676215.625205825
1.174756646156311	712823.4636087121
1.1790107488632202	740745.6289709748
1.1832695007324219	766885.598102023
1.1875330209732056	787523.5769657902
1.191800832748413	816743.8215082845
1.1960728168487549	839686.0646223434
1.2003488540649414	864436.1095529484
1.2046287059783936	892420.0011410164
1.2089121341705322	919480.3187998079
1.2131990194320679	942499.5939659809
1.2174891233444214	974640.3177479071
1.2217823266983032	1002613.3331814664
1.2260783910751343	1031519.0336122413
1.230377197265625	1060138.5884158856
1.2346785068511963	1091275.3444673233
1.238982081413269	1121439.4137049157
1.2432878017425537	1152268.5339942656
1.2475954294204712	1183262.8600519816
1.2519049644470215	1215220.9736466568
1.256216049194336	1248852.2159605026
1.2605286836624146	1281696.6056936888
1.2648425102233887	1315540.4295170258
1.2691574096679688	1348519.9597083044
1.2734732627868652	1382490.324768838
1.2777899503707886	1419884.3668644521
1.2821072340011597	1451695.136018481
1.2864248752593994	1489070.8490150862
1.2907428741455078	1524786.2776731825
1.2950609922409058	1535848.2500668503
1.2993791103363037	1582850.0661564546
1.303696870803833	1636123.4165563944
1.3080145120620728	1675702.9938067894
1.3123314380645752	1713453.5352991256
1.3166478872299194	1750817.5852821735
1.3209635019302368	1785206.502137681
1.3252781629562378	1834398.3535859229
1.3295916318893433	1872550.3666199425
1.3339040279388428	1858031.8695911653
1.3382149934768677	1770528.8516728182
1.3425244092941284	1529061.5890223545
1.3468321561813354	1543112.1105680587
1.3511382341384888	1602537.516797929
1.3554422855377197	1616634.2950386712
1.3597444295883179	1811415.6297622498
1.3640443086624146	1740836.0977455177
1.3683418035507202	1813020.5650909233
1.3726370334625244	2077027.3217165049
1.3769296407699585	2138369.6829499006
1.381219506263733	2242327.182147854
1.3855066299438477	1944400.302460956
1.3897908926010132	2062891.5236166322
1.3940720558166504	2041938.524439193
1.3983501195907593	2076846.9676907114
1.4026249647140503	2288339.886415342
1.4068963527679443	2342157.10703299
1.4111642837524414	2481574.5484737945
1.4154287576675415	2197662.0349831134
1.419689416885376	2213510.0372317694
1.4239463806152344	2025404.0253513018
1.4281994104385376	2597486.2613810124
1.4324485063552856	2503377.358869101
1.436693549156189	2778947.666090668
1.440934419631958	2725082.782789309
1.4451709985733032	2810221.664118137
1.449403166770935	2804330.458891323
1.453631043434143	2701128.748041759
1.4578542709350586	3104962.404689206
1.4620729684829712	3139792.0809345576
1.4662868976593018	3232613.956325006
1.4704961776733398	3387413.195278531
1.4747005701065063	3311317.6596516147
1.4788999557495117	3518463.8787217033
1.4830944538116455	3483947.8458922743
1.4872838258743286	3629830.5430172305
1.491468071937561	3787879.5693333754
1.4956470727920532	3829958.25425443
1.4998208284378052	3843887.112402251
1.5039892196655273	3953291.047366748
1.5081522464752197	4035146.5546621103
1.5123097896575928	4087826.1784716635
1.5164618492126465	4185695.61683171
1.5206083059310913	4203669.233103771
1.5247491598129272	4261742.1254410995
1.5288842916488647	4170462.4887747895
1.5330137014389038	4425492.624491261
1.5371372699737549	4570545.016344432
1.541254997253418	4628376.990483613
1.545366883277893	4708099.436470299
1.5494728088378906	4780608.958917596
1.5535727739334106	4856983.962187474
1.5576666593551636	4901933.148331015
1.561754584312439	4970907.995894876
1.5658363103866577	5062674.5833070725
1.5699119567871094	5147102.359266577
1.5739814043045044	5223973.084183194
1.5780447721481323	5286372.635322982
1.582101821899414	5360085.101234755
1.5861525535583496	5429769.726642735
1.5901970863342285	5501942.565522552
1.5942351818084717	5580657.42681646
1.5982669591903687	5653309.9480421655
1.6022924184799194	5729912.890576875
1.606311559677124	5800239.8687099395
1.6103241443634033	5873012.426261909
1.6143304109573364	5949206.815306322
1.6183301210403442	6019002.354478338
1.6223233938217163	6077389.894414595
1.6263102293014526	6145230.655678623
1.6302905082702637	6222191.962299215
1.634264349937439	6274688.734229967
1.638231635093689	6378602.585854114
1.6421923637390137	6449611.061650619
1.646146535873413	6505518.712424198
1.6500942707061768	6599190.892316309
1.6540353298187256	6672157.822755277
1.6579699516296387	6723332.312312379
1.661897897720337	6804621.065605554
1.6658192873001099	6838476.646658195
1.6697341203689575	6917308.540204012
1.6736423969268799	7037593.826126746
1.677544116973877	7087728.017930968
1.6814392805099487	7146947.536412098
1.6853278875350952	7207917.738277895
1.6892099380493164	7346978.913910389
1.6930854320526123	7349699.476277196
1.696954369544983	7474358.158582043
1.7008168697357178	7513963.516651816
1.7046726942062378	7588016.08810329
1.708522081375122	7670882.835625067
1.712364912033081	7789028.651782792
1.7162011861801147	7864140.095299648
1.7200311422348022	7885663.8033219315
1.723854422569275	7799101.816718277
1.7276713848114014	7876356.885579066
1.731481909751892	7914997.850081887
1.7352858781814575	7724678.036965242
1.7390835285186768	7920144.765797715
1.7428747415542603	7882762.095992886
1.7466596364974976	8328566.505848301
1.7504380941390991	8453608.790139692
1.7542102336883545	8334012.64858204
1.7579760551452637	8287934.881875293
1.7617355585098267	8351625.739226263
1.7654887437820435	8072884.344702813
1.7692357301712036	7806053.166947785
1.7729763984680176	8275529.359212955
1.776710867881775	7606313.846392337
1.7804391384124756	8408024.735260092
1.7841613292694092	8068441.336675874
1.7878772020339966	7963322.3350424385
1.7915871143341064	6933330.835807352
1.7952908277511597	7903859.232360018
1.7989884614944458	8086639.530434349
1.8026801347732544	7996400.837735448
1.806365728378296	7712443.137524397
1.8100452423095703	6653837.532468923
1.8137187957763672	8309552.818232086
1.817386507987976	8985640.229620233
1.8210482597351074	8967637.500366535
1.8247040510177612	9819342.663069537
1.828354001045227	9866683.752729028
1.8319982290267944	8781679.317881072
1.8356364965438843	9628415.780023716
1.8392690420150757	9337517.238930888
1.8428958654403687	9685579.374103371
1.8465168476104736	8870922.842391921
1.8501322269439697	9070309.952345047
1.8537418842315674	10018620.801552191
1.8573459386825562	8953830.81315962
1.860944390296936	7112669.963563459
1.864537239074707	7924871.520040523
1.8681244850158691	7506371.33159779
1.871706247329712	7883971.947094198
1.8752825260162354	8474009.728091279
1.8788533210754395	10358228.408968626
1.8824186325073242	9713582.892450515
1.8859784603118896	8818397.786513781
1.8895330429077148	9456344.871748509
1.8930821418762207	9619497.012395272
1.8966259956359863	10179516.831302743
1.9001644849777222	9753018.428570075
1.9036977291107178	9515474.236951763
1.9072256088256836	11109646.720844558
1.9107483625411987	11167124.491326421
1.9142658710479736	10602741.103578443
1.9177782535552979	11351163.931287382
1.9212853908538818	10408465.79752106
1.9247875213623047	9639532.575650321
1.9282845258712769	11091540.608232882
1.9317764043807983	10919923.263203694
1.9352631568908691	11014620.809581064
1.9387450218200684	8284000.45177746
1.942221760749817	8987542.623790815
1.9456936120986938	9012544.760092236
1.9491604566574097	9348098.292905644
1.952622413635254	10417766.359784435
1.956079363822937	8338238.201482327
1.959531545639038	8800662.829031462
1.962978720664978	10847261.810968542
1.966421127319336	12047073.061815822
1.9698586463928223	11899428.283385547
1.9732913970947266	12418092.223182695
1.9767193794250488	11819428.021195272
1.9801424741744995	12187199.885526292
1.9835609197616577	12169168.32609436
1.9869745969772339	11759672.969987515
1.990383505821228	10670543.198294742
1.9937876462936401	11880491.630468817
1.9971871376037598	12495327.051193902
2.000581979751587	11713400.842644475
2.003972291946411	12034990.880764848
2.007357597351074	13054906.018265942
2.0107386112213135	13521828.781428069
2.0141148567199707	13603631.288611434
2.017486572265625	12911965.15238095
2.0208535194396973	13504854.733808845
2.0242159366607666	13869593.591742992
2.027573823928833	13427542.005440686
2.0309269428253174	13149763.294225976
2.034275770187378	13996556.425569542
2.0376198291778564	14286540.953114148
2.040959596633911	14385235.988917412
2.044294595718384	14364214.629738145
2.0476250648498535	13857947.148060497
2.0509510040283203	13770773.741053462
2.054272413253784	14362273.23425143
2.057589530944824	14460182.07904015
2.0609018802642822	14163305.563526446
2.0642096996307373	14479715.04019532
2.0675129890441895	14752186.221884899
2.0708119869232178	14971530.272005834
2.074106216430664	15155580.556232953
2.0773961544036865	15264968.296788404
2.080681324005127	15363120.766670393
2.0839622020721436	15369698.511857692
2.087238311767578	15356368.38989375
2.090510129928589	15486944.602694275
2.0937774181365967	15579369.07604348
2.0970399379730225	15653585.726437436
2.1002981662750244	15688768.643115636
2.1035518646240234	15820093.843716001
2.1068007946014404	15853281.606875608
2.1100454330444336	15651092.750308454
2.1132853031158447	15478215.243855273
2.116520881652832	15739113.536381716
2.1197516918182373	16068111.886411836
2.1229779720306396	16220175.491922487
2.12619948387146	16280426.704537151
2.1294167041778564	16325212.65969506
2.132629156112671	16400758.118581353
2.1358368396759033	16498268.314373853
2.139039993286133	16565669.745013973
2.1422386169433594	16601855.309789032
2.145432472229004	16662697.676030606
2.1486217975616455	16715254.425195646
2.151806354522705	16743428.286097571
2.1549863815307617	16783819.32937882
2.1581614017486572	16878424.944626223
2.16133189201355	16964699.54497206
2.1644976139068604	17001929.440793168
2.167658567428589	17067825.95382027
2.1708147525787354	17084312.400752734
2.173966407775879	17101267.21604295
2.1771130561828613	17260159.899514522
2.1802549362182617	17345633.05150069
2.183391809463501	17402988.295724742
2.1865241527557373	17429725.595436912
2.1896514892578125	17461075.856744017
2.1927738189697266	17523409.227037434
2.1958916187286377	17532392.827230956
2.1990041732788086	17494823.309379343
2.2021119594573975	17572568.440055843
2.2052149772644043	17674784.50961862
2.208312749862671	17794681.374247663
2.2114057540893555	17856287.17561875
2.214493751525879	17716999.970403276
2.217576742172241	17698575.95982175
2.2206547260284424	17814338.385460977
2.2237277030944824	17826501.638783902
2.2267956733703613	17928130.007831696
2.2298583984375	18057144.551315125
2.2329163551330566	18187560.50798276
2.235969066619873	18226957.105858438
2.2390167713165283	18155288.30812322
2.2420592308044434	18204268.702262394
2.2450966835021973	18362295.552725434
2.248128890991211	18403700.878119517
2.2511560916900635	18376544.703298543
2.254178285598755	18165589.228767958
2.257194995880127	18210039.178187538
2.260206699371338	18489719.11497306
2.2632133960723877	18576278.047436886
2.266214609146118	18643850.869911328
2.2692108154296875	18582246.336607534
2.2722020149230957	18503027.606405288
2.2751877307891846	18718884.933278203
2.278168201446533	18881806.234173756
2.2811436653137207	19016969.8873667
2.284113883972168	18699390.607210513
2.287078857421875	18140330.92279478
2.290038824081421	18308042.561522078
2.2929933071136475	17739995.391470768
2.295942783355713	17647728.928803563
2.298887014389038	18619807.23810103
2.301826238632202	19183310.6434643
2.304760217666626	19322000.09110343
2.3076889514923096	19389601.046797782
2.310612440109253	19492829.16732984
2.3135311603546143	19407849.829950836
2.3164443969726562	19068179.75125151
2.319352865219116	18701468.95977035
2.322256088256836	17317607.046095256
2.3251543045043945	16958367.0999222
2.328047275543213	18060683.117270943
2.330935478210449	17547844.55725007
2.3338186740875244	16670810.339319093
2.3366971015930176	17771020.533120196
2.3395702838897705	19064155.468002625
2.3424389362335205	19007839.261837114
2.3453025817871094	17990057.780840125
2.348161458969116	18014419.693421796
2.351015567779541	18830910.59670139
2.353865146636963	18841813.74338764
2.3567099571228027	17545803.733920436
2.3595502376556396	17102408.562460624
2.3623859882354736	17722603.055876523
2.3652172088623047	16634120.17879821
2.368043899536133	15084897.711001402
2.370866537094116	16153079.905990904
2.3736846446990967	17906108.434411466
2.3764986991882324	18046106.619894158
2.3793084621429443	16196758.423069872
2.3821144104003906	16435873.239316646
2.384916305541992	18762116.801710445
2.387714147567749	19553338.885945372
2.3905084133148193	19677854.696621437
2.393299102783203	19720369.997678675
2.3960859775543213	19953927.699024864
2.398869514465332	19013422.46287446
2.4016497135162354	17906235.414638747
2.4044265747070312	18166050.751819827
2.407200336456299	18567690.1458614
2.409970998764038	18887694.479566265
2.4127390384674072	18242842.32088314
2.415503978729248	17000538.862438437
2.418266534805298	17991609.48011495
2.4210267066955566	19092015.957430884
2.4237842559814453	18669342.038293347
2.426539897918701	17675310.39061775
2.429293394088745	16045088.86079677
2.4320452213287354	15362136.76892251
2.4347951412200928	16005955.131100696
2.4375438690185547	17071744.40599048
2.440291166305542	16852505.821661465
2.443037271499634	17075454.06109005
2.445782423019409	18706146.65414926
2.4485268592834473	18903724.951589856
2.451270818710327	18055803.376381606
2.454014539718628	17747972.10181544
2.4567582607269287	16842242.12689972
2.4595019817352295	16415665.985140614
2.4622461795806885	18117924.814899854
2.4649908542633057	20179329.120861847
2.4677364826202393	20120958.06514466
2.4704833030700684	18934897.261466727
2.473231554031372	18132342.7690552
2.4759814739227295	18051149.322344277
2.4787333011627197	16716668.892314244
