#wavelength	surface flux
0.676892	4826.797108952734
0.678297	4990.570506396033
0.679702	5162.659174210041
0.681109	5337.982567001044
0.682517	5517.034985074502
0.683926	5703.321058985481
0.685337	5895.376922772753
0.686749	6088.714317048304
0.688164	6287.781263792658
0.689581	6484.6696391561445
0.691	6689.710218167987
0.692422	6920.639681259804
0.693847	7139.181707960822
0.695274	7395.478966185854
0.696705	7636.500588042769
0.698139	7856.180347895633
0.699576	8119.073151528485
0.701017	8429.20460129348
0.702461	8705.661810625146
0.70391	8993.250288785459
0.705362	9286.798281731342
0.706819	9586.998175332305
0.70828	9894.168694138676
0.709745	10207.70236156232
0.711216	10545.724909222996
0.71269	10882.769290076138
0.71417	11228.66183481128
0.715655	11569.713255454526
0.717145	11915.583194842282
0.71864	12338.548991579528
0.72014	12737.887227925423
0.721647	13138.157688777934
0.723158	13561.150166979705
0.724676	14000.012274386123
0.726199	14446.797698097544
0.727728	14902.755037587547
0.729264	15372.680560065386
0.730805	15844.714320952893
0.732353	16363.645572427786
0.733907	16840.845077835467
0.735468	17326.78681847126
0.737035	17898.450390432972
0.738609	18464.163966871227
0.74019	19042.800134097335
0.741777	19606.44636632884
0.743372	20248.79588116072
0.744973	20845.315155246684
0.746582	21527.922560508618
0.748197	22215.237517226447
0.74982	22941.51917356235
0.751451	23630.824321691172
0.753088	24365.88506289481
0.754734	25101.427621541443
0.756386	25830.307111552003
0.758047	26512.671686936887
0.759715	27117.57174137828
0.76139	27473.689923677215
0.763074	26982.3314705787
0.764765	22613.238710593272
0.766464	12849.309327290526
0.768172	18173.064582206687
0.769887	15322.123269322818
0.77161	25341.54048414122
0.773341	32958.91132199682
0.775081	35463.3113499304
0.776829	37116.5537698894
0.778585	38039.61228621064
0.780349	35964.645748231334
0.782121	41011.320128676474
0.783902	42660.46055020341
0.785691	44053.756448481436
0.787489	45458.18339398564
0.789295	46912.81453192667
0.79111	48398.201317228384
0.792933	49718.31278261522
0.794764	47573.51825287868
0.796604	52584.90452861053
0.798453	54749.6897905131
0.80031	56439.698782646105
0.802176	58222.518025384474
0.804051	60077.76636578134
0.805934	61940.1478576554
0.807826	63887.32320646866
0.809727	65752.60217641392
0.811636	67677.08920659123
0.813554	69848.91204786219
0.81548	72071.4965711584
0.817416	74284.23003975827
0.81936	76571.7417893982
0.821313	79108.34946467841
0.823274	81296.05086945002
0.825244	83965.8608460762
0.827223	86388.4957742082
0.829211	89306.03566367626
0.831208	91936.9300113383
0.833213	94892.86009408787
0.835227	97803.54421790318
0.837249	100751.09640592358
0.83928	103759.34263577715
0.841321	107016.80470759094
0.843369	110289.48524277478
0.845427	113569.22787877597
0.847493	116973.71399679022
0.849567	120586.30486908222
0.851651	124279.34085322537
0.853742	127903.08699644437
0.855843	131849.41087000785
0.857952	135799.29071208177
0.86007	139775.4447868919
0.862196	143613.0550294437
0.864331	147525.58921242587
0.866474	152501.9555409263
0.868626	157080.87072553625
0.870786	161726.40264723482
0.872955	166638.31575497097
0.875132	171627.38000365833
0.877317	176808.11975778497
0.879511	182073.91317755368
0.881713	187391.57221567805
0.883923	192659.98551115577
0.886142	198580.40955182034
0.888369	204412.33696609776
0.890604	209558.16147509406
0.892847	215018.14078594962
0.895099	222103.96314725152
0.897358	225296.39511492645
0.899626	232995.28103035278
0.901901	242020.14928238068
0.904185	249188.1618003043
0.906476	256406.290399767
0.908776	263642.3603730947
0.911083	271376.35522625234
0.913398	279069.1609137044
0.915721	286182.71884186624
0.918051	294117.6528537464
0.92039	301494.05559072434
0.922736	311470.13869824697
0.925089	317276.7153800112
0.927451	322411.03101841017
0.929819	325836.5102793305
0.932195	328588.724725829
0.934579	325549.4992239813
0.93697	340874.41276098706
0.939369	370822.50173003617
0.941774	384484.66138626647
0.944187	396642.08196293033
0.946607	388803.1886353183
0.949035	398365.9946004325
0.951469	420043.4217829043
0.953911	434112.9710681963
0.956359	427412.9540843257
0.958814	456674.7323623634
0.961277	463799.11122048064
0.963746	484898.977304638
0.966222	497038.52592984
0.968705	516192.3833459804
0.971194	525035.7901346687
0.97369	535799.1826022912
0.976193	555530.2271938338
0.978702	572196.9304169655
0.981217	586437.6682154896
0.983739	602581.6093260711
0.986268	616974.0493054314
0.988802	632896.417472689
0.991343	651728.041229987
0.99389	667450.2869094339
0.996444	686932.6469709163
0.999003	703262.8838763447
1.00157	719679.9999730533
1.00414	737770.7874751507
1.00672	756208.4937737779
1.0093	774199.702698462
1.01189	793604.7810215709
1.01448	812895.7918695618
1.01708	832340.4556358552
1.01969	852617.3928692024
1.0223	872901.3704736861
1.02492	893569.599501545
1.02754	914806.2413805352
1.03017	936297.6694462041
1.0328	957948.1101187392
1.03544	980447.4902500313
1.03808	1003228.4763452434
1.04073	1026376.0129168724
1.04339	1049667.8902883134
1.04604	1073613.5068752936
1.04871	1097618.0032933422
1.05138	1122592.416479505
1.05405	1147725.6555989098
1.05673	1173222.361574752
1.05941	1198436.4680447204
1.0621	1227305.7881723922
1.06479	1256483.4709196223
1.06749	1282778.5753853107
1.07019	1311346.068506117
1.07289	1340660.116483591
1.0756	1369666.9436605882
1.07832	1397307.159615899
1.08104	1428275.0120661138
1.08376	1459094.5841948132
1.08649	1487563.0979318244
1.08922	1518136.0267135086
1.09195	1547457.0054385667
1.09469	1575360.016877218
1.09743	1578538.6626946148
1.10018	1593245.8737833633
1.10293	1631641.2023382718
1.10568	1693039.754726729
1.10844	1727956.5603577301
1.1112	1749846.752861842
1.11396	1638876.9168224325
1.11673	1671321.5122809743
1.1195	1757988.7079464588
1.12228	1648427.342916613
1.12505	1601555.341369449
1.12783	1810335.6186136038
1.13062	1992845.9245072901
1.13341	1952509.4292544802
1.1362	1945358.2299222855
1.13899	2118107.4708575653
1.14178	2158414.2244202914
1.14458	2086835.413686262
1.14738	1990634.5173095397
1.15019	2092302.3953391183
1.153	2340571.1737833824
1.1558	2317647.685294041
1.15862	2452603.955850533
1.16143	2478561.0093721584
1.16425	2352829.8149377205
1.16707	2569042.974948919
1.16989	2531727.721136112
1.17271	2612672.83823428
1.17554	2698145.629186923
1.17837	2757423.2792271283
1.1812	2815301.518670784
1.18403	2870909.1220802413
1.18686	2903399.701190135
1.1897	2975659.105401379
1.19253	3038875.2414743532
1.19537	3091421.1760358685
1.19822	3110694.8714313623
1.20106	3194787.3927559615
1.2039	3248709.5525598307
1.20675	3311269.662059673
1.2096	3365438.05066125
1.21245	3402438.696037771
1.2153	3473752.68704263
1.21815	3539393.4081357694
1.221	3593947.6836459474
1.22385	3652510.132125045
1.22671	3714543.2168915244
1.22957	3772703.4546323805
1.23242	3830328.493264473
1.23528	3897321.625455427
1.23814	3959654.6913292864
1.241	4020532.122705455
1.24387	4082566.463990743
1.24673	4144687.8407406313
1.24959	4206620.227544052
1.25245	4269320.848873646
1.25532	4333040.565446779
1.25818	4401019.885225822
1.26105	4467143.987107424
1.26392	4533203.923808289
1.26678	4599479.400040394
1.26965	4655951.326365116
1.27252	4718372.466976108
1.27538	4798306.638571315
1.27825	4866621.28843394
1.28112	4926412.960582797
1.28399	4967014.9027807955
1.28686	5065465.629653049
1.28973	5130198.017686992
1.2926	5178623.398960949
1.29546	5135391.191285344
1.29833	5243906.091721845
1.3012	5381681.887288941
1.30407	5475091.291301323
1.30694	5558759.409217478
1.30981	5617525.326954847
1.31267	5670617.516388847
1.31554	5725525.466670347
1.31841	5751119.041571613
1.32128	5885964.402661829
1.32414	5950237.481848985
1.32701	6045566.909474337
1.32987	6073667.841644319
1.33274	5935686.440697559
1.3356	5889875.449755584
1.33847	5232739.355857119
1.34133	4758552.874129816
1.34419	4068286.3883236744
1.34705	4621589.192571675
1.34991	4582805.228691542
1.35277	5301787.076724227
1.35563	4687780.104039449
1.35849	4571339.477059167
1.36135	5321408.670865034
1.3642	5049641.0759315435
1.36706	5591081.415080777
1.36991	5571785.5350561915
1.37277	6117029.707515055
1.37562	5570448.2679448975
1.37847	6965140.31148216
1.38132	6504880.953917457
1.38417	6097830.430891839
1.38701	5207187.107232776
1.38986	6059951.992311638
1.39271	6073860.376091875
1.39555	5154978.7333193505
1.39839	6024467.838963426
1.40123	5962694.535505507
1.40407	6885965.926612524
1.40691	6666256.937504502
1.40974	7301527.423614473
1.41258	6940611.520933295
1.41541	6285341.976639697
1.41824	5468137.93830331
1.42107	6095555.021223838
1.4239	5414351.677346649
1.42673	6937168.368380751
1.42955	7290705.305303885
1.43237	7008866.970158467
1.43519	7572268.855675199
1.43801	7868376.8196338
1.44083	7457562.870974483
1.44365	7807581.35800786
1.44646	7915981.446403867
1.44927	7858331.611324061
1.45208	7916969.264485132
1.45489	6836934.290582056
1.45769	8820334.283188669
1.4605	9392825.051898912
1.4633	8731360.2442465
1.4661	9070749.064780973
1.4689	9085636.8196167
1.47169	9671838.700661419
1.47449	9243987.06063046
1.47728	9796701.706338266
1.48007	9943852.630071146
1.48286	9679461.640202103
1.48564	9925326.6916235
1.48842	10412196.657373412
1.4912	10724461.779002523
1.49398	10819951.91605923
1.49676	10693020.996876419
1.49953	10826501.737977317
1.5023	10835005.151421996
1.50507	11267949.122207219
1.50784	11352487.234045587
1.51061	11258385.279069366
1.51337	11594342.071944436
1.51613	11708635.102013256
1.51888	11743907.731205018
1.52164	11896475.126825778
1.52439	11933218.620901305
1.52714	11476852.495765906
1.52989	11696327.677080255
1.53263	12250893.327346414
1.53538	12655780.15348472
1.53812	12830521.907567114
1.54086	12901953.006944457
1.54359	12984817.103361838
1.54632	13145880.2742356
1.54905	13259766.168640707
1.55178	13418280.170550026
1.5545	13496441.19437944
1.55723	13561693.134048577
1.55995	13654692.752490085
1.56266	13789393.969087804
1.56538	13953934.23751012
1.56809	14136975.487444926
1.5708	14194961.123898363
1.57351	14340061.56756893
1.57621	14500310.34623372
1.57891	14547008.834452266
1.58161	14663398.103693586
1.5843	14782027.675697114
1.587	14839289.94238018
1.58969	14981914.761190832
1.59238	15097216.293473031
1.59506	15222960.777258914
1.59774	15336124.236797877
1.60042	15464582.48875109
1.6031	15571800.020022351
1.60577	15667608.398948869
1.60844	15763404.021979349
1.61111	15886171.799343042
1.61378	15998582.182814965
1.61644	16108584.861422474
1.6191	16214416.447883677
1.62176	16260203.564556098
1.62441	16219709.755321985
1.62707	16262749.30267024
1.62971	16366654.839961879
1.63236	16395618.438741278
1.635	16631301.959727664
1.63764	16907355.120013647
1.64028	17019840.961758103
1.64292	17094126.447561804
1.64555	17154166.329746068
1.64818	17281001.289858237
1.65081	17412061.00362732
1.65343	17469408.678131633
1.65605	17317008.724449888
1.65867	17532150.840033457
1.66128	17716473.60686615
1.6639	17749169.603327572
1.66651	16935572.90401139
1.66911	17143500.321110796
1.67172	18097796.150318332
1.67432	18343795.10999607
1.67692	18339809.834127575
1.67951	18474593.74317343
1.68211	18330993.657138523
1.6847	18358514.5015454
1.68728	18849320.273497988
1.68987	18948323.39810224
1.69245	18512161.900532622
1.69503	18454354.270247098
1.6976	18962182.10001331
1.70018	18611766.371036965
1.70275	18641689.584719226
1.70531	18822116.26699823
1.70788	19153727.1929348
1.71044	19622916.512217328
1.713	19855817.829788323
1.71556	19963295.641827077
1.71811	20017576.38532664
1.72066	19858649.37291948
1.72321	19408318.146761216
1.72575	19324813.899759535
1.7283	19363277.624799766
1.73084	19459768.247412924
1.73337	19327634.144130807
1.73591	18554614.401085775
1.73844	19315959.4341553
1.74097	19188592.70732351
1.74349	19404321.1751014
1.74602	20388241.900299497
1.74854	20963430.233537953
1.75105	20879647.617614586
1.75357	20284018.44080364
1.75608	19902307.995558254
1.75859	20147194.504901912
1.7611	20179702.65848184
1.7636	20002719.036386088
1.7661	18417555.634034682
1.7686	17877236.30792317
1.7711	20070613.379424784
1.77359	18876562.591914892
1.77608	17385785.349941745
1.77857	18948449.79663406
1.78105	19102945.50695546
1.78354	18260182.208074998
1.78602	18405611.155759428
1.78849	17262778.482048422
1.79097	15403608.164845811
1.79344	17316250.08286419
1.79591	18122505.578666624
1.79837	18699995.830472335
1.80084	17150986.68051274
1.8033	18527574.32035227
1.80576	17762772.268281315
1.80821	14236039.30917961
1.81067	14156941.452748755
1.81312	17338462.641678892
1.81557	20713202.04026353
1.81801	20343184.155492228
1.82046	19840964.570689633
1.8229	21595097.085403338
1.82533	22636626.787728354
1.82777	22531664.200454976
1.8302	21459950.58635054
1.83263	19526011.3128508
1.83506	21045509.67563293
1.83749	21462306.43068873
1.83991	19946926.495917108
1.84233	20900872.4812639
1.84475	20901693.219276845
1.84716	17957159.109379757
1.84957	18245707.354849298
1.85198	21434866.688890688
1.85439	22340651.56340916
1.8568	19878199.532289412
1.8592	17268141.664303478
1.8616	14536140.172895031
1.864	15199819.35234154
1.86639	16529618.001492865
1.86878	15559910.261177199
1.87118	16902717.025024593
1.87356	16418015.568513528
1.87595	19356478.931830235
1.87833	22590786.648469903
1.88071	22161027.10004875
1.88309	20663522.424785092
1.88547	19040504.816596407
1.88784	19506999.72100537
1.89021	20177022.302336466
1.89258	20465198.824729566
1.89494	20681356.78488094
1.89731	22025148.975703377
1.89967	21317977.695166185
1.90203	19599066.243676245
1.90439	21603207.000676755
1.90674	24454970.408290908
1.90909	25339998.518377192
1.91144	23902110.55521429
1.91379	22226178.79638007
1.91613	23272290.385629226
1.91848	25433291.39355272
1.92082	23561879.686093777
1.92315	19492158.41094511
1.92549	21773363.018537425
1.92782	24247395.763539832
1.93015	23337911.865888383
1.93248	23898336.847230315
1.93481	24446297.771674
1.93713	20019032.11694316
1.93945	16320732.228840888
1.94177	18135596.13322403
1.94409	18777375.434632283
1.94641	19055828.932942715
1.94872	19486129.340047583
1.95103	21424537.528023012
1.95334	21943527.729063578
1.95564	17574931.412459098
1.95795	16230501.665587414
1.96025	18066420.941020448
1.96255	21109649.809306495
1.96484	24364766.017310742
1.96714	25451845.5163614
1.96943	24293236.775576018
1.97172	24854044.77385548
1.97401	25504870.795561526
1.97629	24409007.478887737
1.97858	24905810.20816918
1.98086	24965579.085442584
1.98314	25088468.534936756
1.98541	25883126.312837455
1.98769	24537487.02728652
1.98996	22381817.165023595
1.99223	23129635.141660754
1.9945	25221723.054723866
1.99677	25834353.79650114
1.99903	24648840.72905618
2.00129	23678443.093129843
2.00355	24903248.71164386
2.00581	26912523.89066442
2.00806	27662974.824559998
2.01031	28292355.116818246
2.01256	29353833.03812064
2.01481	29305271.810433637
2.01706	27857509.673454
2.0193	27854228.134787068
2.02154	29605908.971290834
2.02378	30198938.472822033
2.02602	29305864.457681995
2.02825	28388379.61767198
2.03049	28095120.08728527
2.03272	29413048.19633296
2.03494	30825292.907532394
2.03717	31101498.693444766
2.03939	31229698.294318512
2.04162	31380108.938087903
2.04384	31422395.58887092
2.04605	30955956.922602944
2.04827	29722114.398011193
2.05048	29569091.06663499
2.05269	30572357.32423492
2.0549	31229864.849332944
2.05711	31387049.93288653
2.05931	30700267.4293844
2.06151	30338984.112264913
2.06371	31032668.44799608
2.06591	31723153.87008786
2.06811	32197764.009772003
2.0703	32573217.949840825
2.07249	32879970.373194754
2.07468	33042570.151590213
2.07686	33178144.038113724
2.07905	33417090.977996614
2.08123	33604606.54663672
2.08341	33558979.43576443
2.08559	33298594.463743042
2.08776	33304368.521245852
2.08994	33594229.360172264
2.09211	33765486.9774946
2.09428	33892531.7492397
2.09645	33959984.216269806
2.09861	33881956.78662799
2.10077	33932402.88556467
2.10293	34193025.91650619
2.10509	34391515.375218734
2.10725	34324151.79999882
2.1094	33955534.250772126
2.11155	33431433.574106794
2.1137	33258699.64990106
2.11585	33661831.101248674
2.11799	34244213.85650615
2.12013	34709089.20168143
2.12227	34957521.69460796
2.12441	35041474.110423766
2.12655	35078634.31226604
2.12868	35098375.52409489
2.13081	35152475.2417893
2.13294	35306406.7810914
2.13507	35481118.98794871
2.13719	35585160.1255372
2.13931	35618049.86517975
2.14143	35601657.092256576
2.14355	35622961.91435496
2.14567	35699132.736690566
2.14778	35721459.82601989
2.14989	35670230.82817176
2.152	35489497.41695185
2.1541	35188349.69171106
2.15621	35252444.30183173
2.15831	35691979.15692761
2.16041	35935970.56097496
2.16251	36030064.46357086
2.1646	36089162.240924515
2.1667	36182710.99905282
2.16879	36299603.53329289
2.17087	36251750.19099305
2.17296	36145972.38426117
2.17504	36282712.58453761
2.17713	36556218.37672995
2.1792	36718821.969240084
2.18128	36803735.43720479
2.18336	36846704.803827986
2.18543	36848712.06016556
2.1875	36824558.56193401
2.18957	36837723.91352906
2.19163	36909801.11195526
2.1937	36947545.048926204
2.19576	36782064.257546626
2.19782	36250755.66842406
2.19987	35825170.399531975
2.20193	35897818.483217746
2.20398	36293376.59731882
2.20603	36811710.44037085
2.20808	37227867.626953766
2.21012	37441463.65947788
2.21217	37408461.283694915
2.21421	37037131.427458115
2.21625	36627711.34684221
2.21828	36583558.32647827
2.22032	36734448.113342665
2.22235	36651296.76985904
2.22438	36360381.6016459
2.22641	36250641.8728733
2.22843	36515687.38795453
2.23046	36876999.85108138
2.23248	37099027.68064273
2.2345	37275228.051914476
2.23651	37312621.593282044
2.23853	36942740.8475247
2.24054	36325929.26408238
2.24255	36300397.76975619
2.24456	36806717.519263454
2.24657	36800162.15114146
2.24857	36365718.40028146
2.25057	35827138.60074119
2.25257	35026569.91800543
2.25457	33811205.92276782
2.25656	33921754.71167781
2.25856	35370097.01732262
2.26055	36345490.56786413
2.26254	36761510.713533245
2.26453	37084043.39732208
2.26651	37217781.674245894
2.2685	37063090.52740004
2.27048	36799551.33897878
2.27246	36813593.66733207
2.27443	36825345.23734928
2.27641	36813063.19877778
2.27838	37201030.50729551
2.28036	37893890.415606156
2.28233	37570984.26609924
2.28429	35184766.507455714
2.28626	32170920.247082148
2.28823	31980520.962028597
2.29019	33543563.47822601
2.29215	33386526.102952678
2.29411	32207719.906279854
2.29607	32240804.750832673
2.29802	33773221.81015246
2.29998	35363485.95003067
2.30193	36692262.238709815
2.30388	37463340.70840977
2.30583	37904486.35308971
2.30778	38091713.24162641
2.30972	38186804.64080875
2.31167	38037264.719749376
2.31361	36798237.60277516
2.31555	34375123.24336561
2.31749	33063505.87651719
2.31943	33240056.52792008
2.32137	32683012.037035573
2.32331	31101410.965608664
2.32524	30932888.85938172
2.32718	32571192.59156769
2.32911	33138477.310452312
2.33104	32130185.648326866
2.33297	30858683.695584815
2.3349	31260535.909695588
2.33683	33145148.35879854
2.33876	34744822.60357734
2.34068	35323376.346244745
2.34261	34938157.26713769
2.34453	33336883.303717677
2.34646	31023679.757939924
2.34838	30772258.87781506
2.3503	32199446.842814296
2.35223	33715728.30084062
2.35415	33393258.02637962
2.35607	31635304.693455663
2.35799	30488928.684503064
2.35991	30792565.938318398
2.36183	32283493.626261838
2.36375	33358866.471440654
2.36566	31768327.88458728
2.36758	28356106.48906911
2.3695	26511861.294062167
2.37142	27674613.898137677
2.37334	28706147.874144573
2.37526	29352129.083476774
2.37718	29134080.10763322
2.3791	28572238.222322002
2.38101	28929719.86961831
2.38293	31378785.20832639
2.38485	33190909.792774823
2.38677	33753105.61519332
2.3887	35004433.299265124
2.39062	36901585.268060096
2.39254	37621178.63363499
2.39446	37624872.14352094
2.39639	36783175.992446326
2.39831	34671249.69834745
2.40024	32042059.780778326
2.40216	30695709.97136926
2.40409	30924161.905511145
2.40602	31648106.55993028
2.40795	32476697.374324426
2.40989	33423463.125740446
2.41182	33475033.307749853
2.41376	31514971.97785269
2.4157	29455503.46056508
2.41764	29329217.678356737
2.41958	30572361.766204603
2.42152	30726718.899764583
2.42347	30301065.65172828
