#wavelength	surface flux
0.7	31.459549948047286
0.7001166666666666	31.598285891333376
0.7002333527777778	31.730006487418837
0.700350058336574	31.844160189757172
0.7004667833462966	31.9656515648022
0.7005835278101878	32.09263710290422
0.7007002917314895	32.213531793243654
0.7008170751134447	32.33357884061034
0.7009338779592968	32.45444152216314
0.7010507002722901	32.57479434397824
0.7011675420556689	32.69447589191904
0.701284403312678	32.8161867545602
0.7014012840465635	32.93862936466341
0.7015181842605713	33.05556531751463
0.701635103957948	33.16909097243102
0.701752043141941	33.27464051395151
0.701869001815798	33.39960307698856
0.7019859799827672	33.53806870513259
0.7021029776460976	33.65516247700629
0.7022199948090387	33.77156730929698
0.7023370314748403	33.89869218448102
0.7024540876467528	34.03213034029625
0.702571163328027	34.17291717508736
0.7026882585219152	34.301506733433314
0.7028053732316688	34.42596402087912
0.7029225074605406	34.54711083349137
0.7030396612117841	34.66473762931338
0.7031568344886527	34.77546579858109
0.7032740272944008	34.91020599588324
0.7033912396322832	35.058961697806744
0.7035084715055552	35.19613915689856
0.7036257229174727	35.32805543548223
0.7037429938712924	35.44452412080319
0.7038602843702709	35.57441466505359
0.7039775944176659	35.71700259738749
0.7040949240167356	35.84804326018893
0.7042122731707383	35.977184743821844
0.7043296418829335	36.11328905191024
0.7044470301565806	36.246486174342124
0.70456443799494	36.37532161821329
0.7046818654012724	36.5118912936268
0.7047993123788394	36.651834680904585
0.7049167789309024	36.776382317771656
0.7050342650607243	36.90743570639398
0.7051517707715678	37.05448453548205
0.7052692960666963	37.19624914350938
0.705386840949374	37.33434195153833
0.7055044054228656	37.46940312348003
0.7056219894904361	37.605935681560815
0.7057395931553511	37.75046499321903
0.705857216420877	37.89285802058128
0.7059748592902804	38.03299356372446
0.7060925217668288	38.1727542550434
0.70621020385379	38.31250530906865
0.7063279055544321	38.45307283798726
0.7064456268720246	38.59372228899339
0.7065633678098366	38.73448762287332
0.7066811283711383	38.87372777270688
0.7067989085592001	39.01229174737574
0.7069167083772933	39.15336817692183
0.7070345278286895	39.290254425219985
0.707152366916661	39.41694090494218
0.7072702256444803	39.52989863186897
0.7073881040154211	39.63354728594389
0.7075060020327569	39.81655328967815
0.7076239196997625	40.0022440328103
0.7077418570197124	40.163396432779074
0.7078598139958823	40.31789042745645
0.7079777906315483	40.46591058935124
0.7080957869299869	40.61276009650995
0.7082138028944751	40.76059631473531
0.7083318385282908	40.91781656015989
0.7084498938347124	41.07209080141924
0.708567968817018	41.22232965599414
0.7086860634784875	41.35395934716158
0.7088041778224007	41.4774371284348
0.7089223118520377	41.56718386491399
0.7090404655706796	41.70302978724202
0.709158638981608	41.92738826847512
0.709276832088105	42.09998337042894
0.7093950448934531	42.24471668052576
0.7095132774009353	42.288877966052965
0.7096315296138355	42.38900554054517
0.7097498015354378	42.65519855224887
0.7098680931690269	42.85732240024306
0.7099864045178884	43.01220739455214
0.7101047355853081	43.180422350998576
0.7102230863745722	43.350062687222994
0.7103414568889679	43.5183696588722
0.7104598471317828	43.68271222117
0.7105782571063047	43.843176054965525
0.7106966868158224	43.98406311673506
0.710815136263625	44.12608142820559
0.7109336054530023	44.30578574561171
0.7110520943872445	44.48243503319671
0.7111706030696424	44.655181284495285
0.7112891315034873	44.8229049646038
0.7114076796920712	44.988893287670805
0.7115262476386865	45.15350844896102
0.7116448353466263	45.31608229397822
0.711763442819184	45.475279652518715
0.711882070059654	45.642169234363166
0.7120007170713306	45.812480108461386
0.7121193838575091	45.979252124151124
0.7122380704214853	46.14700393744182
0.7123567767665555	46.31679996078731
0.7124755028960166	46.47261453630691
0.7125942488131658	46.62043356746369
0.7127130145213015	46.77969938490419
0.7128318000237216	46.943577686835035
0.7129506053237256	47.118439223787625
0.7130694304246129	47.291076284849076
0.7131882753296837	47.46213856587179
0.7133071400422386	47.63448156133568
0.7134260245655789	47.78641014667919
0.7135449289030065	47.864918292159764
0.7136638530578235	48.046519385625444
0.7137827970333332	48.31706844954423
0.7139017608328388	48.50314116170522
0.7140207444596443	48.67642068085929
0.7141397479170543	48.85667641167092
0.7142587712083737	49.02317820506289
0.7143778143369084	49.17557409469659
0.7144968773059646	49.39076072618111
0.7146159601188489	49.61384390484103
0.7147350627788687	49.79485902172354
0.7148541852893318	49.97304827722928
0.7149733276535467	50.14784391068625
0.7150924898748222	50.305572017033
0.715211671956468	50.46462204018317
0.7153308739017941	50.68106310596303
0.715450095714111	50.888399118414384
0.71556933739673	51.08315392206843
0.7156885989529628	51.25492613638125
0.7158078803861218	51.42044186349192
0.7159271816995193	51.609757276940336
0.7160465028964692	51.765419338678626
0.7161658439802853	51.86835178517929
0.7162852049542819	51.9114586136566
0.7164045858217744	51.9354176421404
0.716523986586078	52.08051164745538
0.7166434072505089	52.033684420009415
0.716762847818384	51.65066458353542
0.7168823082930204	51.984971042793156
0.7170017886777359	52.64008908091892
0.7171212889758488	53.09048649644
0.7172408091906781	53.39518617285443
0.7173603493255433	53.418729411029396
0.7174799093837642	53.44457718531921
0.7175994893686615	53.471571011209356
0.7177190892835562	53.80279175627664
0.7178387091317702	54.180480857920344
0.7179583489166254	54.652535424296445
0.7180780086414448	54.91465480328951
0.7181976883095517	55.064666668084215
0.7183173879242699	55.34946657830623
0.718437107488924	55.59361054780497
0.7185568470068389	55.741252245827276
0.7186766064813399	55.77498294739644
0.7187963859157535	55.744527812374436
0.7189161853134061	56.19439699434846
0.719036004677625	56.60099219248854
0.7191558440117378	56.87193399246787
0.7192757033190732	57.09197048705534
0.7193955826029597	57.28232047967818
0.7195154818667269	57.46791271535559
0.7196354011137046	57.66604851113367
0.7197553403472235	57.8945330330678
0.7198752995706147	58.11791638241588
0.7199952787872098	58.338288398822144
0.720115278000341	58.5231366638962
0.7202352972133411	58.703814841597875
0.7203553364295432	58.877935105009556
0.7204753956522815	59.062953087243784
0.7205954748848902	59.254441478711904
0.7207155741307044	59.48551088927764
0.7208356933930594	59.728830116701495
0.7209558326752915	59.997414356164555
0.7210759919807375	60.2189580108988
0.7211961713127342	60.413167537083176
0.7213163706746197	60.53624821120241
0.7214365900697322	60.70566916148143
0.7215568295014103	60.986356164088
0.721677088972994	61.25156155421155
0.7217973684878227	61.5081136597401
0.7219176680492374	61.62165746085726
0.7220379876605789	61.79464910106605
0.722158327325189	62.1034293435086
0.7222786870464099	62.39686857052746
0.7223990668275843	62.6822034857294
0.7225194666720555	62.90433442942097
0.7226398865831676	63.12675325893134
0.7227603265642646	63.350713634831926
0.722880786618692	63.508239465976004
0.7230012667497951	63.63469106996048
0.7231217669609201	63.90692409459034
0.7232422872554135	64.15046653219972
0.7233628276366229	64.34087807675179
0.7234833881078956	64.57162643786124
0.7236039686725803	64.81066509875954
0.7237245693340255	64.76414623037678
0.7238451900955812	64.89456247287617
0.7239658309605971	65.32040019305433
0.7240864919324239	65.69534338568748
0.7242071730144127	66.04393812764638
0.724327874209915	66.29330169864814
0.7244485955222832	66.54354656045251
0.7245693369548704	66.79507967048869
0.7246900985110294	67.04285007987201
0.7248108801941148	67.292271572896
0.7249316820074803	67.571081326924
0.7250525039544815	67.82787163278925
0.7251733460384739	68.0559878455191
0.7252942082628137	68.26706729299814
0.7254150906308574	68.47248315278513
0.7255359931459625	68.6718537558022
0.7256569158114868	68.89421406027687
0.7257778586307888	69.14243230787378
0.7258988216072273	69.36041319633644
0.7260198047441617	69.58465807608283
0.7261408080449525	69.87543145345711
0.72626183151296	70.07382203300018
0.7263828751515454	70.18374551658906
0.7265039389640706	70.55398402756867
0.726625022953898	70.92492868236467
0.7267461271243904	71.13371828654205
0.7268672514789111	71.34067843993805
0.7269883960208241	71.54617945119998
0.7271095607534942	71.88845659529794
0.7272307456802866	72.23119166870265
0.7273519508045666	72.53254742831545
0.7274731761297006	72.78412277076568
0.7275944216590555	73.00301459804297
0.7277156873959987	73.19021496065443
0.7278369733438982	73.31637111988731
0.727958279506122	73.3067409430185
0.7280796058860397	73.68089937267999
0.7282009524870207	74.25461119891561
0.7283223193124353	74.61573440855794
0.7284437063656539	74.94562065616698
0.7285651136500483	75.21992721393416
0.7286865411689898	75.45401354991313
0.7288079889258514	75.66126613877056
0.7289294569240056	75.71744551971287
0.7290509451668262	75.8935823525777
0.7291724536576875	76.23586670183923
0.7292939823999636	76.56475299028949
0.7294155313970303	76.89287226590822
0.7295371006522632	77.242364273272
0.7296586901690385	77.54246186796392
0.7297802999507332	77.78960130708573
0.7299019300007252	77.99507224370534
0.7300235803223919	78.16213718429489
0.7301452509191123	78.20286899016476
0.7302669417942654	78.33236778390366
0.7303886529512311	78.53449376246307
0.7305103843933897	78.30771893211413
0.7306321361241218	78.37978259534678
0.7307539081468093	79.40845001176291
0.7308757004648336	80.06505574031623
0.7309975130815778	80.49509099549559
0.7311193460004248	80.80830741125882
0.7312411992247582	81.13080677259221
0.7313630727579622	81.476203492784
0.7314849666034219	81.7636340832421
0.7316068807645224	82.01861140224678
0.7317288152446498	82.15191379072978
0.7318507700471907	82.33244667784471
0.7319727451755319	82.57921148427918
0.732094740633061	83.02295028334954
0.7322167564231665	83.4805984339225
0.7323387925492371	83.66924800759031
0.7324608490146619	83.96704324562401
0.732582925822831	84.37466337805584
0.7327050229771347	84.72697724017804
0.7328271404809642	85.0544726121503
0.7329492783377112	85.32646564148155
0.7330714365507675	85.63696139396393
0.7331936151235259	85.97481911551563
0.7333158140593796	86.25173606204714
0.7334380333617229	86.5285727508864
0.7335602730339499	86.81262167219464
0.7336825330794556	87.15129059420079
0.7338048135016354	87.51282337975597
0.7339271143038857	87.78983667871259
0.734049435489603	87.99203203335044
0.7341717770621846	88.08386605585045
0.7342941390250283	88.47133699287366
0.7344165213815324	88.92434860861552
0.734538924135096	89.22897317182581
0.7346613472891185	89.57012412950542
0.734783790847	89.94765223944627
0.7349062548121412	90.10014083165063
0.7350287391879431	90.08988040060211
0.7351512439778078	89.66062094081441
0.7352737691851374	90.14304322833426
0.735396314813335	91.22824842327188
0.7355188808658037	91.67557179077536
0.7356414673459482	92.09986962077983
0.7357640742571725	92.51774734221993
0.7358867016028818	92.84041891450799
0.7360093493864824	93.12314924633036
0.7361320176113801	93.39974671578425
0.736254706280982	93.64881969842536
0.7363774153986956	93.86366707306483
0.7365001449679286	93.92903040775823
0.7366228949920899	94.00402469018051
0.7367456654745885	94.2681105049669
0.7368684564188344	94.84979615443396
0.7369912678282374	95.68366790243392
0.7371140997062088	96.1552537985808
0.7372369520561599	96.56149337460609
0.7373598248815024	96.88018533104862
0.7374827181856494	97.20422502818144
0.7376056319720137	97.53125467526702
0.7377285662440091	97.86591983807905
0.7378515210050496	98.14905036700232
0.7379744962585505	98.36068617492407
0.738097492007927	98.76805307241925
0.7382205082565949	99.19882664987163
0.738343545007971	99.49037686321647
0.7384666022654723	99.84378172219382
0.7385896800325165	100.24964372700391
0.7387127783125219	100.64006945100417
0.7388358971089073	101.01910313468082
0.7389590364250921	101.37380550840459
0.7390821962644963	101.73670634566679
0.7392053766305403	102.10318518559885
0.7393285775266454	102.45790238682677
0.7394517989562333	102.8152963737956
0.7395750409227259	103.17635987088579
0.7396983034295463	103.53070407982554
0.739821586480118	103.88333017314466
0.7399448900778645	104.23575309722455
0.7400682142262109	104.60365707323012
0.740191558928582	104.98408405186309
0.7403149241884034	105.2625348376619
0.7404383100091014	105.54819194065864
0.7405617163941028	105.86644866083583
0.7406851433468352	106.25219555946204
0.7408085908707264	106.64689251983586
0.7409320589692048	106.75494257187023
0.7410555476456997	107.10858196530867
0.7411790569036406	107.76269177459628
0.7413025867464579	108.16884033518242
0.7414261371775823	108.54790887706045
0.7415497082004452	109.01465573400114
0.7416732998184786	109.4221560412771
0.741796912035115	109.7890144085042
0.7419205448537874	110.02710534640906
0.7420441982779297	110.33444941882216
0.742167872310976	110.77222500313985
0.7422915669563612	111.26933592998046
0.7424152822175206	111.76894342593239
0.7425390180978901	112.138179085292
0.7426627746009065	112.43602063226093
0.7427865517300065	112.66448520836586
0.7429103494886282	113.1793897374704
0.7430341678802096	113.70219388511939
0.7431580069081896	114.1539788192707
0.7432818665760077	114.56481454503975
0.7434057468871037	114.95348646148213
0.7435296478449182	115.31785112553423
0.7436535694528923	115.68838932595851
0.7437775117144678	116.06701850338474
0.7439014746330868	116.36005676220786
0.7440254582121922	116.68131681386652
0.7441494624552276	117.18516738990687
0.7442734873656368	117.56826434127231
0.7443975329468645	117.86831080864405
0.7445215992023557	118.24378252392265
0.7446456861355559	118.69052689795552
0.7447697937499119	119.25694270710135
0.7448939220488703	119.72997628905705
0.7450180710358784	120.17550882263643
0.7451422407143843	120.63572345656527
0.7452664310878367	121.07744478762434
0.7453906421596846	121.50309113979993
0.7455148739333779	121.92199429766579
0.7456391264123667	122.34032528850656
0.7457633996001021	122.75853712220236
0.7458876935000356	123.16777586642426
0.7460120081156189	123.57307987357763
0.7461363434503048	123.97631730097534
0.7462606995075466	124.39742887728049
0.7463850762907978	124.83728817838937
0.7465094738035127	125.2494633375315
0.7466338920491467	125.67416082429597
0.746758331031155	126.14230886165662
0.7468827907529935	126.5769508842336
0.7470072712181189	126.9985368139951
0.7471317724299886	127.48109156373012
0.7472562943920602	127.9386081440834
0.7473808371077922	128.3657527162256
0.7475054005806435	128.72505998377855
0.7476299848140736	129.11646268467882
0.7477545898115426	129.64798171026453
0.7478792155765113	130.13609847034525
0.7480038621124406	130.59510328147482
0.7481285294227926	130.92099400720974
0.7482532175110298	131.3401513677968
0.7483779263806148	131.88458265119445
0.7485026560350116	132.34600606503196
0.7486274064776842	132.7935190799442
0.748752177712097	133.25490425311236
0.7488769697417158	133.75029061483673
0.749001782570006	134.26625260290595
0.7491266162004343	134.7417076333749
0.7492514706364677	135.2137640285652
0.7493763458815739	135.68093972025375
0.7495012419392209	136.14790735115685
0.7496261588128773	136.61375754711136
0.7497510965060128	137.0754244122115
0.7498760550220971	137.54850673934794
0.7500010343646007	138.02872947478954
0.7501260345369949	138.48142692576715
0.750251055542751	138.94320778134585
0.7503760973853414	139.41811782890744
0.7505011600682389	139.89279012794904
0.750626243594917	140.362728492982
0.7507513479688495	140.81489713278097
0.7508764731935109	141.31033097395323
0.7510016192723765	141.8330434738347
0.7511267862089218	142.33404105524303
0.7512519740066232	142.832480911929
0.7513771826689577	143.32728263035963
0.7515024121994025	143.8244065607029
0.7516276626014359	144.32074542317903
0.751752933878536	144.81234365547377
0.7518782260341824	145.2870899196905
0.7520035390718548	145.75338984816875
0.7521288729950334	146.27706121097876
0.7522542278071992	146.7921048162591
0.7523796035118337	147.29580142427207
0.7525050001124189	147.80565817163478
0.7526304176124378	148.3061403246393
0.7527558560153731	148.77346939597297
0.752881315324709	149.29502488264734
0.7530067955439299	149.8449419993659
0.7531322966765205	150.3752813165153
0.7532578187259665	150.90125373336775
0.7533833616957542	151.42209598328319
0.75350892558937	151.93203352380237
0.7536345104103016	152.44023117294225
0.7537601161620366	152.9481290679186
0.7538857428480638	153.46248754775976
0.7540113904718717	153.98151867944387
0.7541370590369503	154.51689540754907
0.7542627485467898	155.0286497004883
0.7543884590048808	155.51670094612206
0.7545141904147151	156.08272074008394
0.7546399427797842	156.6456560161793
0.7547657161035808	157.18493785518677
0.754891510389598	157.72586674703717
0.7550173256413296	158.26612736666607
0.7551431618622698	158.79807385833132
0.7552690190559135	159.33162588360508
0.7553948972257561	159.86651621045502
0.7555207963752938	160.42010801120955
0.755646716508023	160.97567693714984
0.755772657627441	161.5332011633185
0.7558986197370455	162.08023338499333
0.756024602840335	162.62500387899732
0.7561506069408084	163.17226489307794
0.7562766320419653	163.72938777323424
0.7564026781473054	164.2927580821123
0.75652874526033	164.84958163866656
0.7566548333845401	165.41220283468442
0.7567809425234375	165.98233234085558
0.7569070726805247	166.54669257863546
0.7570332238593047	167.1134903422184
0.7571593960632813	167.68985873721252
0.7572855892959586	168.2568157519163
0.7574118035608413	168.81834419169826
0.7575380388614347	169.37015591477092
0.7576642952012449	169.93772080915858
0.7577905725837782	170.5204754783991
0.7579168710125422	171.1000469229797
0.7580431904910444	171.6839845152138
0.7581695310227928	172.2767478981765
0.7582958926112967	172.8615380178168
0.7584222752600652	173.44439328392576
0.7585486789726085	174.029836847724
0.7586751037524372	174.6257561613095
0.7588015496030628	175.22868393205877
0.7589280165279966	175.81689434948197
0.7590545045307512	176.4005178874839
0.7591810136148396	176.9780503551704
0.7593075437837755	177.5824037437002
0.7594340950410726	178.18965152628886
0.7595606673902461	178.791778932153
0.7596872608348112	179.39354634101184
0.7598138753782836	179.9955576322048
0.75994051102418	180.60052266577995
0.7600671677760173	181.20728769804595
0.7601938456373134	181.8156590260185
0.7603205446115863	182.4271970427562
0.7604472647023548	183.0402016732212
0.7605740059131385	183.65533982613988
0.7607007682474575	184.2731997212123
0.7608275517088319	184.89255163440768
0.7609543563007835	185.51457618043642
0.7610811820268336	186.13881269843841
0.7612080288905045	186.76429087854294
0.7613348968953197	187.3891636731711
0.7614617860448022	188.00824833479322
0.7615886963424764	188.62122652973014
0.7617156277918667	189.25140887806322
0.7618425803964988	189.88441076236498
0.7619695541598982	190.51958389377452
0.7620965490855914	191.14575584595386
0.7622235651771058	191.7718672495853
0.7623506024379685	192.40997039217817
0.7624776608717082	193.04310242398088
0.7626047404818536	193.67366288679503
0.7627318412719337	194.31860370835233
0.762858963245479	194.95791601505698
0.7629861064060198	195.59070321775448
0.7631132707570876	196.222607412696
0.7632404563022137	196.8568828425456
0.7633676630449308	197.49638242106317
0.7634948909887717	198.14715651774236
0.7636221401372697	198.79685348442692
0.7637494104939593	199.42295538428473
0.7638767020623748	200.0527698263669
0.7640040148460518	200.6838606201428
0.7641313488485262	201.27792669144353
0.7642587040733344	201.86588250335208
0.7643860805240132	202.44667370098426
0.7645134782041005	203.0695346726774
0.7646408971171346	203.6828528427178
0.764768337266654	204.2649657272046
0.7648957986561985	204.84219593607327
0.7650232812893079	205.42058297394638
0.7651507851695227	206.01118319478687
0.7652783103003843	206.58014882406155
0.7654058566854343	207.1343955257124
