#wavelength	surface flux
0.7	70.29275355820359
0.7001166666666666	70.58079208519962
0.7002333527777778	70.8551725100178
0.700350058336574	71.09534766228167
0.7004667833462966	71.346738808576
0.7005835278101878	71.60653081307287
0.7007002917314895	71.86235026487448
0.7008170751134447	72.11822282252601
0.7009338779592968	72.37805196735033
0.7010507002722901	72.63668989698876
0.7011675420556689	72.89376063411372
0.701284403312678	73.15426973524683
0.7014012840465635	73.41595683890203
0.7015181842605713	73.6622540852503
0.701635103957948	73.90535559334035
0.701752043141941	74.14095247702139
0.701869001815798	74.4073721394002
0.7019859799827672	74.69523457800572
0.7021029776460976	74.94744338914298
0.7022199948090387	75.19767999181535
0.7023370314748403	75.46177631723569
0.7024540876467528	75.73570812671562
0.702571163328027	76.02108666171364
0.7026882585219152	76.28476536236909
0.7028053732316688	76.54162311878254
0.7029225074605406	76.80355323678302
0.7030396612117841	77.06280444117141
0.7031568344886527	77.31677844377907
0.7032740272944008	77.59989901326787
0.7033912396322832	77.90004035613794
0.7035084715055552	78.18311987700457
0.7036257229174727	78.45816517185352
0.7037429938712924	78.70941496183445
0.7038602843702709	78.98156231500914
0.7039775944176659	79.27347987668733
0.7040949240167356	79.54850816196355
0.7042122731707383	79.82167544580194
0.7043296418829335	80.11280010217828
0.7044470301565806	80.39680491408369
0.70456443799494	80.67013124552614
0.7046818654012724	80.95712004556901
0.7047993123788394	81.25007279636779
0.7049167789309024	81.51862368877458
0.7050342650607243	81.79627865678692
0.7051517707715678	82.09633611798574
0.7052692960666963	82.39143012423999
0.705386840949374	82.68308342030763
0.7055044054228656	82.96920395059921
0.7056219894904361	83.25745725518762
0.7057395931553511	83.55788376552765
0.705857216420877	83.8559812419449
0.7059748592902804	84.15161621724094
0.7060925217668288	84.44347882191214
0.70621020385379	84.73552242814867
0.7063279055544321	85.03995077850745
0.7064456268720246	85.33929589370598
0.7065633678098366	85.63057742134265
0.7066811283711383	85.91827205284552
0.7067989085592001	86.20437283496618
0.7069167083772933	86.51115081461242
0.7070345278286895	86.80967336357892
0.707152366916661	87.08773882961597
0.7072702256444803	87.3490604318943
0.7073881040154211	87.59903512382114
0.7075060020327569	87.95384039664745
0.7076239196997625	88.31173980570715
0.7077418570197124	88.63539917196765
0.7078598139958823	88.94998484753138
0.7079777906315483	89.25574883883101
0.7080957869299869	89.56877819686058
0.7082138028944751	89.88415138554265
0.7083318385282908	90.20424864274439
0.7084498938347124	90.52617424531256
0.708567968817018	90.85057878159643
0.7086860634784875	91.13858596337367
0.7088041778224007	91.41132253004282
0.7089223118520377	91.63637561697452
0.7090404655706796	91.92828690763673
0.709158638981608	92.34855447416398
0.709276832088105	92.70123755083902
0.7093950448934531	93.01755287206618
0.7095132774009353	93.20144506195288
0.7096315296138355	93.45634156895056
0.7097498015354378	93.92247133796502
0.7098680931690269	94.31192619191252
0.7099864045178884	94.64485430214286
0.7101047355853081	94.98265364029163
0.7102230863745722	95.32148647461668
0.7103414568889679	95.66182841313085
0.7104598471317828	95.9978276452181
0.7105782571063047	96.32957858986617
0.7106966868158224	96.63569235797712
0.710815136263625	96.94422045407094
0.7109336054530023	97.30838267943652
0.7110520943872445	97.66746220088507
0.7111706030696424	98.02004519137718
0.7112891315034873	98.36862779809157
0.7114076796920712	98.71531070843606
0.7115262476386865	99.0531165323633
0.7116448353466263	99.38867639099236
0.711763442819184	99.72050440866482
0.711882070059654	100.06345606779337
0.7120007170713306	100.41134701388708
0.7121193838575091	100.75124278881495
0.7122380704214853	101.09763217426641
0.7123567767665555	101.45771217083569
0.7124755028960166	101.79987364782836
0.7125942488131658	102.13179824406915
0.7127130145213015	102.47744649621612
0.7128318000237216	102.82488322585336
0.7129506053237256	103.1752099733394
0.7130694304246129	103.52668665419375
0.7131882753296837	103.87899859887767
0.7133071400422386	104.24460330614023
0.7134260245655789	104.58622831231499
0.7135449289030065	104.83694570042924
0.7136638530578235	105.20561483987426
0.7137827970333332	105.67605571941368
0.7139017608328388	106.0456615471005
0.7140207444596443	106.40098981724279
0.7141397479170543	106.76927661671681
0.7142587712083737	107.12134773395664
0.7143778143369084	107.45678754743183
0.7144968773059646	107.87892754875472
0.7146159601188489	108.31243434280728
0.7147350627788687	108.69076616520766
0.7148541852893318	109.06165055927494
0.7149733276535467	109.4235944860193
0.7150924898748222	109.76231920144438
0.715211671956468	110.10356320496032
0.7153308739017941	110.52941039065209
0.715450095714111	110.94013768384738
0.71556933739673	111.32996835705731
0.7156885989529628	111.67582166453356
0.7158078803861218	112.01188507436747
0.7159271816995193	112.42431627249026
0.7160465028964692	112.78317547814362
0.7161658439802853	113.05808514867172
0.7162852049542819	113.23374303554014
0.7164045858217744	113.37128547473965
0.716523986586078	113.55059301372502
0.7166434072505089	113.54626696835389
0.716762847818384	113.22026089867397
0.7168823082930204	113.72889876185373
0.7170017886777359	114.61433290889208
0.7171212889758488	115.49228004105765
0.7172408091906781	116.16150486522658
0.7173603493255433	116.427917185753
0.7174799093837642	116.57852162327791
0.7175994893686615	116.67165620128995
0.7177190892835562	117.30463599175083
0.7178387091317702	117.99769695011864
0.7179583489166254	118.81141702149853
0.7180780086414448	119.33051043137858
0.7181976883095517	119.69228196808608
0.7183173879242699	120.17232107655295
0.718437107488924	120.59646226929783
0.7185568470068389	120.8908460809507
0.7186766064813399	121.0552285263335
0.7187963859157535	121.1463677972577
0.7189161853134061	121.98101081626875
0.719036004677625	122.74325861274237
0.7191558440117378	123.28289870130298
0.7192757033190732	123.71117657636533
0.7193955826029597	124.07450754315742
0.7195154818667269	124.46546472944303
0.7196354011137046	124.88573344592024
0.7197553403472235	125.37338963104665
0.7198752995706147	125.83225271607758
0.7199952787872098	126.27406423198956
0.720115278000341	126.67307551862342
0.7202352972133411	127.05693488796635
0.7203553364295432	127.40854019127374
0.7204753956522815	127.78520422105318
0.7205954748848902	128.1767433009739
0.7207155741307044	128.64382691311476
0.7208356933930594	129.13687330551207
0.7209558326752915	129.68424546958997
0.7210759919807375	130.15236461944255
0.7211961713127342	130.5744384090637
0.7213163706746197	130.92467620720203
0.7214365900697322	131.32963088322802
0.7215568295014103	131.86500890847304
0.721677088972994	132.37182768782037
0.7217973684878227	132.86268486637388
0.7219176680492374	133.16476974748593
0.7220379876605789	133.54884264731623
0.722158327325189	134.11975226602848
0.7222786870464099	134.67652899707144
0.7223990668275843	135.22586209605782
0.7225194666720555	135.66719327928686
0.7226398865831676	136.11910619829877
0.7227603265642646	136.59401992803993
0.722880786618692	136.95828366858197
0.7230012667497951	137.27061709173668
0.7231217669609201	137.80851936399355
0.7232422872554135	138.28345750730205
0.7233628276366229	138.6418034627993
0.7234833881078956	139.10257775577867
0.7236039686725803	139.5954498237849
0.7237245693340255	139.68813863995572
0.7238451900955812	140.03653978816004
0.7239658309605971	140.81187574592877
0.7240864919324239	141.4848708929859
0.7242071730144127	142.1096232804265
0.724327874209915	142.6099704537254
0.7244485955222832	143.093297586145
0.7245693369548704	143.55131601717622
0.7246900985110294	144.05858278356777
0.7248108801941148	144.58785028243082
0.7249316820074803	145.16952599111355
0.7250525039544815	145.6949900441765
0.7251733460384739	146.14726087492699
0.7252942082628137	146.56266551064843
0.7254150906308574	146.96908885074694
0.7255359931459625	147.38541678508898
0.7256569158114868	147.87034344582185
0.7257778586307888	148.43243106240533
0.7258988216072273	148.8596037166293
0.7260198047441617	149.2854129811507
0.7261408080449525	149.85855157692123
0.72626183151296	150.2317130412948
0.7263828751515454	150.41337312937614
0.7265039389640706	151.18097455800563
0.726625022953898	151.96347311624223
0.7267461271243904	152.43209994267403
0.7268672514789111	152.89931036677734
0.7269883960208241	153.36540126111404
0.7271095607534942	153.99676443874932
0.7272307456802866	154.639446295598
0.7273519508045666	155.26374225486342
0.7274731761297006	155.79597846664294
0.7275944216590555	156.26777634689662
0.7277156873959987	156.67407746485242
0.7278369733438982	157.02242072151662
0.727958279506122	157.24569354145592
0.7280796058860397	157.93498170895495
0.7282009524870207	158.86665180152136
0.7283223193124353	159.54724961731674
0.7284437063656539	160.18466709446412
0.7285651136500483	160.74523061199102
0.7286865411689898	161.22220718975612
0.7288079889258514	161.64675607884894
0.7289294569240056	161.8047814546175
0.7290509451668262	162.16386913176552
0.7291724536576875	162.80143480273432
0.7292939823999636	163.42423393676378
0.7294155313970303	164.05224650980412
0.7295371006522632	164.74501417882598
0.7296586901690385	165.3421018455282
0.7297802999507332	165.83660613257615
0.7299019300007252	166.36388943573115
0.7300235803223919	166.81935177774406
0.7301452509191123	166.9494825132124
0.7302669417942654	167.26217389984316
0.7303886529512311	167.72423377698487
0.7305103843933897	167.53260715663407
0.7306321361241218	167.7991265423145
0.7307539081468093	169.53105945955713
0.7308757004648336	170.7128177309126
0.7309975130815778	171.5595557030779
0.7311193460004248	172.11398298774657
0.7312411992247582	172.70559791168017
0.7313630727579622	173.38187742933374
0.7314849666034219	173.98307133036778
0.7316068807645224	174.53975489611437
0.7317288152446498	174.897164219942
0.7318507700471907	175.29355198228674
0.7319727451755319	175.74458310733561
0.732094740633061	176.58375505869378
0.7322167564231665	177.45923870125975
0.7323387925492371	177.86061362445705
0.7324608490146619	178.4560060008069
0.732582925822831	179.2466231636904
0.7327050229771347	179.91912448089633
0.7328271404809642	180.54427621639397
0.7329492783377112	181.07071094727095
0.7330714365507675	181.69777869690603
0.7331936151235259	182.39635241317015
0.7333158140593796	182.99703334610146
0.7334380333617229	183.56803084012975
0.7335602730339499	184.08515136507177
0.7336825330794556	184.76055852506659
0.7338048135016354	185.5067871192295
0.7339271143038857	186.12004551048094
0.734049435489603	186.6326595573724
0.7341717770621846	186.9967976194785
0.7342941390250283	187.6858859056203
0.7344165213815324	188.44272081993387
0.734538924135096	189.0087924294088
0.7346613472891185	189.6648899068027
0.734783790847	190.41064528674326
0.7349062548121412	190.805542312689
0.7350287391879431	190.996091704097
0.7351512439778078	190.6944891126833
0.7352737691851374	191.572900787837
0.735396314813335	193.23152498188196
0.7355188808658037	194.0057265754967
0.7356414673459482	194.77364133500552
0.7357640742571725	195.58279785978016
0.7358867016028818	196.234719001595
0.7360093493864824	196.82317594965346
0.7361320176113801	197.43168188527872
0.736254706280982	197.9984654905118
0.7363774153986956	198.51336137185754
0.7365001449679286	198.81901700061934
0.7366228949920899	199.13160713954508
0.7367456654745885	199.68023564000808
0.7368684564188344	200.6703625565466
0.7369912678282374	202.01106189713667
0.7371140997062088	202.85798555332715
0.7372369520561599	203.62212039591108
0.7373598248815024	204.2814833490609
0.7374827181856494	204.94388484817668
0.7376056319720137	205.60975871512593
0.7377285662440091	206.31613532061715
0.7378515210050496	206.94577732649392
0.7379744962585505	207.46895093450496
0.738097492007927	208.2091099316523
0.7382205082565949	208.97388395124986
0.738343545007971	209.57752098371796
0.7384666022654723	210.246251966582
0.7385896800325165	210.97019478651256
0.7387127783125219	211.7685261650752
0.7388358971089073	212.5477296560969
0.7389590364250921	213.2637373345216
0.7390821962644963	213.96784962787208
0.7392053766305403	214.66644347857314
0.7393285775266454	215.37288708864494
0.7394517989562333	216.08845607895273
0.7395750409227259	216.8165664947001
0.7396983034295463	217.53028403096985
0.739821586480118	218.23948727167036
0.7399448900778645	218.94434420249576
0.7400682142262109	219.67647139047907
0.740191558928582	220.43066084772482
0.7403149241884034	221.0333489477209
0.7404383100091014	221.65414291071028
0.7405617163941028	222.3397720912833
0.7406851433468352	223.0973286958055
0.7408085908707264	223.86261268786384
0.7409320589692048	224.2978184074399
0.7410555476456997	225.03009735072058
0.7411790569036406	226.1258241992297
0.7413025867464579	226.91646087420588
0.7414261371775823	227.66688757213188
0.7415497082004452	228.4994101495528
0.7416732998184786	229.27484292990644
0.741796912035115	230.01113327615533
0.7419205448537874	230.59869403072025
0.7420441982779297	231.2683136811011
0.742167872310976	232.09226764700358
0.7422915669563612	233.00055428042194
0.7424152822175206	233.91281532616858
0.7425390180978901	234.642682735458
0.7426627746009065	235.2961797606026
0.7427865517300065	235.87546572571594
0.7429103494886282	236.8296798016797
0.7430341678802096	237.7904724000168
0.7431580069081896	238.64837359807632
0.7432818665760077	239.45526603645592
0.7434057468871037	240.23421405280587
0.7435296478449182	240.9755348990141
0.7436535694528923	241.71774458818206
0.7437775117144678	242.46108319247617
0.7439014746330868	243.11853479996037
0.7440254582121922	243.81222221353107
0.7441494624552276	244.71965336091412
0.7442734873656368	245.50641933880888
0.7443975329468645	246.2102166869641
0.7445215992023557	246.9612270338573
0.7446456861355559	247.8049772336572
0.7447697937499119	248.80618796708728
0.7448939220488703	249.7099768855327
0.7450180710358784	250.58244141996957
0.7451422407143843	251.45455638471898
0.7452664310878367	252.29600185226099
0.7453906421596846	253.11079076415697
0.7455148739333779	253.9444630247433
0.7456391264123667	254.78591903833856
0.7457633996001021	255.64082681850186
0.7458876935000356	256.44397567656165
0.7460120081156189	257.225077954767
0.7461363434503048	258.0014941980891
0.7462606995075466	258.84301727882405
0.7463850762907978	259.75283485125215
0.7465094738035127	260.613509917069
0.7466338920491467	261.4727599346719
0.746758331031155	262.3459178941241
0.7468827907529935	263.1943253047562
0.7470072712181189	264.0366050188443
0.7471317724299886	264.980003939197
0.7472562943920602	265.88605895211333
0.7473808371077922	266.746806838199
0.7475054005806435	267.50679434401013
0.7476299848140736	268.30294645105806
0.7477545898115426	269.2708438874287
0.7478792155765113	270.1930545349923
0.7480038621124406	271.0836147912489
0.7481285294227926	271.8017435232038
0.7482532175110298	272.64414780946674
0.7483779263806148	273.6534603546802
0.7485026560350116	274.5609841184927
0.7486274064776842	275.45239774948595
0.748752177712097	276.36408663638076
0.7488769697417158	277.3142219378819
0.749001782570006	278.2876500222939
0.7491266162004343	279.2155161524084
0.7492514706364677	280.1339959639021
0.7493763458815739	281.0390236455839
0.7495012419392209	281.9747898093709
0.7496261588128773	282.90724939817386
0.7497510965060128	283.7998007143818
0.7498760550220971	284.72572808220184
0.7500010343646007	285.6727482704617
0.7501260345369949	286.5683607182132
0.750251055542751	287.48017329244226
0.7503760973853414	288.41539499672103
0.7505011600682389	289.3353277797693
0.750626243594917	290.24916876482115
0.7507513479688495	291.1533864895002
0.7508764731935109	292.11133017223403
0.7510016192723765	293.1036705993923
0.7511267862089218	294.10739066662063
0.7512519740066232	295.0886792650973
0.7513771826689577	296.03829210539504
0.7515024121994025	296.9867773964251
0.7516276626014359	297.9402408438726
0.751752933878536	298.91188121570246
0.7518782260341824	299.86385734174405
0.7520035390718548	300.8059176364327
0.7521288729950334	301.81201732327963
0.7522542278071992	302.79732041933585
0.7523796035118337	303.7552857068789
0.7525050001124189	304.7566574344734
0.7526304176124378	305.7504980144302
0.7527558560153731	306.69421186130506
0.752881315324709	307.7131274431787
0.7530067955439299	308.77023101895077
0.7531322966765205	309.7798528056518
0.7532578187259665	310.79485028325854
0.7533833616957542	311.81611561635015
0.75350892558937	312.82006476656653
0.7536345104103016	313.8210801843607
0.7537601161620366	314.8211285742652
0.7538857428480638	315.82480481384255
0.7540113904718717	316.83011013720693
0.7541370590369503	317.8340936527221
0.7542627485467898	318.8343719919227
0.7543884590048808	319.830932014972
0.7545141904147151	320.90406326127015
0.7546399427797842	321.97454712948064
0.7547657161035808	323.02254172304254
0.754891510389598	324.08346576584626
0.7550173256413296	325.14652093564115
0.7551431618622698	326.1920607372546
0.7552690190559135	327.23681000927354
0.7553948972257561	328.2809387590814
0.7555207963752938	329.3370002383938
0.755646716508023	330.4057814197792
0.755772657627441	331.49516854815806
0.7558986197370455	332.56799736349313
0.756024602840335	333.6360282940794
0.7561506069408084	334.70285749576016
0.7562766320419653	335.77315266602596
0.7564026781473054	336.84586144398037
0.75652874526033	337.9240699616992
0.7566548333845401	339.00485829992436
0.7567809425234375	340.0889461896768
0.7569070726805247	341.1778872865096
0.7570332238593047	342.269296312961
0.7571593960632813	343.3649565971086
0.7572855892959586	344.4645655795288
0.7574118035608413	345.56666676343286
0.7575380388614347	346.67401203864915
0.7576642952012449	347.78441856954043
0.7577905725837782	348.897782897645
0.7579168710125422	350.01658204758536
0.7580431904910444	351.1379303842286
0.7581695310227928	352.26319865694614
0.7582958926112967	353.3929813804686
0.7584222752600652	354.52533762284907
0.7585486789726085	355.6626045349004
0.7586751037524372	356.8035040518706
0.7588015496030628	357.9469219017756
0.7589280165279966	359.0885171878559
0.7590545045307512	360.2237547547708
0.7591810136148396	361.35053224229034
0.7593075437837755	362.5248351514781
0.7594340950410726	363.69564382921493
0.7595606673902461	364.8339697832446
0.7596872608348112	365.99154700159613
0.7598138753782836	367.15941076472603
0.75994051102418	368.3396608293277
0.7600671677760173	369.5232788411744
0.7601938456373134	370.70990328517627
0.7603205446115863	371.8946946210705
0.7604472647023548	373.0704560898738
0.7605740059131385	374.2310734810467
0.7607007682474575	375.4210455764909
0.7608275517088319	376.61995399041626
0.7609543563007835	377.8234365184907
0.7610811820268336	379.0115731704768
0.7612080288905045	380.1929432285855
0.7613348968953197	381.4008218644838
0.7614617860448022	382.59670552596117
0.7615886963424764	383.77993529930535
0.7617156277918667	384.96885428344115
0.7618425803964988	386.1708650820763
0.7619695541598982	387.3975648097758
0.7620965490855914	388.61190891507505
0.7622235651771058	389.82789075085117
0.7623506024379685	391.06777066224043
0.7624776608717082	392.2919296654585
0.7626047404818536	393.50607020043776
0.7627318412719337	394.71809507626676
0.762858963245479	395.93303768607456
0.7629861064060198	397.1513225650005
0.7631132707570876	398.3673732546486
0.7632404563022137	399.57476463919556
0.7633676630449308	400.7639970797561
0.7634948909887717	401.98222828187875
0.7636221401372697	403.2114450875083
0.7637494104939593	404.4454548589552
0.7638767020623748	405.6581888634233
0.7640040148460518	406.8560132737798
0.7641313488485262	408.0251311777104
0.7642587040733344	409.1548408449717
0.7643860805240132	410.23841746570434
0.7645134782041005	411.4201859365682
0.7646408971171346	412.58207090987605
0.764768337266654	413.67621755784273
0.7648957986561985	414.82943276798346
0.7650232812893079	415.9923868096098
0.7651507851695227	417.11113096427147
