#wavelength	surface flux
0.6450077295303345	177.11278397318608
0.6472567915916443	190.0489557342477
0.6494921445846558	203.75119491691268
0.6517150402069092	218.16582138396345
0.6539263725280762	233.4560293911664
0.6561272740364075	249.5800097183694
0.6583186388015747	266.6613231323815
0.6605015397071838	284.6856417179586
0.6626768708229065	303.6963536669594
0.6648455858230591	323.7848591074788
0.6670085787773132	344.9814083463485
0.6691668033599854	367.35909098369365
0.6713210344314575	390.6622467529635
0.6734722256660461	415.8880997754878
0.6756211519241333	442.1471505948845
0.6777685880661011	469.79354290907975
0.6799154281616211	499.0477349126995
0.6820623278617859	529.8677042349353
0.6842101216316223	562.4288693452288
0.6863595843315125	596.7017404957614
0.688511312007904	632.8448163454002
0.6906660795211792	670.8827096962303
0.6928245425224304	710.1288797084794
0.6949873566627502	753.3050282881688
0.6971551775932312	798.2959114500177
0.6993286609649658	844.7840444549873
0.7015084028244019	895.1385191946079
0.7036949396133423	947.6066660117395
0.7058889269828796	1003.1716985441586
0.7080909013748169	1061.251242616273
0.710301399230957	1122.557569522346
0.712520956993103	1187.788284129864
0.7147500514984131	1256.074433916537
0.7169892191886902	1322.1429752033512
0.7192389369010925	1403.786540366805
0.7214996814727783	1484.3478013345803
0.723771870136261	1568.973539497804
0.7260559797286987	1659.0463122032
0.7283523678779602	1754.0408365912174
0.7306615710258484	1850.5984134692244
0.7329838871955872	1958.9910702243942
0.7353196740150452	2066.0960105700174
0.7376693487167358	2186.4114336230364
0.7400332689285278	2310.7633463966586
0.7424117922782898	2440.2182299863434
0.7448052167892456	2577.701173503215
0.7472138404846191	2723.789068290799
0.7496379613876343	2878.1091842343913
0.7520779371261597	3037.8044099259428
0.7545340061187744	3205.2954546109686
0.7570064663887024	3377.639390492078
0.7594954967498779	3547.2272519093985
0.7620013952255249	3687.413095032337
0.7645244002342224	3626.5184509101223
0.7670646905899048	3300.049654906897
0.7696225643157959	3575.3830547899347
0.7721980810165405	4366.038081675171
0.7747915983200073	4881.121887438693
0.7774031162261963	5215.202365615308
0.7800329327583313	5314.3901377306875
0.7826811671257019	5855.716637023104
0.7853479981422424	6195.290037403032
0.7880334854125977	6546.862737820704
0.7907378077507019	6916.942819177163
0.7934610247612	7259.103786836222
0.7962033748626709	7641.839478800709
0.7989648580551147	8148.889519083037
0.801745593547821	8605.640494073607
0.8045456409454346	9088.665304105187
0.8073651194572449	9595.202722557882
0.8102040886878967	10099.676320744195
0.8130625486373901	10651.273278728268
0.8159406185150146	11264.885326116919
0.8188382983207703	11867.898840977961
0.8217556476593018	12556.092188049915
0.8246926665306091	13245.219327013361
0.8276493549346924	13981.525617948544
0.8306257724761963	14755.71051803142
0.8336219191551208	15588.367385429694
0.8366377949714661	16434.880560224756
0.8396733403205872	17337.702510030038
0.8427285552024841	18312.379361469804
0.8458034992218018	19300.381134006977
0.8488980531692505	20362.82484686449
0.8520121574401855	21484.907689848187
0.8551458716392517	22656.05084826342
0.8582990765571594	23891.38398153114
0.8614717125892639	25110.0517207254
0.8646637797355652	26435.54067431298
0.8678751587867737	27940.964678263823
0.8711057901382446	29425.81783655412
0.8743556141853333	31022.86649924439
0.87762451171875	32696.827756765793
0.8809124231338501	34443.87929793543
0.8842192888259888	36283.96634131455
0.8875449895858765	38212.01945034724
0.8908893465995789	40089.74774088094
0.894252359867096	42195.73780696157
0.8976338505744934	43799.65802640594
0.9010337591171265	46647.31158566517
0.9044519662857056	49297.3419334112
0.9078882932662964	51804.352629738256
0.9113426208496094	54445.11852782209
0.914814829826355	57241.86210995954
0.9183048605918884	60051.50782545157
0.9218124747276306	63216.38369466005
0.925337553024292	65834.00911768092
0.9288799166679382	67273.82758795121
0.9324395060539246	66975.78929863867
0.9360161423683167	72542.2160246323
0.9396095871925354	79827.2393890787
0.943219780921936	84112.20620592324
0.9468464851379395	84556.17274217056
0.9504896402359009	88650.07929239108
0.9541489481925964	95048.85309684063
0.9578243494033813	100515.41068225169
0.9615156054496765	104808.23530399204
0.9652225375175476	110709.60050653318
0.9689450263977051	118059.46896488027
0.9726828336715698	121679.50951262967
0.9764357805252075	129416.72538354801
0.9802037477493286	135114.7137894673
0.983986496925354	142576.1983180351
0.9877838492393494	149535.22008625977
0.9915955662727356	156852.68398234053
0.9954215884208679	164428.4328215025
0.9992615580558777	171942.24152394375
1.0031154155731201	179546.88519734252
1.0069829225540161	187605.28947159866
1.0108637809753418	196026.03371287728
1.0147579908370972	204675.76989057305
1.018665075302124	213663.49656156567
1.022585153579712	222978.49766688858
1.0265177488327026	232627.3157536452
1.0304628610610962	242627.5246775233
1.0344202518463135	252974.88033675702
1.0383895635604858	263691.2299936373
1.0423706769943237	274775.1652571764
1.0463634729385376	286213.6932063207
1.0503677129745483	298047.97497079853
1.0543830394744873	310366.04790865415
1.058409333229065	322976.312477862
1.0624464750289917	336858.85974325537
1.0664942264556885	350677.78397884395
1.0705522298812866	364826.6923984667
1.0746204853057861	379552.7789210332
1.0786986351013184	394074.19885655364
1.0827864408493042	409835.01176221576
1.086883783340454	425048.3376596828
1.0909905433654785	440566.93139155523
1.0951062440872192	455700.5954764751
1.0992310047149658	465650.38505760476
1.10336434841156	476507.85969868395
1.1075061559677124	491983.5226046722
1.1116561889648438	497402.52121358603
1.115814208984375	446461.7312633359
1.1199802160263062	507094.9723267387
1.124153733253479	458681.79945812
1.1283347606658936	563568.4216922342
1.1325229406356812	586706.1071434816
1.1367181539535522	607736.131588282
1.1409201622009277	667401.1148005391
1.145128846168518	651152.6169609356
1.1493438482284546	623742.8375367088
1.1535650491714478	713384.7795372936
1.1577922105789185	756230.6286199223
1.1620250940322876	771763.7936273922
1.1662636995315552	802760.4743861351
1.170507550239563	818879.3482605258
1.174756646156311	858930.3020775437
1.1790107488632202	902313.311404464
1.1832695007324219	937644.3431116249
1.1875330209732056	968682.2598959308
1.191800832748413	1004032.3979658567
1.1960728168487549	1036011.1933446864
1.2003488540649414	1068850.6483415319
1.2046287059783936	1106299.8403955512
1.2089121341705322	1140047.3278527947
1.2131990194320679	1171844.397450808
1.2174891233444214	1212966.250492668
1.2217823266983032	1249256.4085835586
1.2260783910751343	1287588.9838859579
1.230377197265625	1325340.3955124093
1.2346785068511963	1366165.8857546754
1.238982081413269	1406882.5373125074
1.2432878017425537	1446795.7520954637
1.2475954294204712	1487431.5621991714
1.2519049644470215	1530372.6551605694
1.256216049194336	1573789.797517505
1.2605286836624146	1617616.0014605979
1.2648425102233887	1662009.913700676
1.2691574096679688	1705553.15631885
1.2734732627868652	1749526.281890515
1.2777899503707886	1799005.1346240228
1.2821072340011597	1839324.1429131017
1.2864248752593994	1886399.2496338205
1.2907428741455078	1934220.9506777148
1.2950609922409058	1949401.1016118939
1.2993791103363037	2014182.8364164415
1.303696870803833	2073752.4056091048
1.3080145120620728	2134704.350645013
1.3123314380645752	2177599.6229384425
1.3166478872299194	2224778.334320819
1.3209635019302368	2274937.9573398596
1.3252781629562378	2328491.298959458
1.3295916318893433	2348013.403322228
1.3339040279388428	2290831.8112954833
1.3382149934768677	1828624.6395472414
1.3425244092941284	1608004.7378570766
1.3468321561813354	1466128.9077897356
1.3511382341384888	1595683.8061115213
1.3554422855377197	1378007.0714762302
1.3597444295883179	1266993.2805886315
1.3640443086624146	1648996.8712347466
1.3683418035507202	1683822.7037509924
1.3726370334625244	2033416.9578928219
1.3769296407699585	2127856.341724811
1.381219506263733	1993289.9689712548
1.3855066299438477	1670483.246990188
1.3897908926010132	2018485.0944937898
1.3940720558166504	1789266.3796311733
1.3983501195907593	2033160.284774666
1.4026249647140503	2278157.9586547576
1.4068963527679443	2317841.609929657
1.4111642837524414	2385701.0233215694
1.4154287576675415	2257508.467909877
1.419689416885376	1974260.2015392596
1.4239463806152344	1851139.9474238318
1.4281994104385376	2686897.7352340696
1.4324485063552856	2336882.2193866614
1.436693549156189	2797394.6647276888
1.440934419631958	2642071.884737245
1.4451709985733032	2959608.3720205524
1.449403166770935	3121525.526261953
1.453631043434143	3219653.4901820673
1.4578542709350586	3824422.4841122883
1.4620729684829712	3683931.5284045907
1.4662868976593018	3922681.5507528987
1.4704961776733398	3999913.7284868783
1.4747005701065063	4043387.3812545575
1.4788999557495117	4319736.147658995
1.4830944538116455	4247017.83702884
1.4872838258743286	4497024.47359076
1.491468071937561	4658247.193988775
1.4956470727920532	4722025.092613847
1.4998208284378052	4895588.946697069
1.5039892196655273	5031183.87165211
1.5081522464752197	5135251.866410964
1.5123097896575928	5288643.257337773
1.5164618492126465	5397520.635605148
1.5206083059310913	5512502.433661559
1.5247491598129272	5647709.964281879
1.5288842916488647	5560240.405553422
1.5330137014389038	5896234.657991557
1.5371372699737549	6062386.358247248
1.541254997253418	6129339.886942808
1.545366883277893	6217595.2017505625
1.5494728088378906	6355980.794501031
1.5535727739334106	6461014.028239205
1.5576666593551636	6551325.435360766
1.561754584312439	6667328.569771281
1.5658363103866577	6774660.129004255
1.5699119567871094	6895486.149225636
1.5739814043045044	6998333.921736885
1.5780447721481323	7102831.734667203
1.582101821899414	7206000.396831273
1.5861525535583496	7268478.442050012
1.5901970863342285	7380785.7795011625
1.5942351818084717	7487645.170983845
1.5982669591903687	7600399.625386416
1.6022924184799194	7708873.014092756
1.606311559677124	7795622.629416816
1.6103241443634033	7902724.977745766
1.6143304109573364	8005692.750710572
1.6183301210403442	8100767.85519937
1.6223233938217163	8098635.383098214
1.6263102293014526	8033592.004350729
1.6302905082702637	7955136.101346929
1.634264349937439	8218618.358313156
1.638231635093689	8532015.203494119
1.6421923637390137	8633553.535626506
1.646146535873413	8696708.513393197
1.6500942707061768	8790181.394147322
1.6540353298187256	8815047.805169407
1.6579699516296387	8822515.508064747
1.661897897720337	9054447.368382422
1.6658192873001099	8451461.582209978
1.6697341203689575	8617330.860807816
1.6736423969268799	9412850.82723562
1.677544116973877	9455707.351807699
1.6814392805099487	9473542.709491868
1.6853278875350952	9462269.239048667
1.6892099380493164	9811255.37652661
1.6930854320526123	9272468.581349913
1.696954369544983	9635898.241649104
1.7008168697357178	9187611.785676124
1.7046726942062378	9403540.579838164
1.708522081375122	9812529.409916785
1.712364912033081	10355358.005990414
1.7162011861801147	10511730.979172207
1.7200311422348022	10444675.298265755
1.723854422569275	9982769.279722106
1.7276713848114014	10013362.910370754
1.731481909751892	10149034.058550008
1.7352858781814575	9918641.335628895
1.7390835285186768	10441637.496261133
1.7428747415542603	10413416.166574996
1.7466596364974976	10731330.416781213
1.7504380941390991	10944726.53492571
1.7542102336883545	10021834.246788207
1.7579760551452637	10121364.103793325
1.7617355585098267	9971799.444970997
1.7654887437820435	9358455.173096824
1.7692357301712036	9208452.517769203
1.7729763984680176	9493755.35473546
1.776710867881775	7933069.829504311
1.7804391384124756	8818939.577129014
1.7841613292694092	7528423.938224603
1.7878772020339966	7621994.861805076
1.7915871143341064	7202879.711774908
1.7952908277511597	8140148.73672396
1.7989884614944458	8113053.847941711
1.8026801347732544	6666620.586559235
1.806365728378296	6704975.894478811
1.8100452423095703	6013644.558080656
1.8137187957763672	7888687.670986762
1.817386507987976	8737601.454315836
1.8210482597351074	8175827.632463818
1.8247040510177612	9666469.852722583
1.828354001045227	8680043.188217107
1.8319982290267944	8266041.027255806
1.8356364965438843	8303168.117462147
1.8392690420150757	8080472.558651618
1.8428958654403687	8331217.451341669
1.8465168476104736	7713463.90051352
1.8501322269439697	8021545.141380928
1.8537418842315674	9495451.198375948
1.8573459386825562	7791226.57052368
1.860944390296936	5782231.688861295
1.864537239074707	5684641.438938848
1.8681244850158691	5834246.235279413
1.871706247329712	6248179.470759052
1.8752825260162354	7259210.488417297
1.8788533210754395	9786015.367961055
1.8824186325073242	9584533.022849545
1.8859784603118896	8645481.10831093
1.8895330429077148	8775753.704454828
1.8930821418762207	9378278.868172908
1.8966259956359863	10022477.073915323
1.9001644849777222	8485961.160531387
1.9036977291107178	9129814.338362664
1.9072256088256836	11384335.7641278
1.9107483625411987	11094182.119929552
1.9142658710479736	8861716.754818572
1.9177782535552979	11664616.224467095
1.9212853908538818	9687089.842319183
1.9247875213623047	9266279.345860967
1.9282845258712769	10649728.620596286
1.9317764043807983	9617349.611018803
1.9352631568908691	10378999.88834593
1.9387450218200684	6261406.878328761
1.942221760749817	8371642.031043245
1.9456936120986938	8628394.752599996
1.9491604566574097	8249979.415300554
1.952622413635254	10453178.51423068
1.956079363822937	7991929.450268854
1.959531545639038	7789656.294935136
1.962978720664978	8706802.20151141
1.966421127319336	11579253.674460806
1.9698586463928223	11052061.075514372
1.9732913970947266	11846900.18112666
1.9767193794250488	11467927.236614063
1.9801424741744995	11434651.069413569
1.9835609197616577	12500060.066015784
1.9869745969772339	13426129.679086244
1.990383505821228	10632042.382067958
1.9937876462936401	12209128.21384812
1.9971871376037598	13015316.849698812
2.000581979751587	12264842.763718314
2.003972291946411	13796336.328177623
2.007357597351074	14272644.158742053
2.0107386112213135	14946189.500550652
2.0141148567199707	16388449.858579112
2.017486572265625	15570892.71749829
2.0208535194396973	16712843.89937862
2.0242159366607666	17339602.71867046
2.027573823928833	16439854.089554975
2.0309269428253174	15980665.224166943
2.034275770187378	17588346.14458879
2.0376198291778564	17933267.78333004
2.040959596633911	17916276.800276086
2.044294595718384	18037039.01629001
2.0476250648498535	17641328.374209974
2.0509510040283203	17425799.11291966
2.054272413253784	17935539.252278425
2.057589530944824	18067007.78569619
2.0609018802642822	17465064.07135624
2.0642096996307373	17945941.714094955
2.0675129890441895	18396030.753828023
2.0708119869232178	18766048.850344513
2.074106216430664	19061170.396063533
2.0773961544036865	19215255.948042028
2.080681324005127	19338694.97985434
2.0839622020721436	19270934.220125046
2.087238311767578	19158159.361994803
2.090510129928589	19360336.775635093
2.0937774181365967	19482557.90890341
2.0970399379730225	19567371.846797463
2.1002981662750244	19557149.815306388
2.1035518646240234	19741551.626769315
2.1068007946014404	19744712.18111004
2.1100454330444336	19308431.43291702
2.1132853031158447	18923654.10150997
2.116520881652832	19346214.31618281
2.1197516918182373	19896177.232055232
2.1229779720306396	20116422.70237295
2.12619948387146	20166451.01453114
2.1294167041778564	20191637.951051746
2.132629156112671	20275308.3096051
2.1358368396759033	20396199.274594024
2.139039993286133	20452527.23343204
2.1422386169433594	20442473.76981878
2.145432472229004	20469941.112948943
2.1486217975616455	20378339.350119054
2.151806354522705	20006450.831618056
2.1549863815307617	19572946.660787478
2.1581614017486572	20170416.62790622
2.16133189201355	20492187.104761258
2.1644976139068604	20638084.613472514
2.167658567428589	20778289.801267345
2.1708147525787354	20743319.96655647
2.173966407775879	20619600.664107073
2.1771130561828613	20863494.12021879
2.1802549362182617	21013339.78750661
2.183391809463501	20986440.646861993
2.1865241527557373	21013071.779819813
2.1896514892578125	21053946.251368813
2.1927738189697266	21100605.052848935
2.1958916187286377	20783342.614609994
2.1990041732788086	19627524.657520477
2.2021119594573975	19300001.60189693
2.2052149772644043	20217532.289443392
2.208312749862671	21117035.15783293
2.2114057540893555	21311393.50363467
2.214493751525879	20796902.154275667
2.217576742172241	20222886.791619774
2.2206547260284424	20453730.64599815
2.2237277030944824	20162402.304345325
2.2267956733703613	19663098.944601037
2.2298583984375	19693867.375470355
2.2329163551330566	19882810.644579813
2.235969066619873	20262528.30835076
2.2390167713165283	19332675.87613887
2.2420592308044434	18355127.500410102
2.2450966835021973	19243466.336825963
2.248128890991211	18970089.911154944
2.2511560916900635	18400374.415391676
2.254178285598755	17524015.344223414
2.257194995880127	17998003.030359406
2.260206699371338	19014656.55451381
2.2632133960723877	18751543.562126685
2.266214609146118	19247936.399641898
2.2692108154296875	19728545.42998578
2.2722020149230957	19939604.694081925
2.2751877307891846	19454637.122926593
2.278168201446533	19513993.67460695
2.2811436653137207	20764774.21203715
2.284113883972168	18662681.991422564
2.287078857421875	16129015.443050673
2.290038824081421	17454922.890440047
2.2929933071136475	16970861.677871224
2.295942783355713	16409930.910288274
2.298887014389038	17106072.421183348
2.301826238632202	18770736.041587535
2.304760217666626	20015515.935151495
2.3076889514923096	20431213.46180182
2.310612440109253	20740133.599061783
2.3135311603546143	19777878.71348484
2.3164443969726562	16457954.527806966
2.319352865219116	16406039.489618681
2.322256088256836	16731467.951790052
2.3251543045043945	16124979.082130108
2.328047275543213	16690701.087646257
2.330935478210449	17076426.862824935
2.3338186740875244	17379489.638768464
2.3366971015930176	17465789.749382555
2.3395702838897705	17388472.950612705
2.3424389362335205	17030272.280788653
2.3453025817871094	15899847.144256983
2.348161458969116	14891679.274007214
2.351015567779541	15918805.627431631
2.353865146636963	16897263.435326036
2.3567099571228027	16625722.410725933
2.3595502376556396	17123351.55342986
2.3623859882354736	18720013.480767883
2.3652172088623047	20084616.087024547
2.368043899536133	17306044.295411024
2.370866537094116	14048014.589559939
2.3736846446990967	13576060.761303155
2.3764986991882324	14181847.901634816
2.3793084621429443	16017694.955812765
2.3821144104003906	17366604.53326145
2.384916305541992	17139072.238346502
2.387714147567749	17477161.772467855
2.3905084133148193	20147512.887824792
2.393299102783203	21117427.779944457
2.3960859775543213	19325047.908719454
2.398869514465332	16545963.748842126
2.4016497135162354	14871249.718639007
2.4044265747070312	15468913.479116924
2.407200336456299	17544757.969445974
2.409970998764038	18441395.80633435
2.4127390384674072	17537231.274189282
2.415503978729248	15251647.118247723
2.418266534805298	14096256.81887908
2.4210267066955566	14933456.97352776
2.4237842559814453	15651842.809778126
2.426539897918701	14672601.048318503
2.429293394088745	14254615.710901793
2.4320452213287354	15445187.863629322
2.4347951412200928	14825442.272335038
2.4375438690185547	13764044.97489889
2.440291166305542	14354469.951378537
2.443037271499634	14951621.554464413
2.445782423019409	15780836.03931782
2.4485268592834473	15624405.541476471
2.451270818710327	13623714.142389301
2.454014539718628	13288401.886662412
2.4567582607269287	14726026.51854083
2.4595019817352295	15447488.884275515
2.4622461795806885	16302203.734417299
2.4649908542633057	15666265.9917415
2.4677364826202393	12326151.332557622
2.4704833030700684	11085658.278873082
2.473231554031372	11994673.58978535
2.4759814739227295	12913308.572340647
2.4787333011627197	12370146.32865445
