#wavelength	surface flux
0.7	12601.433592779511
0.7001166666666666	12616.574989699648
0.7002333527777778	12642.653760950141
0.700350058336574	12696.062621744082
0.7004667833462966	12740.853739937871
0.7005835278101878	12779.200104558451
0.7007002917314895	12813.129676929817
0.7008170751134447	12846.368866402529
0.7009338779592968	12879.792071695107
0.7010507002722901	12911.80381248649
0.7011675420556689	12941.972518524484
0.701284403312678	12976.567827479832
0.7014012840465635	13012.83154502956
0.7015181842605713	13045.680553907
0.701635103957948	13076.94666765146
0.701752043141941	13104.51540928919
0.701869001815798	13136.626976870943
0.7019859799827672	13171.898531921355
0.7021029776460976	13207.433851280386
0.7022199948090387	13242.818491672753
0.7023370314748403	13277.278588667463
0.7024540876467528	13311.96625667327
0.702571163328027	13346.917999477932
0.7026882585219152	13379.750002755647
0.7028053732316688	13412.011924918408
0.7029225074605406	13446.755344766163
0.7030396612117841	13480.81713795165
0.7031568344886527	13513.5412657567
0.7032740272944008	13549.07082632969
0.7033912396322832	13586.239255628565
0.7035084715055552	13622.081228683477
0.7036257229174727	13656.732415852577
0.7037429938712924	13687.5133951515
0.7038602843702709	13721.989882854914
0.7039775944176659	13759.962395105133
0.7040949240167356	13795.384280240307
0.7042122731707383	13830.233393357732
0.7043296418829335	13865.302053818074
0.7044470301565806	13899.247790512825
0.70456443799494	13931.510241578695
0.7046818654012724	13959.788496421234
0.7047993123788394	13986.338120673576
0.7049167789309024	14030.100642982581
0.7050342650607243	14072.662936238325
0.7051517707715678	14112.052889865621
0.7052692960666963	14149.679170158079
0.705386840949374	14186.079451582564
0.7055044054228656	14221.637681271217
0.7056219894904361	14257.546474612634
0.7057395931553511	14295.424597451198
0.705857216420877	14332.833103083847
0.7059748592902804	14369.745291326191
0.7060925217668288	14405.684135168982
0.70621020385379	14441.451247179746
0.7063279055544321	14478.15643246249
0.7064456268720246	14514.484759612586
0.7065633678098366	14550.213905607643
0.7066811283711383	14585.305591832597
0.7067989085592001	14620.112554891073
0.7069167083772933	14652.4061210996
0.7070345278286895	14686.436543820773
0.707152366916661	14724.707027745135
0.7072702256444803	14759.726241236907
0.7073881040154211	14792.54130483952
0.7075060020327569	14835.576409086183
0.7076239196997625	14878.874180066676
0.7077418570197124	14918.67712298068
0.7078598139958823	14957.742636961148
0.7079777906315483	14996.09126533893
0.7080957869299869	15033.620560687925
0.7082138028944751	15071.122342969165
0.7083318385282908	15109.82136071272
0.7084498938347124	15148.484135826098
0.708567968817018	15187.095021549147
0.7086860634784875	15220.256051778648
0.7088041778224007	15250.900244308985
0.7089223118520377	15268.148730689794
0.7090404655706796	15300.40060148915
0.709158638981608	15361.461495299161
0.709276832088105	15401.07730743492
0.7093950448934531	15429.147787789208
0.7095132774009353	15401.900039642933
0.7096315296138355	15405.740357573006
0.7097498015354378	15501.774625608768
0.7098680931690269	15577.22024401116
0.7099864045178884	15637.486098554187
0.7101047355853081	15682.490172368149
0.7102230863745722	15724.835681911969
0.7103414568889679	15764.368043754192
0.7104598471317828	15803.441687698682
0.7105782571063047	15842.066600087253
0.7106966868158224	15874.99512774107
0.710815136263625	15908.610434968454
0.7109336054530023	15955.638624790156
0.7110520943872445	16000.923033340849
0.7111706030696424	16043.982169995985
0.7112891315034873	16085.803016845693
0.7114076796920712	16127.128196816668
0.7115262476386865	16167.13484108344
0.7116448353466263	16207.212492763541
0.711763442819184	16247.402677838392
0.711882070059654	16288.396124663024
0.7120007170713306	16329.738611144921
0.7121193838575091	16369.003616310873
0.7122380704214853	16408.95516480116
0.7123567767665555	16450.35354625601
0.7124755028960166	16490.208143117532
0.7125942488131658	16529.18151234345
0.7127130145213015	16568.294539922368
0.7128318000237216	16608.180992941994
0.7129506053237256	16650.153689691717
0.7130694304246129	16686.88076726384
0.7131882753296837	16719.87649152346
0.7133071400422386	16733.029284231994
0.7134260245655789	16755.010790463097
0.7135449289030065	16816.24860885809
0.7136638530578235	16878.755436894728
0.7137827970333332	16942.35853887311
0.7139017608328388	16986.298435458106
0.7140207444596443	17026.841185039393
0.7141397479170543	17067.021239764697
0.7142587712083737	17103.357891707892
0.7143778143369084	17135.75283041734
0.7144968773059646	17187.599620850764
0.7146159601188489	17242.34100987581
0.7147350627788687	17286.95742623786
0.7148541852893318	17330.93938982528
0.7149733276535467	17374.15929733645
0.7150924898748222	17413.93081629395
0.715211671956468	17453.456535845366
0.7153308739017941	17499.84540300391
0.715450095714111	17546.00383492482
0.71556933739673	17591.84126354164
0.7156885989529628	17625.44387597278
0.7158078803861218	17653.946320315998
0.7159271816995193	17670.178801031092
0.7160465028964692	17703.91209069419
0.7161658439802853	17765.055629412123
0.7162852049542819	17800.79091321703
0.7164045858217744	17825.940710927334
0.716523986586078	17841.07302030005
0.7166434072505089	17833.79433581627
0.716762847818384	17787.25805139744
0.7168823082930204	17844.06763222488
0.7170017886777359	17947.602616417927
0.7171212889758488	18054.87785251016
0.7172408091906781	18138.17181802154
0.7173603493255433	18175.183415921976
0.7174799093837642	18199.599815451675
0.7175994893686615	18217.766501016165
0.7177190892835562	18285.95167860104
0.7178387091317702	18359.11155748429
0.7179583489166254	18442.211428783863
0.7180780086414448	18495.327471034205
0.7181976883095517	18532.43306288626
0.7183173879242699	18588.691561272164
0.718437107488924	18639.605556123744
0.7185568470068389	18677.76704801284
0.7186766064813399	18702.84109960207
0.7187963859157535	18720.542266948625
0.7189161853134061	18802.267874377547
0.719036004677625	18877.27622511492
0.7191558440117378	18931.988323453123
0.7192757033190732	18978.134253339656
0.7193955826029597	19019.28527471044
0.7195154818667269	19063.868840496267
0.7196354011137046	19110.102141943215
0.7197553403472235	19159.951759671756
0.7198752995706147	19210.677524088722
0.7199952787872098	19261.926537528296
0.720115278000341	19279.946737520637
0.7202352972133411	19271.59591220333
0.7203553364295432	19203.197376077842
0.7204753956522815	19274.429977620093
0.7205954748848902	19428.41097000466
0.7207155741307044	19505.145949960475
0.7208356933930594	19573.88304597448
0.7209558326752915	19630.839226783104
0.7210759919807375	19680.31622919631
0.7211961713127342	19725.448259314267
0.7213163706746197	19762.409850965374
0.7214365900697322	19800.733526872653
0.7215568295014103	19842.77833645717
0.721677088972994	19900.927699205513
0.7217973684878227	19968.103022247968
0.7219176680492374	20002.06684304576
0.7220379876605789	20044.165183167643
0.722158327325189	20105.50226809276
0.7222786870464099	20167.200873388392
0.7223990668275843	20229.095840028127
0.7225194666720555	20276.982633232838
0.7226398865831676	20325.879688886962
0.7227603265642646	20377.030057209657
0.722880786618692	20415.88704187647
0.7230012667497951	20448.965427510502
0.7231217669609201	20506.264591008676
0.7232422872554135	20557.157862150416
0.7233628276366229	20596.188824016474
0.7234833881078956	20647.581690259216
0.7236039686725803	20703.295315710762
0.7237245693340255	20723.856764220876
0.7238451900955812	20764.181729289747
0.7239658309605971	20837.502173504483
0.7240864919324239	20904.895104436062
0.7242071730144127	20969.055347299844
0.724327874209915	21019.02934703897
0.7244485955222832	21069.800327448163
0.7245693369548704	21121.750486710058
0.7246900985110294	21175.43833510804
0.7248108801941148	21230.123000729167
0.7249316820074803	21288.851145300803
0.7250525039544815	21343.463564008587
0.7251733460384739	21392.716083456682
0.7252942082628137	21437.786234070474
0.7254150906308574	21481.437751821504
0.7255359931459625	21523.411491765964
0.7256569158114868	21573.50776809547
0.7257778586307888	21632.740556865538
0.7258988216072273	21679.880747101564
0.7260198047441617	21726.490823520304
0.7261408080449525	21784.217488436614
0.72626183151296	21822.695800775422
0.7263828751515454	21842.741593582134
0.7265039389640706	21918.772719547727
0.726625022953898	21996.493030262816
0.7267461271243904	22045.24323087358
0.7268672514789111	22093.793183604295
0.7269883960208241	22142.18427970994
0.7271095607534942	22207.377181372824
0.7272307456802866	22273.388949985692
0.7273519508045666	22336.555076882727
0.7274731761297006	22390.66783333405
0.7275944216590555	22438.837044537224
0.7277156873959987	22480.437621473047
0.7278369733438982	22512.5799589518
0.727958279506122	22523.863427688975
0.7280796058860397	22594.913710580255
0.7282009524870207	22697.05537332362
0.7283223193124353	22767.89078505093
0.7284437063656539	22833.932837119657
0.7285651136500483	22891.44410210296
0.7286865411689898	22942.19288174056
0.7288079889258514	22988.587182738516
0.7289294569240056	23011.800074371356
0.7290509451668262	23051.323080899703
0.7291724536576875	23113.435473780773
0.7292939823999636	23175.929320398714
0.7294155313970303	23238.61320356391
0.7295371006522632	23301.791118425837
0.7296586901690385	23353.741080222368
0.7297802999507332	23393.653201594443
0.7299019300007252	23448.67496606364
0.7300235803223919	23500.460344809533
0.7301452509191123	23526.609979482353
0.7302669417942654	23566.74491124398
0.7303886529512311	23618.322902106902
0.7305103843933897	23607.92925029843
0.7306321361241218	23635.840084430038
0.7307539081468093	23788.368169418343
0.7308757004648336	23896.663512141713
0.7309975130815778	23978.024879761062
0.7311193460004248	24031.58266916407
0.7312411992247582	24089.534660521695
0.7313630727579622	24157.217747727544
0.7314849666034219	24215.96461842642
0.7316068807645224	24269.93472544531
0.7317288152446498	24308.91108647848
0.7318507700471907	24349.982598977567
0.7319727451755319	24393.98995152715
0.732094740633061	24472.55489369115
0.7322167564231665	24553.636600572056
0.7323387925492371	24588.004624959234
0.7324608490146619	24648.036718137144
0.732582925822831	24733.892601587617
0.7327050229771347	24800.666390504164
0.7328271404809642	24861.07293210848
0.7329492783377112	24910.03302945522
0.7330714365507675	24969.4406580648
0.7331936151235259	25036.27162697063
0.7333158140593796	25071.44738420527
0.7334380333617229	25080.432167700128
0.7335602730339499	25035.28823883183
0.7336825330794556	25134.333400640462
0.7338048135016354	25299.059798884104
0.7339271143038857	25372.155419227714
0.734049435489603	25413.60493252641
0.7341717770621846	25408.377866767212
0.7342941390250283	25463.24069260344
0.7344165213815324	25534.34774362031
0.734538924135096	25594.039062513588
0.7346613472891185	25660.882474441714
0.734783790847	25734.848756892236
0.7349062548121412	25776.562370374966
0.7350287391879431	25798.141490313465
0.7351512439778078	25770.07392269474
0.7352737691851374	25854.738914895297
0.735396314813335	26013.941484039886
0.7355188808658037	26086.67128096141
0.7356414673459482	26161.37610803249
0.7357640742571725	26245.181033044923
0.7358867016028818	26306.96400537045
0.7360093493864824	26359.952439359542
0.7361320176113801	26416.919186308613
0.736254706280982	26470.07699521325
0.7363774153986956	26518.49778408435
0.7365001449679286	26532.167111426836
0.7366228949920899	26550.35973216751
0.7367456654745885	26622.47720632017
0.7368684564188344	26731.49240944933
0.7369912678282374	26869.807207489182
0.7371140997062088	26954.640857910435
0.7372369520561599	27028.06005705364
0.7373598248815024	27084.441647758184
0.7374827181856494	27143.18719670655
0.7376056319720137	27203.409362929986
0.7377285662440091	27270.3701147862
0.7378515210050496	27324.424310974187
0.7379744962585505	27360.57414764646
0.738097492007927	27398.829506441678
0.7382205082565949	27439.984532285747
0.738343545007971	27492.86443891143
0.7384666022654723	27556.959147679572
0.7385896800325165	27630.56480806086
0.7387127783125219	27704.53790613153
0.7388358971089073	27776.84678490301
0.7389590364250921	27845.014416393897
0.7390821962644963	27912.991770333
0.7392053766305403	27980.990859513924
0.7393285775266454	28051.431799766182
0.7394517989562333	28121.042256577
0.7395750409227259	28189.502829986934
0.7396983034295463	28230.969343548302
0.739821586480118	28246.436645624228
0.7399448900778645	28171.68131829248
0.7400682142262109	28240.144322856766
0.740191558928582	28424.353442504176
0.7403149241884034	28515.215375566415
0.7404383100091014	28593.910349036985
0.7405617163941028	28660.796809781365
0.7406851433468352	28732.81229191008
0.7408085908707264	28803.823427254112
0.7409320589692048	28830.479702153963
0.7410555476456997	28894.133202310968
0.7411790569036406	29003.051194503576
0.7413025867464579	29066.367232449516
0.7414261371775823	29115.79398256161
0.7415497082004452	29148.138059735626
0.7416732998184786	29200.161310711286
0.741796912035115	29265.69387769819
0.7419205448537874	29322.239491858476
0.7420441982779297	29387.06530751543
0.742167872310976	29467.187263920827
0.7422915669563612	29554.697094964904
0.7424152822175206	29641.73959933421
0.7425390180978901	29707.011544800098
0.7426627746009065	29767.12375381137
0.7427865517300065	29822.22219017547
0.7429103494886282	29913.60235260139
0.7430341678802096	30004.22271891552
0.7431580069081896	30081.221763661317
0.7432818665760077	30150.78238983777
0.7434057468871037	30216.514896695142
0.7435296478449182	30281.90905953987
0.7436535694528923	30347.078580495425
0.7437775117144678	30411.94957826757
0.7439014746330868	30464.552430280644
0.7440254582121922	30515.010866918627
0.7441494624552276	30567.678106810363
0.7442734873656368	30611.6662594923
0.7443975329468645	30649.68606942857
0.7445215992023557	30720.489338787826
0.7446456861355559	30781.08130572618
0.7447697937499119	30822.9952825781
0.7448939220488703	30892.758223705718
0.7450180710358784	30972.57474289568
0.7451422407143843	31058.78171350062
0.7452664310878367	31138.689339865865
0.7453906421596846	31213.1198385089
0.7455148739333779	31288.46560483751
0.7456391264123667	31363.77392749472
0.7457633996001021	31438.82592604223
0.7458876935000356	31508.64370108379
0.7460120081156189	31575.69089932338
0.7461363434503048	31637.211324991295
0.7462606995075466	31701.63580894158
0.7463850762907978	31769.106315814315
0.7465094738035127	31842.590646732453
0.7466338920491467	31918.897638169146
0.746758331031155	32000.53887620686
0.7468827907529935	32074.22719349876
0.7470072712181189	32144.275599052984
0.7471317724299886	32220.108517137105
0.7472562943920602	32293.35158194676
0.7473808371077922	32363.452164831302
0.7475054005806435	32415.91137111835
0.7476299848140736	32467.910674885505
0.7477545898115426	32528.568941225287
0.7478792155765113	32593.711367996657
0.7480038621124406	32660.64768722076
0.7481285294227926	32703.130490793446
0.7482532175110298	32767.92251893678
0.7483779263806148	32862.681890862696
0.7485026560350116	32938.612452781694
0.7486274064776842	33010.94334311149
0.748752177712097	33084.85082553573
0.7488769697417158	33159.789886107545
0.749001782570006	33235.31991970206
0.7491266162004343	33307.07266997759
0.7492514706364677	33377.547979259565
0.7493763458815739	33446.1963778239
0.7495012419392209	33516.05386196702
0.7496261588128773	33585.128705256786
0.7497510965060128	33650.15912787578
0.7498760550220971	33715.64855095996
0.7500010343646007	33781.38787886431
0.7501260345369949	33841.23844909532
0.750251055542751	33901.147549546295
0.7503760973853414	33961.13698961543
0.7505011600682389	34025.23624516206
0.750626243594917	34087.99062089199
0.7507513479688495	34141.99953702404
0.7508764731935109	34191.57156127355
0.7510016192723765	34238.59128955765
0.7511267862089218	34306.09560912274
0.7512519740066232	34372.95068185539
0.7513771826689577	34438.886324444014
0.7515024121994025	34503.78656152051
0.7516276626014359	34568.03629412337
0.751752933878536	34630.78607252318
0.7518782260341824	34688.760465088104
0.7520035390718548	34744.14771184688
0.7521288729950334	34809.28898505506
0.7522542278071992	34871.837693946014
0.7523796035118337	34930.98152421625
0.7525050001124189	34991.163343578606
0.7526304176124378	35048.92261325934
0.7527558560153731	35098.46888083363
0.752881315324709	35159.98942960369
0.7530067955439299	35227.56751503557
0.7531322966765205	35287.298998943625
0.7532578187259665	35346.39263850453
0.7533833616957542	35404.7374541972
0.75350892558937	35455.7731361698
0.7536345104103016	35506.02940451775
0.7537601161620366	35557.165650434596
0.7538857428480638	35597.63825150152
0.7540113904718717	35633.410019624105
0.7541370590369503	35671.77091137613
0.7542627485467898	35718.25159890649
0.7543884590048808	35772.87967136373
0.7545141904147151	35830.95839366269
0.7546399427797842	35885.01331506045
0.7547657161035808	35929.66312638241
0.754891510389598	35972.15521142916
0.7550173256413296	36013.74655423759
0.7551431618622698	36054.74033949065
0.7552690190559135	36093.76333032619
0.7553948972257561	36131.1639508772
0.7555207963752938	36167.883688331836
0.755646716508023	36204.31321623394
0.755772657627441	36240.29555892012
0.7558986197370455	36272.80884640919
0.756024602840335	36303.34512668379
0.7561506069408084	36329.68763218746
0.7562766320419653	36353.324731053974
0.7564026781473054	36375.20251409546
0.75652874526033	36396.32978912493
0.7566548333845401	36416.79367921439
0.7567809425234375	36436.39420609318
0.7569070726805247	36449.65995209587
0.7570332238593047	36460.76247174664
0.7571593960632813	36468.9654068732
0.7572855892959586	36469.63316520073
0.7574118035608413	36466.57342119111
0.7575380388614347	36462.043010948415
0.7576642952012449	36458.64132411104
0.7577905725837782	36456.32772756346
0.7579168710125422	36447.043830758535
0.7580431904910444	36435.12705356135
0.7581695310227928	36419.22539055298
0.7582958926112967	36398.72256756958
0.7584222752600652	36375.040182223136
0.7585486789726085	36343.338239040066
0.7586751037524372	36306.275304911695
0.7588015496030628	36265.48932950926
0.7589280165279966	36220.141027730766
0.7590545045307512	36168.811017294654
0.7591810136148396	36109.58114868605
0.7593075437837755	36047.587746429475
0.7594340950410726	35980.215853927875
0.7595606673902461	35899.59209753776
0.7596872608348112	35812.86702101399
0.7598138753782836	35722.27986835423
0.75994051102418	35622.71357493936
0.7600671677760173	35515.164298234464
0.7601938456373134	35400.54027073435
0.7603205446115863	35268.430131291294
0.7604472647023548	35129.44762640337
0.7605740059131385	34980.423741741535
0.7607007682474575	34816.54194983496
0.7608275517088319	34644.55828924628
0.7609543563007835	34457.245053986946
0.7610811820268336	34255.52194821188
0.7612080288905045	34044.16315401039
0.7613348968953197	33810.32327034134
0.7614617860448022	33562.15149099944
0.7615886963424764	33298.87558415963
0.7617156277918667	33010.82998752725
0.7618425803964988	32710.3598143376
0.7619695541598982	32390.1027224183
0.7620965490855914	32042.401691390947
0.7622235651771058	31678.854026911544
0.7623506024379685	31283.852591724743
0.7624776608717082	30864.503012619276
0.7626047404818536	30427.845132701077
0.7627318412719337	29944.895031129992
0.762858963245479	29440.885608294822
0.7629861064060198	28912.537605567577
0.7631132707570876	28339.21282561241
0.7632404563022137	27742.55422188083
0.7633676630449308	27107.777736251104
0.7634948909887717	26432.332165395273
0.7636221401372697	25733.24432901428
0.7637494104939593	24987.962042542764
0.7638767020623748	24208.37659695324
0.7640040148460518	23404.556901434964
0.7641313488485262	22552.76230720323
0.7642587040733344	21679.424242194546
0.7643860805240132	20780.908578741743
0.7645134782041005	19861.047754362713
0.7646408971171346	18933.964855378603
0.764768337266654	17997.27241386899
0.7648957986561985	17076.061554958116
0.7650232812893079	16167.110197735537
