#wavelength	surface flux
0.7	8239.233656386017
0.7001166666666666	8256.91026565151
0.7002333527777778	8277.351592954044
0.700350058336574	8304.697881814613
0.7004667833462966	8330.662596510656
0.7005835278101878	8355.594894122722
0.7007002917314895	8377.888974615818
0.7008170751134447	8399.494349638027
0.7009338779592968	8419.594418955674
0.7010507002722901	8437.767561410195
0.7011675420556689	8453.425893810507
0.701284403312678	8478.439945458624
0.7014012840465635	8506.980476810984
0.7015181842605713	8528.763816782055
0.701635103957948	8548.021733340685
0.701752043141941	8561.387487101134
0.701869001815798	8579.345864216846
0.7019859799827672	8600.498130809521
0.7021029776460976	8629.600330950676
0.7022199948090387	8658.66894211264
0.7023370314748403	8682.304436829067
0.7024540876467528	8706.62076285219
0.702571163328027	8731.7293067492
0.7026882585219152	8753.590216808307
0.7028053732316688	8774.497084043755
0.7029225074605406	8797.590463269255
0.7030396612117841	8819.700169946338
0.7031568344886527	8839.883759247368
0.7032740272944008	8863.671713494663
0.7033912396322832	8889.563735584976
0.7035084715055552	8914.550316015308
0.7036257229174727	8938.728371871455
0.7037429938712924	8960.279752042507
0.7038602843702709	8982.610795823282
0.7039775944176659	9005.679552979049
0.7040949240167356	9030.277566322633
0.7042122731707383	9055.080922179959
0.7043296418829335	9078.528023433431
0.7044470301565806	9101.39293695192
0.70456443799494	9123.384703661332
0.7046818654012724	9144.680627183769
0.7047993123788394	9165.676185677688
0.7049167789309024	9191.052564688707
0.7050342650607243	9216.86178397101
0.7051517707715678	9243.653843527172
0.7052692960666963	9268.806195042438
0.705386840949374	9292.818223007966
0.7055044054228656	9315.478055239973
0.7056219894904361	9338.542666151923
0.7057395931553511	9364.09802153762
0.705857216420877	9389.1531904147
0.7059748592902804	9413.679872443565
0.7060925217668288	9438.026025342782
0.70621020385379	9462.335271242851
0.7063279055544321	9486.74558591143
0.7064456268720246	9511.201330321477
0.7065633678098366	9535.726516138238
0.7066811283711383	9560.208376452441
0.7067989085592001	9584.672904928151
0.7069167083772933	9607.9422307987
0.7070345278286895	9630.46399509724
0.707152366916661	9651.203573835757
0.7072702256444803	9671.612955881234
0.7073881040154211	9691.799389360285
0.7075060020327569	9722.452238806285
0.7076239196997625	9753.423362804755
0.7077418570197124	9781.014656751002
0.7078598139958823	9807.458043146047
0.7079777906315483	9832.785341362493
0.7080957869299869	9857.580931747138
0.7082138028944751	9882.451606610925
0.7083318385282908	9908.800708283314
0.7084498938347124	9934.872202804658
0.708567968817018	9960.562731485656
0.7086860634784875	9983.959066353505
0.7088041778224007	10006.287459814326
0.7089223118520377	10022.721089434348
0.7090404655706796	10045.963734356328
0.709158638981608	10082.279514752447
0.709276832088105	10109.52217515075
0.7093950448934531	10131.880970345617
0.7095132774009353	10135.688904547253
0.7096315296138355	10150.537061246961
0.7097498015354378	10197.99043627036
0.7098680931690269	10234.417928687713
0.7099864045178884	10262.715996343879
0.7101047355853081	10291.345688020858
0.7102230863745722	10319.641517093405
0.7103414568889679	10346.36931315275
0.7104598471317828	10373.735623729259
0.7105782571063047	10401.726842962311
0.7106966868158224	10426.18722972606
0.710815136263625	10450.486166967767
0.7109336054530023	10479.087692228582
0.7110520943872445	10507.734433596592
0.7111706030696424	10536.437510696069
0.7112891315034873	10564.311719670499
0.7114076796920712	10591.884862437311
0.7115262476386865	10619.019108121398
0.7116448353466263	10645.625999697768
0.711763442819184	10671.36226428599
0.711882070059654	10698.817507329883
0.7120007170713306	10727.035419762724
0.7121193838575091	10754.300277799253
0.7122380704214853	10781.886831065562
0.7123567767665555	10810.149678317124
0.7124755028960166	10836.045319465908
0.7125942488131658	10860.58719631785
0.7127130145213015	10885.396326051785
0.7128318000237216	10911.540577102156
0.7129506053237256	10941.293915153483
0.7130694304246129	10969.823624876657
0.7131882753296837	10997.483893800558
0.7133071400422386	11021.97835269974
0.7134260245655789	11044.315280625955
0.7135449289030065	11060.180035657288
0.7136638530578235	11090.903633728558
0.7137827970333332	11134.447455655516
0.7139017608328388	11165.185714781584
0.7140207444596443	11193.84867475955
0.7141397479170543	11222.923670575829
0.7142587712083737	11249.363002747165
0.7143778143369084	11273.099247166796
0.7144968773059646	11306.931197492135
0.7146159601188489	11342.01828708602
0.7147350627788687	11370.248373385779
0.7148541852893318	11398.981818646313
0.7149733276535467	11428.317753755984
0.7150924898748222	11455.181490481078
0.715211671956468	11481.965640556813
0.7153308739017941	11514.561829724593
0.715450095714111	11546.31295823766
0.71556933739673	11576.89560383
0.7156885989529628	11601.176100950335
0.7158078803861218	11621.812176347863
0.7159271816995193	11621.734407865983
0.7160465028964692	11639.698953452154
0.7161658439802853	11685.923454724538
0.7162852049542819	11714.283886073208
0.7164045858217744	11735.726582194124
0.716523986586078	11763.256066287338
0.7166434072505089	11758.975395795584
0.716762847818384	11698.971747830283
0.7168823082930204	11747.9573052314
0.7170017886777359	11845.646581419142
0.7171212889758488	11909.623160603336
0.7172408091906781	11957.04253008207
0.7173603493255433	11972.509072031058
0.7174799093837642	11994.038474271552
0.7175994893686615	12018.579050683982
0.7177190892835562	12061.415813520285
0.7178387091317702	12106.87185658547
0.7179583489166254	12157.632345392998
0.7180780086414448	12189.321153543797
0.7181976883095517	12210.826102967529
0.7183173879242699	12253.84364366804
0.718437107488924	12293.42456767084
0.7185568470068389	12324.400631991572
0.7186766064813399	12345.518769102258
0.7187963859157535	12361.083548990917
0.7189161853134061	12407.307815115695
0.719036004677625	12450.27060351623
0.7191558440117378	12483.408355347165
0.7192757033190732	12516.064768238752
0.7193955826029597	12548.442601295885
0.7195154818667269	12576.56443461313
0.7196354011137046	12605.605572967339
0.7197553403472235	12637.224811819473
0.7198752995706147	12671.654875425793
0.7199952787872098	12707.754909832225
0.720115278000341	12734.262495691284
0.7202352972133411	12756.993029980045
0.7203553364295432	12771.593246516111
0.7204753956522815	12805.635546139247
0.7205954748848902	12851.201277412005
0.7207155741307044	12888.177115468849
0.7208356933930594	12924.801629730395
0.7209558326752915	12961.383018190945
0.7210759919807375	12992.213271486218
0.7211961713127342	13019.701942677366
0.7213163706746197	13040.725442073512
0.7214365900697322	13064.694414800442
0.7215568295014103	13095.879262455297
0.721677088972994	13136.817174870892
0.7217973684878227	13183.221710957887
0.7219176680492374	13206.190042967039
0.7220379876605789	13234.75157885041
0.722158327325189	13276.570644222975
0.7222786870464099	13318.288255027639
0.7223990668275843	13359.95538760782
0.7225194666720555	13393.687593999946
0.7226398865831676	13426.694409246185
0.7227603265642646	13458.355815923152
0.722880786618692	13482.960880997261
0.7230012667497951	13504.28555704591
0.7231217669609201	13542.930277047803
0.7232422872554135	13578.676734886512
0.7233628276366229	13609.054443334337
0.7234833881078956	13647.241058581345
0.7236039686725803	13688.062645271071
0.7237245693340255	13703.889668203159
0.7238451900955812	13730.365668614288
0.7239658309605971	13774.619762461301
0.7240864919324239	13819.821120802611
0.7242071730144127	13864.620113170831
0.724327874209915	13897.06146400936
0.7244485955222832	13932.627323622311
0.7245693369548704	13972.829273734722
0.7246900985110294	14008.573214750892
0.7248108801941148	14043.093405993077
0.7249316820074803	14080.549264584779
0.7250525039544815	14117.10479099994
0.7251733460384739	14152.486580884737
0.7252942082628137	14185.129139743936
0.7254150906308574	14216.839106645066
0.7255359931459625	14247.423844147877
0.7256569158114868	14279.671940775066
0.7257778586307888	14313.790584517674
0.7258988216072273	14352.230473878282
0.7260198047441617	14391.67514548969
0.7261408080449525	14431.286305118543
0.72626183151296	14466.675180621603
0.7263828751515454	14498.020922692363
0.7265039389640706	14537.600853027427
0.726625022953898	14576.246922448543
0.7267461271243904	14606.081979883587
0.7268672514789111	14637.46433087597
0.7269883960208241	14670.087619184595
0.7271095607534942	14713.899810968785
0.7272307456802866	14757.04200240544
0.7273519508045666	14794.71340260438
0.7274731761297006	14828.909645004402
0.7275944216590555	14860.825211466417
0.7277156873959987	14892.926781680213
0.7278369733438982	14918.072323753242
0.727958279506122	14927.325074921968
0.7280796058860397	14973.453891579398
0.7282009524870207	15038.783086542402
0.7283223193124353	15086.926409067672
0.7284437063656539	15132.113548914582
0.7285651136500483	15172.038965059963
0.7286865411689898	15208.173366036559
0.7288079889258514	15242.235041751452
0.7289294569240056	15268.524337800507
0.7290509451668262	15300.085480757783
0.7291724536576875	15338.946886803693
0.7292939823999636	15382.93282720804
0.7294155313970303	15427.903784236327
0.7295371006522632	15469.31386962717
0.7296586901690385	15507.19360121702
0.7297802999507332	15541.28807166183
0.7299019300007252	15563.581757485154
0.7300235803223919	15586.679443774952
0.7301452509191123	15622.603183102998
0.7302669417942654	15658.16933513728
0.7303886529512311	15693.44401184251
0.7305103843933897	15687.449587631178
0.7306321361241218	15704.737786621565
0.7307539081468093	15798.804768906435
0.7308757004648336	15863.453754691687
0.7309975130815778	15910.189203907488
0.7311193460004248	15953.087847242672
0.7312411992247582	15996.845051031747
0.7313630727579622	16042.433483187091
0.7314849666034219	16082.54255143061
0.7316068807645224	16119.732588812389
0.7317288152446498	16147.888908781508
0.7318507700471907	16180.019543344266
0.7319727451755319	16217.722273121148
0.732094740633061	16269.790185538419
0.7322167564231665	16322.367427647423
0.7323387925492371	16352.142040389817
0.7324608490146619	16392.72478676868
0.732582925822831	16444.182916238486
0.7327050229771347	16490.378573122067
0.7328271404809642	16534.36510923728
0.7329492783377112	16573.59985204913
0.7330714365507675	16614.51278063267
0.7331936151235259	16656.619635019728
0.7333158140593796	16691.235792214895
0.7334380333617229	16723.47702660749
0.7335602730339499	16751.368400882122
0.7336825330794556	16798.35271275764
0.7338048135016354	16853.540324457637
0.7339271143038857	16884.472624426195
0.734049435489603	16891.879019846514
0.7341717770621846	16864.58761980968
0.7342941390250283	16904.43833736228
0.7344165213815324	16963.160046583325
0.734538924135096	17013.75509768658
0.7346613472891185	17063.644902875563
0.734783790847	17112.832383779543
0.7349062548121412	17143.574020122393
0.7350287391879431	17156.712095440107
0.7351512439778078	17121.59042609627
0.7352737691851374	17181.280582407824
0.735396314813335	17303.658665082014
0.7355188808658037	17358.62351833569
0.7356414673459482	17413.560317806645
0.7357640742571725	17472.524050608732
0.7358867016028818	17518.062736958007
0.7360093493864824	17557.753875181967
0.7361320176113801	17593.96916031023
0.736254706280982	17626.764768905337
0.7363774153986956	17655.30807041297
0.7365001449679286	17641.343133597442
0.7366228949920899	17634.08798395442
0.7367456654745885	17697.94012640706
0.7368684564188344	17792.496592769654
0.7369912678282374	17911.43475268431
0.7371140997062088	17974.34178693521
0.7372369520561599	18026.86989839743
0.7373598248815024	18065.226286469682
0.7374827181856494	18106.843843353374
0.7376056319720137	18149.9980806426
0.7377285662440091	18192.090616910544
0.7378515210050496	18223.43275502031
0.7379744962585505	18239.86250157083
0.738097492007927	18262.873609438768
0.7382205082565949	18289.985018884443
0.738343545007971	18328.975185465617
0.7384666022654723	18378.223403133667
0.7385896800325165	18436.170941397904
0.7387127783125219	18485.29863322979
0.7388358971089073	18533.887864514574
0.7389590364250921	18583.120550091466
0.7390821962644963	18633.522603952013
0.7392053766305403	18684.637662918605
0.7393285775266454	18738.518627785255
0.7394517989562333	18790.58159043992
0.7395750409227259	18840.133694008124
0.7396983034295463	18887.18960215003
0.739821586480118	18930.5743679186
0.7399448900778645	18959.628015920265
0.7400682142262109	18995.679215652177
0.740191558928582	19037.38673944481
0.7403149241884034	19078.81104965473
0.7404383100091014	19121.378552387312
0.7405617163941028	19166.52429354004
0.7406851433468352	19215.264642743987
0.7408085908707264	19262.21869594485
0.7409320589692048	19263.61502075831
0.7410555476456997	19306.645076489298
0.7411790569036406	19400.6132512764
0.7413025867464579	19445.695278591724
0.7414261371775823	19477.03688297856
0.7415497082004452	19494.356812654685
0.7416732998184786	19529.23787181951
0.741796912035115	19576.17365293713
0.7419205448537874	19616.480152589607
0.7420441982779297	19664.56918333596
0.742167872310976	19726.952869167886
0.7422915669563612	19793.212268857365
0.7424152822175206	19859.03619093215
0.7425390180978901	19912.076324584355
0.7426627746009065	19959.220626303206
0.7427865517300065	20000.63578134647
0.7429103494886282	20066.79749476597
0.7430341678802096	20132.16687591353
0.7431580069081896	20187.52541578268
0.7432818665760077	20238.453800575895
0.7434057468871037	20287.0299425863
0.7435296478449182	20333.903824592177
0.7436535694528923	20383.429669424077
0.7437775117144678	20436.436880205893
0.7439014746330868	20472.938965599405
0.7440254582121922	20507.493215153947
0.7441494624552276	20548.65834514429
0.7442734873656368	20582.577673051695
0.7443975329468645	20611.514138625465
0.7445215992023557	20657.070838608823
0.7446456861355559	20692.29275399403
0.7447697937499119	20709.190613233237
0.7448939220488703	20756.483243762083
0.7450180710358784	20814.48759603903
0.7451422407143843	20877.949114036448
0.7452664310878367	20940.900132697505
0.7453906421596846	21003.408511845613
0.7455148739333779	21063.804376277076
0.7456391264123667	21123.1704226388
0.7457633996001021	21180.659925250617
0.7458876935000356	21236.50779023893
0.7460120081156189	21291.52287070253
0.7461363434503048	21345.117693487136
0.7462606995075466	21395.440683648223
0.7463850762907978	21442.330896429117
0.7465094738035127	21490.27354363998
0.7466338920491467	21543.253865568266
0.746758331031155	21609.299130159758
0.7468827907529935	21667.757862685325
0.7470072712181189	21722.593858934375
0.7471317724299886	21780.535036697067
0.7472562943920602	21836.945452290653
0.7473808371077922	21891.498004338282
0.7475054005806435	21927.733261738944
0.7476299848140736	21963.585608175716
0.7477545898115426	22008.732045701938
0.7478792155765113	22061.39307919923
0.7480038621124406	22117.614304703162
0.7481285294227926	22150.30034969598
0.7482532175110298	22204.124149286265
0.7483779263806148	22286.342123314353
0.7485026560350116	22345.988658349812
0.7486274064776842	22400.47519830194
0.748752177712097	22453.859770809508
0.7488769697417158	22515.680940787457
0.749001782570006	22582.66671853092
0.7491266162004343	22643.94752190671
0.7492514706364677	22701.553601000534
0.7493763458815739	22753.914638443654
0.7495012419392209	22809.318367580196
0.7496261588128773	22864.749602287906
0.7497510965060128	22917.582020510676
0.7498760550220971	22974.714930475293
0.7500010343646007	23034.580899259152
0.7501260345369949	23090.084336557982
0.750251055542751	23142.183606660237
0.7503760973853414	23189.34563067236
0.7505011600682389	23241.66986181718
0.750626243594917	23293.63409237608
0.7507513479688495	23339.629629057745
0.7508764731935109	23380.334427682155
0.7510016192723765	23417.907193089974
0.7511267862089218	23473.23118867736
0.7512519740066232	23529.186537499758
0.7513771826689577	23586.02773258107
0.7515024121994025	23646.900956054702
0.7516276626014359	23707.13853623823
0.751752933878536	23761.94483809747
0.7518782260341824	23813.528945416165
0.7520035390718548	23863.566896602926
0.7521288729950334	23927.026410086342
0.7522542278071992	23988.13206885091
0.7523796035118337	24046.14612786318
0.7525050001124189	24102.058834378528
0.7526304176124378	24155.55918151324
0.7527558560153731	24202.78498442713
0.752881315324709	24264.07249833181
0.7530067955439299	24332.620150775525
0.7531322966765205	24394.527182885122
0.7532578187259665	24453.981786566826
0.7533833616957542	24510.562045265393
0.75350892558937	24565.63861689901
0.7536345104103016	24621.042135595875
0.7537601161620366	24677.90378853251
0.7538857428480638	24728.170890262485
0.7540113904718717	24775.783487885205
0.7541370590369503	24827.512739601672
0.7542627485467898	24880.413340740273
0.7543884590048808	24934.489246373116
0.7545141904147151	24999.927162177184
0.7546399427797842	25063.52405052134
0.7547657161035808	25120.686493537658
0.754891510389598	25176.06040794129
0.7550173256413296	25230.795824221997
0.7551431618622698	25285.70330628847
0.7552690190559135	25340.723975353358
0.7553948972257561	25395.839503674946
0.7555207963752938	25451.66102781986
0.755646716508023	25508.36799238408
0.755772657627441	25566.520145296905
0.7558986197370455	25623.21505884938
0.756024602840335	25679.333517514955
0.7561506069408084	25734.72307509703
0.7562766320419653	25788.97845178531
0.7564026781473054	25842.542394700686
0.75652874526033	25897.80294881023
0.7566548333845401	25952.22504422439
0.7567809425234375	26005.554500034214
0.7569070726805247	26059.06411262827
0.7570332238593047	26112.6052217569
0.7571593960632813	26166.133125622095
0.7572855892959586	26211.901598083346
0.7574118035608413	26254.444070564216
0.7575380388614347	26301.378720526725
0.7576642952012449	26353.66201613721
0.7577905725837782	26411.101822576857
0.7579168710125422	26463.752470415515
0.7580431904910444	26516.03222774507
0.7581695310227928	26568.33511539878
0.7582958926112967	26617.53728280772
0.7584222752600652	26666.058440377023
0.7585486789726085	26715.985109034256
0.7586751037524372	26766.01550431254
0.7588015496030628	26816.08006875876
0.7589280165279966	26862.978946514133
0.7590545045307512	26908.765748668855
0.7591810136148396	26953.08090757924
0.7593075437837755	26998.837343034556
0.7594340950410726	27044.147117255983
0.7595606673902461	27087.54564458663
0.7596872608348112	27128.68602770696
0.7598138753782836	27168.759138517227
0.75994051102418	27208.409480151327
0.7600671677760173	27247.795328827688
0.7601938456373134	27286.947593478944
0.7603205446115863	27322.407800452882
0.7604472647023548	27355.61019114135
0.7605740059131385	27385.32953587622
0.7607007682474575	27415.468507223875
0.7608275517088319	27444.49726448599
0.7609543563007835	27469.12809743887
0.7610811820268336	27490.841769771636
0.7612080288905045	27510.664023911817
0.7613348968953197	27526.75501497241
0.7614617860448022	27540.325159498057
0.7615886963424764	27551.238115452863
0.7617156277918667	27554.357774954882
0.7618425803964988	27556.255235993725
0.7619695541598982	27557.240293079303
0.7620965490855914	27549.228755597716
0.7622235651771058	27536.557696505362
0.7623506024379685	27515.890465022763
0.7624776608717082	27488.17222794324
0.7626047404818536	27455.47497577136
0.7627318412719337	27410.100750221176
0.762858963245479	27356.37158851963
0.7629861064060198	27292.982693759594
0.7631132707570876	27213.575201825613
0.7632404563022137	27124.043246385845
0.7633676630449308	27017.027292428418
0.7634948909887717	26889.058740364333
0.7636221401372697	26747.95194120743
0.7637494104939593	26578.419684802146
0.7638767020623748	26382.26055649317
0.7640040148460518	26166.753375029977
0.7641313488485262	25896.87159748411
0.7642587040733344	25593.261508744956
0.7643860805240132	25250.203469553708
0.7645134782041005	24839.17071828689
0.7646408971171346	24384.4016333519
0.764768337266654	23854.788569290118
0.7648957986561985	23220.499458661423
0.7650232812893079	22525.01212689478
