#wavelength	surface flux
0.7	5086.996823083461
0.7001166666666666	5093.206646473673
0.7002333527777778	5104.405392194796
0.700350058336574	5128.070530087492
0.7004667833462966	5147.668028686337
0.7005835278101878	5164.223490274594
0.7007002917314895	5179.033695840896
0.7008170751134447	5192.9347612631855
0.7009338779592968	5203.191058837733
0.7010507002722901	5207.770245895917
0.7011675420556689	5204.94278538095
0.701284403312678	5225.643946717249
0.7014012840465635	5255.231076043613
0.7015181842605713	5269.760803680311
0.701635103957948	5278.5269605730255
0.701752043141941	5273.85371366341
0.701869001815798	5276.7139621709575
0.7019859799827672	5284.811945835842
0.7021029776460976	5317.655038505861
0.7022199948090387	5350.883586176617
0.7023370314748403	5369.609802731842
0.7024540876467528	5386.592624943553
0.702571163328027	5401.544655653204
0.7026882585219152	5412.492068464247
0.7028053732316688	5422.447933482964
0.7029225074605406	5438.979889881888
0.7030396612117841	5454.787451652626
0.7031568344886527	5469.176660471777
0.7032740272944008	5484.168197829039
0.7033912396322832	5499.51211304694
0.7035084715055552	5515.336341763215
0.7036257229174727	5530.718084286971
0.7037429938712924	5544.380927879552
0.7038602843702709	5557.788645247694
0.7039775944176659	5570.955150801668
0.7040949240167356	5587.575168295351
0.7042122731707383	5604.806558848747
0.7043296418829335	5620.275403315819
0.7044470301565806	5635.130664379508
0.70456443799494	5649.066456879831
0.7046818654012724	5663.047011388792
0.7047993123788394	5677.048334559328
0.7049167789309024	5692.32203296859
0.7050342650607243	5707.823124476831
0.7051517707715678	5723.854818620337
0.7052692960666963	5739.533284698893
0.705386840949374	5754.966620445024
0.7055044054228656	5769.466410304846
0.7056219894904361	5783.966910394916
0.7057395931553511	5798.97549948819
0.705857216420877	5814.527785865367
0.7059748592902804	5830.654132794126
0.7060925217668288	5846.191907029909
0.70621020385379	5861.5987504028735
0.7063279055544321	5877.294372684251
0.7064456268720246	5892.83980964219
0.7065633678098366	5908.14635792002
0.7066811283711383	5923.349499280585
0.7067989085592001	5938.507322916907
0.7069167083772933	5953.036721181679
0.7070345278286895	5967.208769762421
0.707152366916661	5980.5293967661855
0.7072702256444803	5993.2197547368505
0.7073881040154211	6005.483147631878
0.7075060020327569	6025.422321749902
0.7076239196997625	6045.519228155409
0.7077418570197124	6062.841044303572
0.7078598139958823	6079.340363457632
0.7079777906315483	6095.039973455164
0.7080957869299869	6110.600468156583
0.7082138028944751	6126.3520605734175
0.7083318385282908	6143.777935283862
0.7084498938347124	6160.459226860596
0.708567968817018	6176.12196332425
0.7086860634784875	6190.835234733595
0.7088041778224007	6205.031563957813
0.7089223118520377	6214.729915762392
0.7090404655706796	6228.859380754451
0.709158638981608	6251.496622671741
0.709276832088105	6269.538272267177
0.7093950448934531	6285.106539851708
0.7095132774009353	6289.815775975512
0.7096315296138355	6300.365502130231
0.7097498015354378	6328.289108993359
0.7098680931690269	6349.609554413118
0.7099864045178884	6366.061442358921
0.7101047355853081	6383.357465143937
0.7102230863745722	6400.92561009393
0.7103414568889679	6419.157031086983
0.7104598471317828	6436.811461188831
0.7105782571063047	6453.9013480434305
0.7106966868158224	6469.030946780481
0.710815136263625	6484.193279950538
0.7109336054530023	6502.578665086448
0.7110520943872445	6520.767506506346
0.7111706030696424	6538.704935711676
0.7112891315034873	6556.128128652307
0.7114076796920712	6573.406785883249
0.7115262476386865	6591.022987307822
0.7116448353466263	6608.3143030607425
0.711763442819184	6625.069157162153
0.711882070059654	6642.4406397280945
0.7120007170713306	6660.084121219772
0.7121193838575091	6677.012027297335
0.7122380704214853	6694.181151703015
0.7123567767665555	6711.858040115882
0.7124755028960166	6728.245075713621
0.7125942488131658	6743.894628962472
0.7127130145213015	6758.400005774418
0.7128318000237216	6774.253720648687
0.7129506053237256	6793.951996247164
0.7130694304246129	6812.798484968398
0.7131882753296837	6831.039693583963
0.7133071400422386	6847.204770200861
0.7134260245655789	6861.960859114326
0.7135449289030065	6872.493589731697
0.7136638530578235	6891.6010705809085
0.7137827970333332	6918.106885598145
0.7139017608328388	6937.0148545038155
0.7140207444596443	6954.716505068679
0.7141397479170543	6972.780743666458
0.7142587712083737	6989.274950767301
0.7143778143369084	7004.158959535286
0.7144968773059646	7025.879824089254
0.7146159601188489	7048.510710405009
0.7147350627788687	7066.886778104666
0.7148541852893318	7085.2608110087485
0.7149733276535467	7103.631796273512
0.7150924898748222	7120.257439523331
0.715211671956468	7136.743184878856
0.7153308739017941	7156.563125935638
0.715450095714111	7176.583113933986
0.71556933739673	7196.877966522928
0.7156885989529628	7214.396299465748
0.7158078803861218	7230.554253221334
0.7159271816995193	7241.044353196684
0.7160465028964692	7255.196983049204
0.7161658439802853	7275.085298802005
0.7162852049542819	7288.494852722673
0.7164045858217744	7299.558234871726
0.716523986586078	7316.894910558173
0.7166434072505089	7315.95745437246
0.716762847818384	7283.008361829028
0.7168823082930204	7313.458087357667
0.7170017886777359	7372.231248448326
0.7171212889758488	7410.893589376828
0.7172408091906781	7439.795348797984
0.7173603493255433	7449.860564328417
0.7174799093837642	7463.008678594576
0.7175994893686615	7477.688127037781
0.7177190892835562	7504.48201856057
0.7178387091317702	7533.35140737053
0.7179583489166254	7566.446657624075
0.7180780086414448	7586.877194626695
0.7181976883095517	7600.545005240029
0.7183173879242699	7627.326448509879
0.718437107488924	7651.916691551965
0.7185568470068389	7671.04701447744
0.7186766064813399	7683.847302560616
0.7187963859157535	7693.081578308017
0.7189161853134061	7723.3173021347275
0.719036004677625	7751.402446722296
0.7191558440117378	7772.952263269988
0.7192757033190732	7793.326625558842
0.7193955826029597	7813.0165588620775
0.7195154818667269	7831.261107816182
0.7196354011137046	7850.171460692334
0.7197553403472235	7870.799880428211
0.7198752995706147	7892.686309899669
0.7199952787872098	7915.320588870905
0.720115278000341	7932.884195272358
0.7202352972133411	7949.108529595454
0.7203553364295432	7962.61241728166
0.7204753956522815	7982.795021787652
0.7205954748848902	8006.936715721347
0.7207155741307044	8029.665682943803
0.7208356933930594	8052.660373871234
0.7209558326752915	8076.409807381834
0.7210759919807375	8096.072486918121
0.7211961713127342	8113.360483084258
0.7213163706746197	8126.9211852503095
0.7214365900697322	8142.840062432692
0.7215568295014103	8164.4277011630975
0.721677088972994	8190.061160144516
0.7217973684878227	8217.962948469973
0.7219176680492374	8232.75533484048
0.7220379876605789	8250.959143267963
0.722158327325189	8277.191414466122
0.7222786870464099	8303.364110205624
0.7223990668275843	8329.507295806405
0.7225194666720555	8351.360256504802
0.7226398865831676	8372.603905401249
0.7227603265642646	8392.681052159374
0.722880786618692	8408.693512929623
0.7230012667497951	8422.820070625929
0.7231217669609201	8447.258323882925
0.7232422872554135	8470.009796057928
0.7233628276366229	8489.63639401953
0.7234833881078956	8513.191935755856
0.7236039686725803	8537.9934924538
0.7237245693340255	8547.865063529533
0.7238451900955812	8564.703697043837
0.7239658309605971	8593.173650222021
0.7240864919324239	8621.855743156171
0.7242071730144127	8650.158802377679
0.724327874209915	8671.09501591432
0.7244485955222832	8693.56061232072
0.7245693369548704	8718.295071503562
0.7246900985110294	8741.677695981447
0.7248108801941148	8764.674527920495
0.7249316820074803	8788.401149795254
0.7250525039544815	8811.491930552565
0.7251733460384739	8833.753920912888
0.7252942082628137	8854.853035046304
0.7254150906308574	8875.460112099478
0.7255359931459625	8894.910618708083
0.7256569158114868	8915.565754635056
0.7257778586307888	8937.57562462959
0.7258988216072273	8961.12300327967
0.7260198047441617	8985.124932302137
0.7261408080449525	9009.677111440576
0.72626183151296	9031.774885665518
0.7263828751515454	9051.522405718519
0.7265039389640706	9077.194745669276
0.726625022953898	9102.415352093063
0.7267461271243904	9122.142691790723
0.7268672514789111	9142.425253905412
0.7269883960208241	9163.153406140047
0.7271095607534942	9191.393246117223
0.7272307456802866	9219.12673087209
0.7273519508045666	9243.02133143779
0.7274731761297006	9265.090029372655
0.7275944216590555	9285.960658904629
0.7277156873959987	9306.590587056855
0.7278369733438982	9323.25607540286
0.727958279506122	9330.901493495072
0.7280796058860397	9360.500167499693
0.7282009524870207	9401.516595993753
0.7283223193124353	9430.673063327726
0.7284437063656539	9458.319263469357
0.7285651136500483	9483.276740704414
0.7286865411689898	9506.537883579758
0.7288079889258514	9528.73835922125
0.7289294569240056	9545.560080460553
0.7290509451668262	9565.833808815765
0.7291724536576875	9590.887777060358
0.7292939823999636	9618.275501480282
0.7294155313970303	9646.292132143582
0.7295371006522632	9673.913533448484
0.7296586901690385	9698.875622205922
0.7297802999507332	9720.986426946714
0.7299019300007252	9736.352097447358
0.7300235803223919	9751.744623928978
0.7301452509191123	9772.667330985687
0.7302669417942654	9794.10865797346
0.7303886529512311	9815.974935756629
0.7305103843933897	9813.276231197759
0.7306321361241218	9825.327680067076
0.7307539081468093	9885.567060284407
0.7308757004648336	9927.283872326421
0.7309975130815778	9957.721780215568
0.7311193460004248	9984.791616063447
0.7312411992247582	10012.311162697788
0.7313630727579622	10040.844637061182
0.7314849666034219	10065.948616653339
0.7316068807645224	10089.237061723394
0.7317288152446498	10107.063092336684
0.7318507700471907	10127.716943500454
0.7319727451755319	10152.33562265756
0.732094740633061	10185.474923516445
0.7322167564231665	10218.911100270707
0.7323387925492371	10238.787868698366
0.7324608490146619	10265.33428244938
0.732582925822831	10298.591839308872
0.7327050229771347	10327.126370356234
0.7328271404809642	10354.371153472346
0.7329492783377112	10379.780765504851
0.7330714365507675	10405.9956479749
0.7331936151235259	10432.7837487796
0.7333158140593796	10456.281423691511
0.7334380333617229	10478.901574180109
0.7335602730339499	10499.976330542902
0.7336825330794556	10528.433795672863
0.7338048135016354	10559.785922756615
0.7339271143038857	10574.970259695985
0.734049435489603	10568.272683322026
0.7341717770621846	10529.303069646958
0.7342941390250283	10546.810764951975
0.7344165213815324	10581.272084638222
0.734538924135096	10615.82889901919
0.7346613472891185	10650.391064502855
0.734783790847	10684.958583720138
0.7349062548121412	10706.906268174205
0.7350287391879431	10718.145676432121
0.7351512439778078	10700.724242050244
0.7352737691851374	10740.636045468935
0.735396314813335	10818.455801915483
0.7355188808658037	10854.978648547314
0.7356414673459482	10891.153336380696
0.7357640742571725	10929.14685322236
0.7358867016028818	10960.454092167893
0.7360093493864824	10988.715173558541
0.7361320176113801	11013.61445567487
0.736254706280982	11036.872930993035
0.7363774153986956	11058.090787645919
0.7365001449679286	11053.563804899599
0.7366228949920899	11052.375732922203
0.7367456654745885	11091.08983404801
0.7368684564188344	11149.642805393862
0.7369912678282374	11223.94934204496
0.7371140997062088	11264.401908348671
0.7372369520561599	11298.1788786708
0.7373598248815024	11322.451927635582
0.7374827181856494	11349.090741876553
0.7376056319720137	11377.006274502433
0.7377285662440091	11407.53058878369
0.7378515210050496	11429.035560982438
0.7379744962585505	11438.02968107693
0.738097492007927	11432.22835661253
0.7382205082565949	11427.820584516332
0.738343545007971	11449.738013259117
0.7384666022654723	11481.516326092205
0.7385896800325165	11521.656747986297
0.7387127783125219	11554.216453741183
0.7388358971089073	11587.272648414326
0.7389590364250921	11623.215266184106
0.7390821962644963	11658.986362876152
0.7392053766305403	11694.724001143837
0.7393285775266454	11731.542687538955
0.7394517989562333	11766.931529803558
0.7395750409227259	11800.345952734993
0.7396983034295463	11834.325521153994
0.739821586480118	11866.352210562512
0.7399448900778645	11888.486207270462
0.7400682142262109	11905.704528741097
0.740191558928582	11918.950728505595
0.7403149241884034	11943.800861594102
0.7404383100091014	11971.059113075726
0.7405617163941028	12001.768371385368
0.7406851433468352	12035.907190401444
0.7408085908707264	12069.358660041555
0.7409320589692048	12072.955676858375
0.7410555476456997	12103.304255722374
0.7411790569036406	12166.38278789291
0.7413025867464579	12192.339063016116
0.7414261371775823	12203.6981236503
0.7415497082004452	12188.892603905682
0.7416732998184786	12200.42868670094
0.741796912035115	12230.04465658203
0.7419205448537874	12261.797704491735
0.7420441982779297	12297.973679729726
0.742167872310976	12342.00036051316
0.7422915669563612	12386.445439921621
0.7424152822175206	12429.947469866634
0.7425390180978901	12465.688092592229
0.7426627746009065	12499.431946424216
0.7427865517300065	12531.235567569409
0.7429103494886282	12576.981707185048
0.7430341678802096	12621.839698509328
0.7431580069081896	12659.896305325296
0.7432818665760077	12694.5130111319
0.7434057468871037	12727.351761487758
0.7435296478449182	12759.873302833186
0.7436535694528923	12793.741377924229
0.7437775117144678	12829.376660377719
0.7439014746330868	12853.500976723717
0.7440254582121922	12874.42305343056
0.7441494624552276	12892.819028451657
0.7442734873656368	12913.186701122397
0.7443975329468645	12934.911829625418
0.7445215992023557	12960.337171272919
0.7446456861355559	12970.704857879851
0.7447697937499119	12955.093894616237
0.7448939220488703	12978.405862527115
0.7450180710358784	13015.461322537765
0.7451422407143843	13059.67791441295
0.7452664310878367	13104.181336638787
0.7453906421596846	13148.93519715978
0.7455148739333779	13193.404686452877
0.7456391264123667	13236.658499949357
0.7457633996001021	13277.309786795775
0.7458876935000356	13317.526257227577
0.7460120081156189	13357.362914215793
0.7461363434503048	13395.315001063656
0.7462606995075466	13428.621002871014
0.7463850762907978	13457.052684910988
0.7465094738035127	13490.371345896872
0.7466338920491467	13527.236953450876
0.746758331031155	13571.791091674508
0.7468827907529935	13612.687619620063
0.7470072712181189	13651.754979964326
0.7471317724299886	13690.97319935724
0.7472562943920602	13729.883899430475
0.7473808371077922	13768.42039256618
0.7475054005806435	13795.12718739871
0.7476299848140736	13818.334320355827
0.7477545898115426	13837.279714082957
0.7478792155765113	13867.607327391745
0.7480038621124406	13904.073418115122
0.7481285294227926	13928.324993350792
0.7482532175110298	13965.407590513683
0.7483779263806148	14019.725743149349
0.7485026560350116	14061.035835198385
0.7486274064776842	14099.61900604192
0.748752177712097	14138.44188209243
0.7488769697417158	14180.986035362615
0.749001782570006	14225.78990115144
0.7491266162004343	14266.747985776934
0.7492514706364677	14305.747846868848
0.7493763458815739	14341.952088704067
0.7495012419392209	14378.478454414308
0.7496261588128773	14415.069574207415
0.7497510965060128	14451.609409201486
0.7498760550220971	14490.361515136135
0.7500010343646007	14530.505887750356
0.7501260345369949	14566.701261369568
0.750251055542751	14599.408254305434
0.7503760973853414	14627.057409342384
0.7505011600682389	14661.868305207492
0.750626243594917	14696.721289029298
0.7507513479688495	14725.345449940876
0.7508764731935109	14744.332434738995
0.7510016192723765	14757.505644046207
0.7511267862089218	14794.963823467931
0.7512519740066232	14833.527527371616
0.7513771826689577	14873.646432293646
0.7515024121994025	14914.836307322626
0.7516276626014359	14955.299288775444
0.751752933878536	14992.343245289889
0.7518782260341824	15028.1400502034
0.7520035390718548	15063.409623814181
0.7521288729950334	15106.291107680727
0.7522542278071992	15148.084739644044
0.7523796035118337	15188.448860781195
0.7525050001124189	15227.042063890653
0.7526304176124378	15264.464968595461
0.7527558560153731	15299.29717952496
0.752881315324709	15340.639301896965
0.7530067955439299	15385.329622707377
0.7531322966765205	15426.705134892723
0.7532578187259665	15466.812285124992
0.7533833616957542	15505.43259707224
0.75350892558937	15539.354051882476
0.7536345104103016	15574.345946319954
0.7537601161620366	15614.051547079769
0.7538857428480638	15646.87865524009
0.7540113904718717	15676.964081616066
0.7541370590369503	15711.629736378829
0.7542627485467898	15748.026240090707
0.7543884590048808	15786.159459491933
0.7545141904147151	15830.32972131145
0.7546399427797842	15873.229417803188
0.7547657161035808	15912.080566364411
0.754891510389598	15950.740547420653
0.7550173256413296	15989.129250004908
0.7551431618622698	16026.248838224114
0.7552690190559135	16062.918759328866
0.7553948972257561	16099.219327745244
0.7555207963752938	16139.451873206819
0.755646716508023	16179.183901263474
0.755772657627441	16217.781193482333
0.7558986197370455	16256.711754903765
0.756024602840335	16295.258321430621
0.7561506069408084	16331.828468596743
0.7562766320419653	16369.064463715478
0.7564026781473054	16406.742480930505
0.75652874526033	16444.91065427196
0.7566548333845401	16482.99333219317
0.7567809425234375	16520.962971527384
0.7569070726805247	16557.919172661557
0.7570332238593047	16594.41471013238
0.7571593960632813	16630.118244355137
0.7572855892959586	16659.33498178487
0.7574118035608413	16686.140716050904
0.7575380388614347	16719.396106664954
0.7576642952012449	16755.917186225888
0.7577905725837782	16795.586671886682
0.7579168710125422	16833.17009617978
0.7580431904910444	16870.39178520495
0.7581695310227928	16907.2362793764
0.7582958926112967	16944.183433366896
0.7584222752600652	16981.12597664618
0.7585486789726085	17017.880959534228
0.7586751037524372	17053.67054159152
0.7588015496030628	17088.79447783091
0.7589280165279966	17123.309851620048
0.7590545045307512	17157.448546846263
0.7591810136148396	17191.08777553248
0.7593075437837755	17226.524123730742
0.7594340950410726	17261.189581487593
0.7595606673902461	17292.89605178543
0.7596872608348112	17324.871428629664
0.7598138753782836	17356.866902344776
0.75994051102418	17388.02191130999
0.7600671677760173	17419.56757271824
0.7601938456373134	17451.45994176343
0.7603205446115863	17480.418203212095
0.7604472647023548	17508.97158883565
0.7605740059131385	17537.09324415526
0.7607007682474575	17564.97411910934
0.7608275517088319	17592.33316034806
0.7609543563007835	17618.028378841656
0.7610811820268336	17642.11958834956
0.7612080288905045	17665.15037043459
0.7613348968953197	17685.816081068806
0.7614617860448022	17705.425424755816
0.7615886963424764	17723.92114204573
0.7617156277918667	17741.389999018716
0.7618425803964988	17757.417499607694
0.7619695541598982	17770.78498066053
0.7620965490855914	17781.603165582284
0.7622235651771058	17790.73044172025
0.7623506024379685	17795.96037062829
0.7624776608717082	17797.509352997004
0.7626047404818536	17796.415257035434
0.7627318412719337	17787.5501058517
0.762858963245479	17777.061300210415
0.7629861064060198	17764.695273958816
0.7631132707570876	17742.56978398176
0.7632404563022137	17715.125071546274
0.7633676630449308	17678.84515262663
0.7634948909887717	17632.71288841375
0.7636221401372697	17580.38632041594
0.7637494104939593	17514.610522725652
0.7638767020623748	17434.715171680873
0.7640040148460518	17344.658142700704
0.7641313488485262	17228.742946361133
0.7642587040733344	17095.798140690116
0.7643860805240132	16942.9352731033
0.7645134782041005	16751.909796657925
0.7646408971171346	16536.16840047531
0.764768337266654	16278.060806477615
0.7648957986561985	15959.269989817854
0.7650232812893079	15602.343966216786
0.7651507851695227	15164.618771114328
0.7652783103003843	14644.216596946824
0.7654058566854343	14064.125483114194
