#wavelength	surface flux
0.7	42.35557248805793
0.7001166666666666	42.52913286365813
0.7002333527777778	42.69468398063485
0.700350058336574	42.840175594310494
0.7004667833462966	42.994409148847815
0.7005835278101878	43.15518872638499
0.7007002917314895	43.31064370149372
0.7008170751134447	43.46553364918282
0.7009338779592968	43.62213224514645
0.7010507002722901	43.77801289768719
0.7011675420556689	43.932949005891395
0.701284403312678	44.08995741039804
0.7014012840465635	44.24766660518215
0.7015181842605713	44.395272895885334
0.701635103957948	44.540135866975746
0.701752043141941	44.67857079723926
0.701869001815798	44.8393022883758
0.7019859799827672	45.015543414977415
0.7021029776460976	45.16470631964886
0.7022199948090387	45.312676476850264
0.7023370314748403	45.472676154664356
0.7024540876467528	45.6431323833678
0.702571163328027	45.825761456058814
0.7026882585219152	45.995406923025364
0.7028053732316688	46.16036141824233
0.7029225074605406	46.31564122745179
0.7030396612117841	46.46340336684243
0.7031568344886527	46.59644862054441
0.7032740272944008	46.76622538464031
0.7033912396322832	46.95743932353048
0.7035084715055552	47.13712483915702
0.7036257229174727	47.31194492665822
0.7037429938712924	47.472695490492164
0.7038602843702709	47.6403115135949
0.7039775944176659	47.814423333819235
0.7040949240167356	47.98234559153078
0.7042122731707383	48.149370725370446
0.7043296418829335	48.321072896246314
0.7044470301565806	48.48967497701148
0.70456443799494	48.65362376542777
0.7046818654012724	48.82579617365196
0.7047993123788394	49.001558308672266
0.7049167789309024	49.160468937238285
0.7050342650607243	49.32833731532568
0.7051517707715678	49.51817053670091
0.7052692960666963	49.700891817960326
0.705386840949374	49.87867087912551
0.7055044054228656	50.05147992691835
0.7056219894904361	50.2253698017334
0.7057395931553511	50.40660320805548
0.705857216420877	50.58689278534996
0.7059748592902804	50.76618389213619
0.7060925217668288	50.945627210966975
0.70621020385379	51.12514184119039
0.7063279055544321	51.304772335503046
0.7064456268720246	51.48326459244643
0.7065633678098366	51.65994047062383
0.7066811283711383	51.83955045803378
0.7067989085592001	52.02050215225679
0.7069167083772933	52.19542656734691
0.7070345278286895	52.36315480960779
0.707152366916661	52.513615114482164
0.7072702256444803	52.65241777262484
0.7073881040154211	52.783318014110854
0.7075060020327569	53.029266698837176
0.7076239196997625	53.27789439168319
0.7077418570197124	53.48618708250674
0.7078598139958823	53.68241674938796
0.7079777906315483	53.86691739478761
0.7080957869299869	54.05321641882915
0.7082138028944751	54.24159466214695
0.7083318385282908	54.44237533215075
0.7084498938347124	54.637759899409
0.708567968817018	54.82575830045844
0.7086860634784875	54.995390084751605
0.7088041778224007	55.156396010822036
0.7089223118520377	55.26817805660924
0.7090404655706796	55.439355289497236
0.709158638981608	55.72457460613086
0.709276832088105	55.94172958908216
0.7093950448934531	56.12224798995957
0.7095132774009353	56.16009872757875
0.7096315296138355	56.27850501726894
0.7097498015354378	56.63569421806592
0.7098680931690269	56.897227387603294
0.7099864045178884	57.0882306192994
0.7101047355853081	57.30493642499863
0.7102230863745722	57.523421094786755
0.7103414568889679	57.73537977419079
0.7104598471317828	57.94670034517608
0.7105782571063047	58.157397265200004
0.7106966868158224	58.34205986463475
0.710815136263625	58.52672297953925
0.7109336054530023	58.751238253694595
0.7110520943872445	58.9711440757835
0.7111706030696424	59.18516310198075
0.7112891315034873	59.39762677162751
0.7114076796920712	59.60977990966772
0.7115262476386865	59.82455139735857
0.7116448353466263	60.032913059847424
0.711763442819184	60.23070489296385
0.711882070059654	60.44118963879616
0.7120007170713306	60.657319981873506
0.7121193838575091	60.86860862835033
0.7122380704214853	61.07998694620268
0.7123567767665555	61.29151582774247
0.7124755028960166	61.48992657879183
0.7125942488131658	61.680839209048635
0.7127130145213015	61.87959337443327
0.7128318000237216	62.08642040155579
0.7129506053237256	62.31418989852273
0.7130694304246129	62.536012248698334
0.7131882753296837	62.75361289211722
0.7133071400422386	62.96064777473372
0.7134260245655789	63.135198636583425
0.7135449289030065	63.19786897848256
0.7136638530578235	63.42692017888693
0.7137827970333332	63.79952230895893
0.7139017608328388	64.04606176604165
0.7140207444596443	64.2731089532423
0.7141397479170543	64.50868152985775
0.7142587712083737	64.72225111884926
0.7143778143369084	64.91325488204696
0.7144968773059646	65.1776467734625
0.7146159601188489	65.45181427669294
0.7147350627788687	65.68033594109396
0.7148541852893318	65.90862584958319
0.7149733276535467	66.13663036499392
0.7150924898748222	66.33604855989084
0.715211671956468	66.53425444794485
0.7153308739017941	66.79707815227968
0.715450095714111	67.05455915370163
0.71556933739673	67.30464909413969
0.7156885989529628	67.5392248612156
0.7158078803861218	67.76819596434977
0.7159271816995193	67.9935398226478
0.7160465028964692	68.18025117070084
0.7161658439802853	68.3064305729132
0.7162852049542819	68.38048804207826
0.7164045858217744	68.44144510582518
0.716523986586078	68.69752965132601
0.7166434072505089	68.65163767024846
0.716762847818384	68.07676334152775
0.7168823082930204	68.55066346461906
0.7170017886777359	69.49146893757404
0.7171212889758488	69.99217666830823
0.7172408091906781	70.32318773965282
0.7173603493255433	70.3267347753564
0.7174799093837642	70.43537313206703
0.7175994893686615	70.59618383047007
0.7177190892835562	70.97325350153382
0.7178387091317702	71.39240497735257
0.7179583489166254	71.89753132598224
0.7180780086414448	72.17938753987235
0.7181976883095517	72.34201548251377
0.7183173879242699	72.70985666668348
0.718437107488924	73.04002247770303
0.7185568470068389	73.27721775067876
0.7186766064813399	73.39328722001572
0.7187963859157535	73.44111133559385
0.7189161853134061	73.8971338852619
0.719036004677625	74.31439884990077
0.7191558440117378	74.61175064617137
0.7192757033190732	74.88377028034526
0.7193955826029597	75.14102821533224
0.7195154818667269	75.37335834446239
0.7196354011137046	75.61366257906971
0.7197553403472235	75.8752364830415
0.7198752995706147	76.15414163556645
0.7199952787872098	76.44334816811389
0.720115278000341	76.68990089932285
0.7202352972133411	76.93252514798142
0.7203553364295432	77.1698593868322
0.7204753956522815	77.39939027231591
0.7205954748848902	77.62431258393963
0.7207155741307044	77.92154502530843
0.7208356933930594	78.22682768291536
0.7209558326752915	78.5443930592649
0.7210759919807375	78.80017353541758
0.7211961713127342	79.02004986682736
0.7213163706746197	79.14955772085595
0.7214365900697322	79.34342869848945
0.7215568295014103	79.69121434840093
0.721677088972994	80.03516512698741
0.7217973684878227	80.37699284540858
0.7219176680492374	80.53333967782386
0.7220379876605789	80.76131864319144
0.722158327325189	81.15355176756083
0.7222786870464099	81.51720848783978
0.7223990668275843	81.86575459926891
0.7225194666720555	82.15238550950987
0.7226398865831676	82.43089421965207
0.7227603265642646	82.69392866804915
0.722880786618692	82.8865341275641
0.7230012667497951	83.04636919161925
0.7231217669609201	83.37675929348373
0.7232422872554135	83.6860759245255
0.7233628276366229	83.95634899456472
0.7234833881078956	84.26698160810147
0.7236039686725803	84.58572411595541
0.7237245693340255	84.61310596719943
0.7238451900955812	84.79510418024438
0.7239658309605971	85.23525155740374
0.7240864919324239	85.66317424133098
0.7242071730144127	86.07903609654917
0.724327874209915	86.37985880232964
0.7244485955222832	86.69503517702832
0.7245693369548704	87.03149701423858
0.7246900985110294	87.3395860236694
0.7248108801941148	87.63977815769199
0.7249316820074803	87.95748332887439
0.7250525039544815	88.26612197601723
0.7251733460384739	88.5629438510703
0.7252942082628137	88.84040271224555
0.7254150906308574	89.11060096749475
0.7255359931459625	89.36812776124152
0.7256569158114868	89.64058309973625
0.7257778586307888	89.92982683521305
0.7258988216072273	90.25714114663312
0.7260198047441617	90.59368046813856
0.7261408080449525	90.93359703183563
0.72626183151296	91.23322178251385
0.7263828751515454	91.49426402403806
0.7265039389640706	91.85903082547468
0.726625022953898	92.2142498083989
0.7267461271243904	92.4670355812668
0.7268672514789111	92.72574386275438
0.7269883960208241	92.98920661820279
0.7271095607534942	93.3912311692802
0.7272307456802866	93.7871947269689
0.7273519508045666	94.12202626916321
0.7274731761297006	94.41712825171318
0.7275944216590555	94.68615104258807
0.7277156873959987	94.94642333410467
0.7278369733438982	95.12438504703823
0.727958279506122	95.11551572688182
0.7280796058860397	95.5681830296526
0.7282009524870207	96.26075621523148
0.7283223193124353	96.68840596570291
0.7284437063656539	97.08373734599014
0.7285651136500483	97.42155789326783
0.7286865411689898	97.73116716119402
0.7288079889258514	98.02200484185117
0.7289294569240056	98.20740780680312
0.7290509451668262	98.47026894672918
0.7291724536576875	98.8404042539989
0.7292939823999636	99.24339413376441
0.7294155313970303	99.6528347701679
0.7295371006522632	100.04029439366774
0.7296586901690385	100.39482526870192
0.7297802999507332	100.71404977771112
0.7299019300007252	100.92166532221943
0.7300235803223919	101.114985368183
0.7301452509191123	101.33851389170079
0.7302669417942654	101.57579409999019
0.7303886529512311	101.82433222145431
0.7305103843933897	101.58069271917567
0.7306321361241218	101.65647965093207
0.7307539081468093	102.76444754061906
0.7308757004648336	103.46154768183561
0.7309975130815778	103.90844420901325
0.7311193460004248	104.33914523246276
0.7312411992247582	104.76340693569175
0.7313630727579622	105.17565463957065
0.7314849666034219	105.52320751309007
0.7316068807645224	105.83530736250502
0.7317288152446498	106.02440263643634
0.7318507700471907	106.29585117277206
0.7319727451755319	106.68278762561705
0.732094740633061	107.1904424497322
0.7322167564231665	107.69755026949139
0.7323387925492371	107.98266581786076
0.7324608490146619	108.35069388452209
0.732582925822831	108.80215030347458
0.7327050229771347	109.21594048176017
0.7328271404809642	109.6124389058479
0.7329492783377112	109.96971945118814
0.7330714365507675	110.34003517710902
0.7331936151235259	110.71962716866189
0.7333158140593796	111.04797010738056
0.7334380333617229	111.39093456709085
0.7335602730339499	111.77246854189356
0.7336825330794556	112.17222580604044
0.7338048135016354	112.57766944940275
0.7339271143038857	112.90696024093508
0.734049435489603	113.12602819899763
0.7341717770621846	113.18251654545293
0.7342941390250283	113.69100796501318
0.7344165213815324	114.30754737564514
0.734538924135096	114.74752212878391
0.7346613472891185	115.17765572947371
0.734783790847	115.59798875793454
0.7349062548121412	115.79549639905999
0.7350287391879431	115.79439108684377
0.7351512439778078	115.25616012285023
0.7352737691851374	115.8420351045157
0.735396314813335	117.17114245981914
0.7355188808658037	117.72072592475061
0.7356414673459482	118.23459984547476
0.7357640742571725	118.72581304459358
0.7358867016028818	119.12308912972338
0.7360093493864824	119.47844340717435
0.7361320176113801	119.79720818946059
0.736254706280982	120.07811584408181
0.7363774153986956	120.3119521578375
0.7365001449679286	120.30365760332958
0.7366228949920899	120.31998668917193
0.7367456654745885	120.68201134408267
0.7368684564188344	121.46605629896744
0.7369912678282374	122.58520147305725
0.7371140997062088	123.17699365969449
0.7372369520561599	123.67932864882663
0.7373598248815024	124.06741185982605
0.7374827181856494	124.46217205092849
0.7376056319720137	124.86009198348204
0.7377285662440091	125.25561862770014
0.7378515210050496	125.58617394071412
0.7379744962585505	125.82659531528988
0.738097492007927	126.33515683473367
0.7382205082565949	126.87792773635393
0.738343545007971	127.24070963923839
0.7384666022654723	127.68926978930581
0.7385896800325165	128.210574949944
0.7387127783125219	128.6719594222401
0.7388358971089073	129.11644130187435
0.7389590364250921	129.53308068071493
0.7390821962644963	129.9740309399575
0.7392053766305403	130.42736685729045
0.7393285775266454	130.88579918408186
0.7394517989562333	131.3352701937812
0.7395750409227259	131.7723524650267
0.7396983034295463	132.21370504536375
0.739821586480118	132.65371501820493
0.7399448900778645	133.08210302738323
0.7400682142262109	133.52104814153506
0.740191558928582	133.96853917376993
0.7403149241884034	134.33145855536634
0.7404383100091014	134.6916364221365
0.7405617163941028	135.05946205044077
0.7406851433468352	135.50704126595568
0.7408085908707264	135.95869564862767
0.7409320589692048	135.9846923979131
0.7410555476456997	136.39042953488544
0.7411790569036406	137.26077169531462
0.7413025867464579	137.77322918661713
0.7414261371775823	138.24359002350712
0.7415497082004452	138.82929448113197
0.7416732998184786	139.33289416622114
0.741796912035115	139.78016843431436
0.7419205448537874	140.0553312440144
0.7420441982779297	140.42827573892714
0.742167872310976	140.9849431545647
0.7422915669563612	141.58777584383904
0.7424152822175206	142.18769353038846
0.7425390180978901	142.65157498568874
0.7426627746009065	143.03057754170828
0.7427865517300065	143.3270994517733
0.7429103494886282	143.94063385351896
0.7430341678802096	144.55999864192592
0.7431580069081896	145.09311130989985
0.7432818665760077	145.5855992378706
0.7434057468871037	146.05618771925563
0.7435296478449182	146.50435856570817
0.7436535694528923	146.96914833856752
0.7437775117144678	147.4557465489474
0.7439014746330868	147.8046044187663
0.7440254582121922	148.1820159816028
0.7441494624552276	148.7880333317106
0.7442734873656368	149.22503236562173
0.7443975329468645	149.54578084071267
0.7445215992023557	150.0172220384284
0.7446456861355559	150.57148109919797
0.7447697937499119	151.26259649449148
0.7448939220488703	151.84641837864882
0.7450180710358784	152.39574393427372
0.7451422407143843	152.9449016222009
0.7452664310878367	153.47550588597855
0.7453906421596846	153.98998481192217
0.7455148739333779	154.49852275507988
0.7456391264123667	155.0064694916351
0.7457633996001021	155.51409846677063
0.7458876935000356	156.01488476956678
0.7460120081156189	156.51432461796395
0.7461363434503048	157.02752137487332
0.7462606995075466	157.53717168363178
0.7463850762907978	158.04309738246477
0.7465094738035127	158.52170399459584
0.7466338920491467	159.02496830530697
0.746758331031155	159.60395689486103
0.7468827907529935	160.12764351884957
0.7470072712181189	160.62963248645127
0.7471317724299886	161.23008361363307
0.7472562943920602	161.79122227591787
0.7473808371077922	162.3046793648995
0.7475054005806435	162.70994345047495
0.7476299848140736	163.16107827349626
0.7477545898115426	163.81894609664116
0.7478792155765113	164.41786970849196
0.7480038621124406	164.97765101136162
0.7481285294227926	165.3691182824428
0.7482532175110298	165.88395750001516
0.7483779263806148	166.56450977333492
0.7485026560350116	167.12333498400645
0.7486274064776842	167.65484920951087
0.748752177712097	168.1821855303573
0.7488769697417158	168.77775614110004
0.749001782570006	169.41487667250792
0.7491266162004343	169.99020900035447
0.7492514706364677	170.55553431900304
0.7493763458815739	171.10654734150893
0.7495012419392209	171.67627504454325
0.7496261588128773	172.24398958719257
0.7497510965060128	172.78740655491606
0.7498760550220971	173.3534000309496
0.7500010343646007	173.933803575005
0.7501260345369949	174.4969060557251
0.750251055542751	175.06413107498156
0.7503760973853414	175.63728806740994
0.7505011600682389	176.19520030134777
0.750626243594917	176.74657263635953
0.7507513479688495	177.28670760690179
0.7508764731935109	177.88338042965123
0.7510016192723765	178.5156571196672
0.7511267862089218	179.11648882777462
0.7512519740066232	179.70960100337763
0.7513771826689577	180.29179492413255
0.7515024121994025	180.90034833904807
0.7516276626014359	181.50904911497958
0.751752933878536	182.0973645695922
0.7518782260341824	182.64549472857945
0.7520035390718548	183.17293432403807
0.7521288729950334	183.81951193286727
0.7522542278071992	184.45673569733557
0.7523796035118337	185.08165343693784
0.7525050001124189	185.6826838823145
0.7526304176124378	186.2666459885001
0.7527558560153731	186.81163613202418
0.752881315324709	187.45395744587265
0.7530067955439299	188.1454819276046
0.7531322966765205	188.77245612305148
0.7532578187259665	189.3973120056985
0.7533833616957542	190.01966878088174
0.75350892558937	190.6350683983434
0.7536345104103016	191.25344561005855
0.7537601161620366	191.88236174060495
0.7538857428480638	192.50595297359231
0.7540113904718717	193.12733249992954
0.7541370590369503	193.75092695504435
0.7542627485467898	194.3525556314872
0.7543884590048808	194.93214350272004
0.7545141904147151	195.61287224243767
0.7546399427797842	196.28998082018353
0.7547657161035808	196.93723331958213
0.754891510389598	197.58632086394388
0.7550173256413296	198.23444143183156
0.7551431618622698	198.87188327796045
0.7552690190559135	199.51116509725992
0.7553948972257561	200.15198145424378
0.7555207963752938	200.8159114222077
0.755646716508023	201.48218283859038
0.755772657627441	202.1506997699034
0.7558986197370455	202.80583927295962
0.756024602840335	203.45801569052114
0.7561506069408084	204.11305444059906
0.7562766320419653	204.7802344806811
0.7564026781473054	205.455003629051
0.75652874526033	206.11704660574335
0.7566548333845401	206.7806905167086
0.7567809425234375	207.44638235063226
0.7569070726805247	208.12937667555113
0.7570332238593047	208.81204043594056
0.7571593960632813	209.48501348721229
0.7572855892959586	210.15422653071846
0.7574118035608413	210.82126700482576
0.7575380388614347	211.4840869077286
0.7576642952012449	212.17530940414298
0.7577905725837782	212.89391670329516
0.7579168710125422	213.58788190284383
0.7580431904910444	214.27807938983102
0.7581695310227928	214.96476203904632
0.7582958926112967	215.6577873692555
0.7584222752600652	216.35662206988025
0.7585486789726085	217.07293685618842
0.7586751037524372	217.7810387955767
0.7588015496030628	218.48355146159426
0.7589280165279966	219.18516270545433
0.7590545045307512	219.8905225341207
0.7591810136148396	220.60079699766987
0.7593075437837755	221.3293191028576
0.7594340950410726	222.05609269837967
0.7595606673902461	222.7692337108812
0.7596872608348112	223.47231798957958
0.7598138753782836	224.1753373855746
0.75994051102418	224.9142737182766
0.7600671677760173	225.65087314848927
0.7601938456373134	226.38541616408054
0.7603205446115863	227.1362661061003
0.7604472647023548	227.8826662335515
0.7605740059131385	228.6201091231429
0.7607007682474575	229.35674165782683
0.7608275517088319	230.09295661835563
0.7609543563007835	230.82821518012588
0.7610811820268336	231.55738850217602
0.7612080288905045	232.2854683779418
0.7613348968953197	233.04735527730662
0.7614617860448022	233.79521290211346
0.7615886963424764	234.52827643209542
0.7617156277918667	235.28257117552462
0.7618425803964988	236.04838582843865
0.7619695541598982	236.83281890595245
0.7620965490855914	237.6059847008122
0.7622235651771058	238.37543382031384
0.7623506024379685	239.14391051890348
0.7624776608717082	239.9149221524972
0.7626047404818536	240.6877397027081
0.7627318412719337	241.46446066355315
0.762858963245479	242.243134848126
0.7629861064060198	243.02404735538357
0.7631132707570876	243.80391037923468
0.7632404563022137	244.58032071763972
0.7633676630449308	245.34948904286526
0.7634948909887717	246.14755303164446
0.7636221401372697	246.95027049127407
0.7637494104939593	247.72802944879726
0.7638767020623748	248.51695473656903
0.7640040148460518	249.31342322749322
0.7641313488485262	250.11405279626564
0.7642587040733344	250.90981339660266
0.7643860805240132	251.69985561205885
0.7645134782041005	252.52476618483175
0.7646408971171346	253.34057229794485
0.764768337266654	254.12794159763683
0.7648957986561985	254.90242039734318
0.7650232812893079	255.6870023124717
0.7651507851695227	256.5356331905488
0.7652783103003843	257.39013768833837
