#wavelength	surface flux
0.6450077295303345	477.8888340072904
0.6472567915916443	510.4426572517974
0.6494921445846558	544.7420708419745
0.6517150402069092	580.4383151244887
0.6539263725280762	618.2833005727288
0.6561272740364075	658.0786220782294
0.6583186388015747	700.1891438495232
0.6605015397071838	744.4093123369341
0.6626768708229065	790.4886605369968
0.6648455858230591	839.3901505970165
0.6670085787773132	890.5341879955834
0.6691668033599854	944.3854750964792
0.6713210344314575	994.520365857304
0.6734722256660461	1060.4164655492061
0.6756211519241333	1122.8190450638401
0.6777685880661011	1188.1672722915328
0.6799154281616211	1257.0559928831053
0.6820623278617859	1329.1994933945589
0.6842101216316223	1405.1115544549311
0.6863595843315125	1484.797231303242
0.688511312007904	1567.794881796039
0.6906660795211792	1654.3530902517343
0.6928245425224304	1741.9070729295995
0.6949873566627502	1844.0665761774906
0.6971551775932312	1946.6779970454809
0.6993286609649658	2047.4564039326829
0.7015084028244019	2166.870461405816
0.7036949396133423	2285.4301790805225
0.7058889269828796	2410.5774694899433
0.7080909013748169	2538.733243430928
0.710301399230957	2674.373703953004
0.712520956993103	2820.3891726081742
0.7147500514984131	2969.8296245074143
0.7169892191886902	3100.2273609252748
0.7192389369010925	3295.352380145084
0.7214996814727783	3467.246704226268
0.723771870136261	3652.403288375299
0.7260559797286987	3851.4012091386926
0.7283523678779602	4054.341889543611
0.7306615710258484	4254.102599085434
0.7329838871955872	4493.589902560997
0.7353196740150452	4699.905329970944
0.7376693487167358	4966.046660460133
0.7400332689285278	5234.693928465701
0.7424117922782898	5502.023263620637
0.7448052167892456	5790.2331500810515
0.7472138404846191	6099.550618227989
0.7496379613876343	6430.398580954365
0.7520779371261597	6762.111818069868
0.7545340061187744	7116.314810789472
0.7570064663887024	7478.9544773982325
0.7594954967498779	7839.768111951339
0.7620013952255249	8153.171728790492
0.7645244002342224	7950.655518742424
0.7670646905899048	6223.302602193563
0.7696225643157959	7022.962125332448
0.7721980810165405	9512.482053300446
0.7747915983200073	10574.903061658313
0.7774031162261963	11216.654756149755
0.7800329327583313	11287.732187727013
0.7826811671257019	12465.78769073704
0.7853479981422424	13129.689714232303
0.7880334854125977	13808.23390982834
0.7907378077507019	14528.469470409686
0.7934610247612	15160.90024983362
0.7962033748626709	15886.068329868624
0.7989648580551147	16901.79573127787
0.801745593547821	17772.655492270143
0.8045456409454346	18702.728743208965
0.8073651194572449	19665.086670114626
0.8102040886878967	20504.20782070492
0.8130625486373901	21622.05331187165
0.8159406185150146	22793.152691696716
0.8188382983207703	23747.511606089873
0.8217556476593018	25196.895095935815
0.8246926665306091	26449.804662207378
0.8276493549346924	27769.70575658838
0.8306257724761963	29233.338223590174
0.8336219191551208	30810.41726002855
0.8366377949714661	32344.963503930197
0.8396733403205872	33926.44806295217
0.8427285552024841	35745.47995824559
0.8458034992218018	37462.04428060801
0.8488980531692505	39384.8496273146
0.8520121574401855	41405.705774604474
0.8551458716392517	43479.4885963642
0.8582990765571594	45673.389654183244
0.8614717125892639	47857.97586009598
0.8646637797355652	50092.57557725005
0.8678751587867737	52761.51034214821
0.8711057901382446	55348.69274005383
0.8743556141853333	58084.70443774068
0.87762451171875	61002.232476486126
0.8809124231338501	63986.852316472025
0.8842192888259888	67039.67280985838
0.8875449895858765	70366.50163905027
0.8908893465995789	73005.32220978294
0.894252359867096	76627.47895815849
0.8976338505744934	77478.83720443005
0.9010337591171265	83776.48858391092
0.9044519662857056	88645.03293888019
0.9078882932662964	92791.18384163658
0.9113426208496094	97412.83146897434
0.914814829826355	101508.15849806895
0.9183048605918884	105790.47333295923
0.9218124747276306	110875.48728720634
0.925337553024292	113756.94883918445
0.9288799166679382	115307.53284058887
0.9324395060539246	111457.51393998876
0.9360161423683167	120016.11586118609
0.9396095871925354	135897.5618589811
0.943219780921936	144404.95425599546
0.9468464851379395	135063.28576817404
0.9504896402359009	141690.0466116883
0.9541489481925964	157943.910615556
0.9578243494033813	166556.16188396572
0.9615156054496765	171020.13831864597
0.9652225375175476	180618.48657627916
0.9689450263977051	196040.5619813255
0.9726828336715698	197333.53496745543
0.9764357805252075	211797.27717317035
0.9802037477493286	219410.24613893792
0.983986496925354	232230.7928333302
0.9877838492393494	242069.83833964387
0.9915955662727356	253980.6422097747
0.9954215884208679	265567.5627021567
0.9992615580558777	276801.04748650227
1.0031154155731201	288049.2118882486
1.0069829225540161	299955.76407410484
1.0108637809753418	312415.4601588098
1.0147579908370972	325044.40718478255
1.018665075302124	337932.59092360066
1.022585153579712	351554.8333974266
1.0265177488327026	365408.35047692514
1.0304628610610962	379677.61887483695
1.0344202518463135	394406.9742979012
1.0383895635604858	409562.55737948744
1.0423706769943237	425200.835644355
1.0463634729385376	441193.7740475284
1.0503677129745483	457496.2837917429
1.0543830394744873	474878.7255328546
1.058409333229065	492173.80667229183
1.0624464750289917	510863.0186144531
1.0664942264556885	529251.0128895844
1.0705522298812866	548942.4403873701
1.0746204853057861	569560.7016260165
1.0786986351013184	587990.3704787578
1.0827864408493042	610155.4224586923
1.086883783340454	629596.2797174421
1.0909905433654785	649271.2965961447
1.0951062440872192	666449.1266819631
1.0992310047149658	659871.5191844068
1.10336434841156	681490.7410434881
1.1075061559677124	722809.2489630888
1.1116561889648438	738411.0130402643
1.115814208984375	604684.0766816289
1.1199802160263062	709872.1150948132
1.124153733253479	613973.0390998003
1.1283347606658936	758579.5341182891
1.1325229406356812	847993.5787980289
1.1367181539535522	812301.2641609372
1.1409201622009277	938113.4182703021
1.145128846168518	863396.5862569013
1.1493438482284546	782501.9691219934
1.1535650491714478	995039.5048513596
1.1577922105789185	1059283.3911868276
1.1620250940322876	1074270.5923348041
1.1662636995315552	1100857.5886884998
1.170507550239563	1074143.776056356
1.174756646156311	1165156.382325477
1.1790107488632202	1227458.1003503867
1.1832695007324219	1279587.3620772322
1.1875330209732056	1306155.9304802984
1.191800832748413	1364555.6102976014
1.1960728168487549	1396445.279063777
1.2003488540649414	1433268.9302710788
1.2046287059783936	1485022.9343601174
1.2089121341705322	1528770.0100358508
1.2131990194320679	1552038.7647819915
1.2174891233444214	1617709.9585438783
1.2217823266983032	1659601.524301772
1.2260783910751343	1706172.538243072
1.230377197265625	1747080.8177851585
1.2346785068511963	1799662.5685213432
1.238982081413269	1847710.771281149
1.2432878017425537	1894100.9334774087
1.2475954294204712	1941858.8673625563
1.2519049644470215	1990646.664011812
1.256216049194336	2041324.0226544614
1.2605286836624146	2092452.1839321065
1.2648425102233887	2144378.949423199
1.2691574096679688	2189960.5052285898
1.2734732627868652	2238615.8872748767
1.2777899503707886	2299209.3305769344
1.2821072340011597	2330846.3722861744
1.2864248752593994	2391858.7248007595
1.2907428741455078	2438074.4139363947
1.2950609922409058	2383814.6478051036
1.2993791103363037	2483484.1832442614
1.303696870803833	2588920.04711413
1.3080145120620728	2653150.0520713995
1.3123314380645752	2693430.4766536574
1.3166478872299194	2742550.2970735184
1.3209635019302368	2775242.6977334945
1.3252781629562378	2867598.0128030297
1.3295916318893433	2900202.4473443045
1.3339040279388428	2745002.8245951543
1.3382149934768677	2306190.4442910315
1.3425244092941284	1924066.6663117895
1.3468321561813354	2017430.1962855533
1.3511382341384888	1960672.7114474406
1.3554422855377197	1945241.7509200345
1.3597444295883179	2041689.4705581304
1.3640443086624146	2027439.786421787
1.3683418035507202	2143363.8742123004
1.3726370334625244	2671357.7676544455
1.3769296407699585	2746674.2233168203
1.381219506263733	2856601.4459277936
1.3855066299438477	2445264.9328169054
1.3897908926010132	2667670.927781263
1.3940720558166504	2538575.803923631
1.3983501195907593	2519155.9994583307
1.4026249647140503	2780100.391519207
1.4068963527679443	2787844.583204442
1.4111642837524414	3243550.8257255745
1.4154287576675415	2737944.6192011456
1.419689416885376	2510189.95284006
1.4239463806152344	2047113.983782346
1.4281994104385376	3128436.801276895
1.4324485063552856	3066306.5443385798
1.436693549156189	3276602.7370975334
1.440934419631958	3091395.4719062233
1.4451709985733032	3399431.099289866
1.449403166770935	3375353.4126605974
1.453631043434143	3331471.3521235287
1.4578542709350586	4374856.194745318
1.4620729684829712	4105423.8168657334
1.4662868976593018	4231087.552888506
1.4704961776733398	4558401.282739702
1.4747005701065063	4241170.426629597
1.4788999557495117	4720967.960969953
1.4830944538116455	4506157.706228171
1.4872838258743286	4894430.256925025
1.491468071937561	5255869.989363618
1.4956470727920532	5302264.090780328
1.4998208284378052	5338353.361688144
1.5039892196655273	5510927.965903882
1.5081522464752197	5678777.784838994
1.5123097896575928	5741453.916133522
1.5164618492126465	5874564.694489444
1.5206083059310913	5819911.25430895
1.5247491598129272	5955336.729525452
1.5288842916488647	5576002.640520068
1.5330137014389038	6256770.658425716
1.5371372699737549	6585886.659427013
1.541254997253418	6639249.134349886
1.545366883277893	6767975.6796560455
1.5494728088378906	6893908.203070809
1.5535727739334106	7000434.483273057
1.5576666593551636	7069497.834520331
1.561754584312439	7145585.976257703
1.5658363103866577	7323641.434023901
1.5699119567871094	7433366.140138068
1.5739814043045044	7550309.584171851
1.5780447721481323	7654019.246379218
1.582101821899414	7744241.019855425
1.5861525535583496	7797497.467986143
1.5901970863342285	7920775.40561397
1.5942351818084717	8030168.512481918
1.5982669591903687	8131479.335388479
1.6022924184799194	8231782.372666974
1.606311559677124	8317051.40304351
1.6103241443634033	8418819.866541263
1.6143304109573364	8515874.773640452
1.6183301210403442	8614758.367734574
1.6223233938217163	8561415.699425194
1.6263102293014526	8413342.541402262
1.6302905082702637	8438676.570855107
1.634264349937439	8534095.841732766
1.638231635093689	9005526.23642146
1.6421923637390137	9108715.231407551
1.646146535873413	9125811.905138483
1.6500942707061768	9177875.745787615
1.6540353298187256	9097081.934473708
1.6579699516296387	9064887.17839905
1.661897897720337	9305259.687797494
1.6658192873001099	8615781.321855
1.6697341203689575	8717391.798386157
1.6736423969268799	9775219.351371715
1.677544116973877	9743195.44967504
1.6814392805099487	9635529.012980763
1.6853278875350952	9591713.811286792
1.6892099380493164	10182899.700386673
1.6930854320526123	9140529.652585318
1.696954369544983	9711454.760053167
1.7008168697357178	8891315.642978333
1.7046726942062378	8999208.099246055
1.708522081375122	9790258.26903014
1.712364912033081	10560342.546087986
1.7162011861801147	10717624.520486468
1.7200311422348022	10537645.620537184
1.723854422569275	9613788.940409947
1.7276713848114014	9670955.231191134
1.731481909751892	9636136.225666037
1.7352858781814575	9194221.674145855
1.7390835285186768	10165835.063690031
1.7428747415542603	10003909.072239995
1.7466596364974976	11010097.245524028
1.7504380941390991	11151392.159386082
1.7542102336883545	10381005.015892895
1.7579760551452637	10069281.184944564
1.7617355585098267	10154807.055178236
1.7654887437820435	9651443.450158596
1.7692357301712036	9538160.688548984
1.7729763984680176	9792005.391101794
1.776710867881775	8592420.648234071
1.7804391384124756	9572376.725314636
1.7841613292694092	8719344.666474491
1.7878772020339966	8736020.340816893
1.7915871143341064	7528580.189627054
1.7952908277511597	8986070.013348596
1.7989884614944458	9395527.294343852
1.8026801347732544	8852771.004873103
1.806365728378296	8018997.498224115
1.8100452423095703	6085574.591609163
1.8137187957763672	8692486.666187054
1.817386507987976	10454228.26687914
1.8210482597351074	10042302.10250069
1.8247040510177612	11822017.11254461
1.828354001045227	11533731.020163957
1.8319982290267944	9633805.561605787
1.8356364965438843	10791664.645052126
1.8392690420150757	10022155.027866658
1.8428958654403687	10554392.212861052
1.8465168476104736	9171086.737546876
1.8501322269439697	9247174.730481112
1.8537418842315674	11730522.576741967
1.8573459386825562	9613074.540348615
1.860944390296936	7259755.699904408
1.864537239074707	7023342.618791101
1.8681244850158691	7545901.228393429
1.871706247329712	8168906.235848169
1.8752825260162354	8900667.675106093
1.8788533210754395	11762292.06035271
1.8824186325073242	10730820.525732787
1.8859784603118896	9280735.729822738
1.8895330429077148	9721686.773350723
1.8930821418762207	10009894.529861312
1.8966259956359863	10846429.8140191
1.9001644849777222	10355737.811186168
1.9036977291107178	10754860.658312289
1.9072256088256836	13002124.575507386
1.9107483625411987	12791697.841033641
1.9142658710479736	10804055.064668044
1.9177782535552979	13255902.884093424
1.9212853908538818	11861566.106751204
1.9247875213623047	10085544.383337377
1.9282845258712769	12187796.486588549
1.9317764043807983	11678618.624747863
1.9352631568908691	12664619.126250671
1.9387450218200684	7794427.77728044
1.942221760749817	8856622.010291845
1.9456936120986938	9516486.697233772
1.9491604566574097	9933111.308462258
1.952622413635254	11318816.35589497
1.956079363822937	8085048.375921223
1.959531545639038	7370761.785444701
1.962978720664978	10333200.156991178
1.966421127319336	13342282.664076101
1.9698586463928223	12264687.777513055
1.9732913970947266	13383772.524448004
1.9767193794250488	12593392.562654033
1.9801424741744995	13055794.17108304
1.9835609197616577	13208840.67902615
1.9869745969772339	13270604.991325267
1.990383505821228	11715333.578745166
1.9937876462936401	12982099.412838474
1.9971871376037598	13503317.264775336
2.000581979751587	12370561.653369276
2.003972291946411	13427306.303924652
2.007357597351074	14798335.997276686
2.0107386112213135	15579293.365573365
2.0141148567199707	16327758.739781955
2.017486572265625	14727054.35371372
2.0208535194396973	15913230.45024631
2.0242159366607666	16897882.318083506
2.027573823928833	15905977.483933646
2.0309269428253174	15448913.985098971
2.034275770187378	17126170.300365366
2.0376198291778564	17617499.66027358
2.040959596633911	17744183.472086556
2.044294595718384	17709542.845677678
2.0476250648498535	16582284.876264017
2.0509510040283203	16309270.173763288
2.054272413253784	17482252.189529914
2.057589530944824	17640798.694018845
2.0609018802642822	16940397.712761477
2.0642096996307373	17311193.715849582
2.0675129890441895	17834790.97141681
2.0708119869232178	18338745.12951843
2.074106216430664	18729848.571030226
2.0773961544036865	18905098.164924715
2.080681324005127	19142759.1932938
2.0839622020721436	19032763.42111393
2.087238311767578	18881484.96990676
2.090510129928589	19104952.339039456
2.0937774181365967	19257120.54293309
2.0970399379730225	19367963.050205108
2.1002981662750244	19312511.808138415
2.1035518646240234	19538968.10244252
2.1068007946014404	19587649.468701575
2.1100454330444336	19029284.95651539
2.1132853031158447	18428142.728929486
2.116520881652832	18882688.25107755
2.1197516918182373	19676674.50901122
2.1229779720306396	20021669.23461361
2.12619948387146	20088927.06609945
2.1294167041778564	20105057.935716346
2.132629156112671	20205415.970912308
2.1358368396759033	20358734.83041131
2.139039993286133	20422731.927473497
2.1422386169433594	20395934.837303434
2.145432472229004	20413637.967345633
2.1486217975616455	20274997.687459853
2.151806354522705	19839945.611943442
2.1549863815307617	19061856.727094404
2.1581614017486572	19865332.253832694
2.16133189201355	20342709.202497605
2.1644976139068604	20604684.868303314
2.167658567428589	20820409.03836868
2.1708147525787354	20744658.96401979
2.173966407775879	20511180.132651854
2.1771130561828613	20851809.161561724
2.1802549362182617	21113724.500066947
2.183391809463501	21161305.43644358
2.1865241527557373	21142730.92960414
2.1896514892578125	21148717.12939704
2.1927738189697266	21208925.981440812
2.1958916187286377	20697463.320387755
2.1990041732788086	19060572.003329657
2.2021119594573975	18901102.564029895
2.2052149772644043	20155288.521659505
2.208312749862671	21275023.262252733
2.2114057540893555	21540797.527293473
2.214493751525879	20761823.667637415
2.217576742172241	19966563.866482653
2.2206547260284424	20364880.17257396
2.2237277030944824	19972563.02737105
2.2267956733703613	19581903.79845886
2.2298583984375	20055796.47191407
2.2329163551330566	20200496.139108017
2.235969066619873	20748038.673034314
2.2390167713165283	19874069.594100293
2.2420592308044434	18539492.17483008
2.2450966835021973	19529236.330447312
2.248128890991211	18923779.710031833
2.2511560916900635	18159135.044420294
2.254178285598755	17071583.222481303
2.257194995880127	17431109.68599534
2.260206699371338	18721633.457855638
2.2632133960723877	19262470.144213695
2.266214609146118	19761165.92146798
2.2692108154296875	19388244.74851966
2.2722020149230957	19429013.21147702
2.2751877307891846	18763793.57895135
2.278168201446533	18980293.624456696
2.2811436653137207	20926402.092934463
2.284113883972168	18631198.91205064
2.287078857421875	15914931.867804945
2.290038824081421	17549400.15428071
2.2929933071136475	16659274.188139219
2.295942783355713	15591952.317230431
2.298887014389038	16258341.467738423
2.301826238632202	18583238.496917862
2.304760217666626	20314361.679657023
2.3076889514923096	21022771.070410915
2.310612440109253	21338459.56511672
2.3135311603546143	19779349.885612097
2.3164443969726562	15784639.906858362
2.319352865219116	15927308.767489145
2.322256088256836	15672559.905904474
2.3251543045043945	14002988.932298187
2.328047275543213	15102293.239926923
2.330935478210449	15509707.709587986
2.3338186740875244	15815245.100936653
2.3366971015930176	16956695.264266156
2.3395702838897705	17511047.813737616
2.3424389362335205	17306397.18968405
2.3453025817871094	16103280.746715205
2.348161458969116	14788616.064845566
2.351015567779541	15364959.383366203
2.353865146636963	16287324.310500963
2.3567099571228027	16166886.65353823
2.3595502376556396	16747280.91584703
2.3623859882354736	18544660.441145953
2.3652172088623047	18916303.789644405
2.368043899536133	14764589.974902678
2.370866537094116	12602881.799378714
2.3736846446990967	12506148.835886681
2.3764986991882324	12673838.507673481
2.3793084621429443	14206132.863164974
2.3821144104003906	16262514.122683216
2.384916305541992	17163715.57376218
2.387714147567749	17683770.14090823
2.3905084133148193	20580951.97475234
2.393299102783203	21483008.693871904
2.3960859775543213	19565093.397800054
2.398869514465332	15909335.879084926
2.4016497135162354	12915291.408509701
2.4044265747070312	13128177.884169005
2.407200336456299	15565210.78227607
2.409970998764038	17351889.526287716
2.4127390384674072	16852734.777899776
2.415503978729248	14554740.81321712
2.418266534805298	13323465.293135663
2.4210267066955566	13293907.151262688
2.4237842559814453	13327253.37337022
2.426539897918701	12749595.015425855
2.429293394088745	12847919.769711552
2.4320452213287354	14165351.23563996
2.4347951412200928	14107657.907018486
2.4375438690185547	13772988.789896768
2.440291166305542	14240677.296129245
2.443037271499634	14624345.577909112
2.445782423019409	15448531.336361174
2.4485268592834473	15802921.61224257
2.451270818710327	15783516.979733111
2.454014539718628	16046993.707970072
2.4567582607269287	15335725.79621135
2.4595019817352295	15454493.978957988
2.4622461795806885	17650929.593989305
2.4649908542633057	18707723.33476442
2.4677364826202393	16469224.146987794
2.4704833030700684	14853591.75189612
2.473231554031372	15217120.79467986
2.4759814739227295	15838602.305019276
2.4787333011627197	14132564.016647492
