#wavelength	surface flux
0.6450077295303345	7.945120160252527
0.6472567915916443	8.612510507869263
0.6494921445846558	9.327862923460003
0.6517150402069092	10.088013063934998
0.6539263725280762	10.903283178492353
0.6561272740364075	11.770350080996133
0.6583186388015747	12.6996347164546
0.6605015397071838	13.687500502794688
0.6626768708229065	14.741089083502521
0.6648455858230591	15.865181989455966
0.6670085787773132	17.061099349572153
0.6691668033599854	18.337453956125426
0.6713210344314575	19.695755278074447
0.6734722256660461	21.140861722992327
0.6756211519241333	22.67944514760931
0.6777685880661011	24.3179303430091
0.6799154281616211	26.061985885361775
0.6820623278617859	27.917310267557195
0.6842101216316223	29.89064552230173
0.6863595843315125	31.99186504676646
0.688511312007904	34.22543378888231
0.6906660795211792	36.59907696622393
0.6928245425224304	39.07526848133262
0.6949873566627502	41.80549730780551
0.6971551775932312	44.682253886015204
0.6993286609649658	47.6951764945637
0.7015084028244019	50.95756409052635
0.7036949396133423	54.40482768126524
0.7058889269828796	58.07924500558052
0.7080909013748169	61.95646373701838
0.710301399230957	66.0925057273236
0.712520956993103	70.5226550252297
0.7147500514984131	75.19498222029183
0.7169892191886902	79.80109155742761
0.7192389369010925	85.44805066149696
0.7214996814727783	91.10746447560236
0.723771870136261	97.08512068468937
0.7260559797286987	103.5271438490224
0.7283523678779602	110.3545350624829
0.7306615710258484	117.37726668009618
0.7329838871955872	125.34150338138274
0.7353196740150452	133.32416088391938
0.7376693487167358	142.2710589759
0.7400332689285278	151.67413208850846
0.7424117922782898	161.55149809526173
0.7448052167892456	172.12842232375993
0.7472138404846191	183.4039855293911
0.7496379613876343	195.43896243604468
0.7520779371261597	208.1737573709248
0.7545340061187744	221.75592413489326
0.7570064663887024	236.20575057243386
0.7594954967498779	251.57180522256127
0.7620013952255249	267.9274863746474
0.7645244002342224	285.29310167444027
0.7670646905899048	303.80919115612016
0.7696225643157959	323.5531661332549
0.7721980810165405	344.5812634600568
0.7747915983200073	366.933113165883
0.7774031162261963	390.7211432795084
0.7800329327583313	416.0125466745502
0.7826811671257019	442.9401025233611
0.7853479981422424	471.63006430523103
0.7880334854125977	501.9908277833889
0.7907378077507019	534.4233020800658
0.7934610247612	569.0541800328706
0.7962033748626709	605.6683453444247
0.7989648580551147	644.6131851026441
0.801745593547821	686.1455086661842
0.8045456409454346	730.4160534425131
0.8073651194572449	777.344823928204
0.8102040886878967	824.4877267757538
0.8130625486373901	876.5453638356008
0.8159406185150146	934.5287768530106
0.8188382983207703	991.2306846694879
0.8217556476593018	1058.4692756128463
0.8246926665306091	1125.432468025407
0.8276493549346924	1197.7255859263305
0.8306257724761963	1274.1877004006578
0.8336219191551208	1356.9867986341724
0.8366377949714661	1442.2284587396987
0.8396733403205872	1533.6253456585525
0.8427285552024841	1632.7798293560754
0.8458034992218018	1734.7622216334223
0.8488980531692505	1844.6367104758021
0.8520121574401855	1961.6401316915594
0.8551458716392517	2085.1237337348293
0.8582990765571594	2216.1684935118287
0.8614717125892639	2351.6184669161594
0.8646637797355652	2496.862187467996
0.8678751587867737	2656.033803831523
0.8711057901382446	2819.855227377394
0.8743556141853333	2995.108826966539
0.87762451171875	3180.7567272150895
0.8809124231338501	3376.4938551615464
0.8842192888259888	3584.180125868815
0.8875449895858765	3803.3928537318193
0.8908893465995789	4021.193167878881
0.894252359867096	4265.431523763252
0.8976338505744934	4444.709159261679
0.9010337591171265	4781.933581633916
0.9044519662857056	5097.891849050441
0.9078882932662964	5397.641825297601
0.9113426208496094	5717.30490640963
0.914814829826355	6055.285887938744
0.9183048605918884	6400.357693565142
0.9218124747276306	6788.857304288972
0.925337553024292	7131.545283865669
0.9288799166679382	7368.573658244013
0.9324395060539246	7297.198809834846
0.9360161423683167	7949.7145053810045
0.9396095871925354	8900.674909847083
0.943219780921936	9457.797872042778
0.9468464851379395	9477.945528542321
0.9504896402359009	10020.811944263362
0.9541489481925964	10876.448264124423
0.9578243494033813	11612.887763882649
0.9615156054496765	12206.742114560162
0.9652225375175476	12993.517887069107
0.9689450263977051	13974.819182564312
0.9726828336715698	14508.283644933445
0.9764357805252075	15509.20033405508
0.9802037477493286	16299.502706444797
0.983986496925354	17358.07443149163
0.9877838492393494	18325.166865154373
0.9915955662727356	19352.942997963346
0.9954215884208679	20430.420260789244
0.9992615580558777	21520.07315079216
1.0031154155731201	22629.65299749719
1.0069829225540161	23807.30644804735
1.0108637809753418	25045.82774062567
1.0147579908370972	26335.238236956986
1.018665075302124	27680.06583547935
1.022585153579712	29088.662021615033
1.0265177488327026	30554.99814884062
1.0304628610610962	32085.95196211698
1.0344202518463135	33685.560306035906
1.0383895635604858	35350.53130547778
1.0423706769943237	37086.417396742625
1.0463634729385376	38893.76303031434
1.0503677129745483	40775.75824520076
1.0543830394744873	42747.90908620336
1.058409333229065	44782.31660415819
1.0624464750289917	47001.46636270397
1.0664942264556885	49237.92742978778
1.0705522298812866	51573.87211847148
1.0746204853057861	54003.860716868956
1.0786986351013184	56429.57028494172
1.0827864408493042	59074.39846189206
1.086883783340454	61660.83447800984
1.0909905433654785	64371.1945860326
1.0951062440872192	67084.98528860202
1.0992310047149658	69120.28019931627
1.10336434841156	71353.18727274898
1.1075061559677124	74310.08823411085
1.1116561889648438	75820.8100086836
1.115814208984375	67443.21552759412
1.1199802160263062	77076.42748424831
1.124153733253479	68919.39481695405
1.1283347606658936	85950.17906885894
1.1325229406356812	91977.946268634
1.1367181539535522	95505.3528977778
1.1409201622009277	105416.88680100007
1.145128846168518	103487.1236307794
1.1493438482284546	97214.44673752505
1.1535650491714478	114616.55805394107
1.1577922105789185	122286.02618888853
1.1620250940322876	125713.65316755521
1.1662636995315552	131631.87218811692
1.170507550239563	134736.07712123156
1.174756646156311	142491.68476141928
1.1790107488632202	150274.24751923978
1.1832695007324219	157007.3532876053
1.1875330209732056	163105.46903386049
1.191800832748413	169868.88116925233
1.1960728168487549	176155.5315964848
1.2003488540649414	182537.35153836224
1.2046287059783936	190037.55336704804
1.2089121341705322	196933.59414013804
1.2131990194320679	203365.10624632146
1.2174891233444214	211791.6042837841
1.2217823266983032	219293.75145723563
1.2260783910751343	227246.0758162616
1.230377197265625	235129.9764755974
1.2346785068511963	243619.32357476046
1.238982081413269	252159.37840094086
1.2432878017425537	260810.9450887629
1.2475954294204712	269574.56568972714
1.2519049644470215	278764.1820606168
1.256216049194336	288137.6266759535
1.2605286836624146	297680.5247572542
1.2648425102233887	307462.46275344316
1.2691574096679688	317278.6773198147
1.2734732627868652	327194.3567530346
1.2777899503707886	338059.837941884
1.2821072340011597	347604.67379842425
1.2864248752593994	358509.19550476596
1.2907428741455078	369310.8929956719
1.2950609922409058	374447.9151537852
1.2993791103363037	388869.60974580963
1.303696870803833	401605.0709247673
1.3080145120620728	415804.05108620186
1.3123314380645752	425737.6084891959
1.3166478872299194	437582.2394493445
1.3209635019302368	448544.4934411858
1.3252781629562378	464029.1272446067
1.3295916318893433	471193.1938587994
1.3339040279388428	470326.9980432143
1.3382149934768677	395594.579726266
1.3425244092941284	348394.2692994743
1.3468321561813354	320222.8816416435
1.3511382341384888	347650.1464653843
1.3554422855377197	305031.88873334136
1.3597444295883179	280630.6515878624
1.3640443086624146	355415.3645903116
1.3683418035507202	357926.9093424463
1.3726370334625244	445439.28765391867
1.3769296407699585	458238.3262773954
1.381219506263733	438748.39297871036
1.3855066299438477	376334.104183389
1.3897908926010132	454001.282652432
1.3940720558166504	405971.86579578393
1.3983501195907593	460234.1399906563
1.4026249647140503	512549.36336982495
1.4068963527679443	526161.2835740127
1.4111642837524414	553110.12714494
1.4154287576675415	515684.96587324335
1.419689416885376	462946.76431734156
1.4239463806152344	431928.02823793684
1.4281994104385376	629438.1784171247
1.4324485063552856	553946.2891155797
1.436693549156189	659441.8084869819
1.440934419631958	638997.0117352536
1.4451709985733032	697873.9614820548
1.449403166770935	725099.3707958114
1.453631043434143	763079.5081678267
1.4578542709350586	896723.0738369451
1.4620729684829712	884998.9046376102
1.4662868976593018	942050.0466638418
1.4704961776733398	960198.6638167701
1.4747005701065063	967930.3514707212
1.4788999557495117	1029308.4358561472
1.4830944538116455	1024053.4215374468
1.4872838258743286	1086617.872023257
1.491468071937561	1122919.0300989663
1.4956470727920532	1139705.8034107115
1.4998208284378052	1181193.088282394
1.5039892196655273	1214332.3216553046
1.5081522464752197	1251694.8192827061
1.5123097896575928	1289420.605822368
1.5164618492126465	1317514.7005934583
1.5206083059310913	1342286.3343158865
1.5247491598129272	1384119.790244399
1.5288842916488647	1376211.126912911
1.5330137014389038	1453520.0433798078
1.5371372699737549	1497738.2561460957
1.541254997253418	1521748.121904103
1.545366883277893	1550551.3155763517
1.5494728088378906	1585326.5109444007
1.5535727739334106	1616319.4087283507
1.5576666593551636	1647208.9793148723
1.561754584312439	1677546.7722512435
1.5658363103866577	1712202.9977828602
1.5699119567871094	1745717.7710755982
1.5739814043045044	1777845.5347648587
1.5780447721481323	1809768.1545034165
1.582101821899414	1839421.3455584275
1.5861525535583496	1868696.5321719567
1.5901970863342285	1902316.1283704063
1.5942351818084717	1936721.2340654465
1.5982669591903687	1969400.9316992748
1.6022924184799194	2002722.2816352488
1.606311559677124	2035946.9713072255
1.6103241443634033	2069112.077201793
1.6143304109573364	2102475.6132435226
1.6183301210403442	2134140.619553615
1.6223233938217163	2139819.9291270874
1.6263102293014526	2123307.7183053875
1.6302905082702637	2110265.4036640134
1.634264349937439	2184842.4888974447
1.638231635093689	2283913.783195691
1.6421923637390137	2321813.297229719
1.646146535873413	2343430.4045948493
1.6500942707061768	2369766.006988502
1.6540353298187256	2379066.065083085
1.6579699516296387	2393801.7127381098
1.661897897720337	2462667.1253421237
1.6658192873001099	2288659.0342913056
1.6697341203689575	2345501.740665692
1.6736423969268799	2597444.334151468
1.677544116973877	2618467.029638542
1.6814392805099487	2612130.4073279775
1.6853278875350952	2612097.310038769
1.6892099380493164	2738489.591501303
1.6930854320526123	2555830.881622303
1.696954369544983	2682204.0494751097
1.7008168697357178	2530195.6620355416
1.7046726942062378	2581938.485461953
1.708522081375122	2743440.640603649
1.712364912033081	2932970.80496747
1.7162011861801147	2993395.857562951
1.7200311422348022	2970763.7540017236
1.723854422569275	2817794.029353522
1.7276713848114014	2859229.604023515
1.731481909751892	2896135.6844512317
1.7352858781814575	2860825.3836001917
1.7390835285186768	3074217.000847672
1.7428747415542603	3105668.353860283
1.7466596364974976	3193831.5398933957
1.7504380941390991	3241551.689404224
1.7542102336883545	3031747.5779151996
1.7579760551452637	3026475.800570878
1.7617355585098267	3023951.6927538603
1.7654887437820435	2918019.4727519816
1.7692357301712036	2893524.0650043217
1.7729763984680176	2905005.179575169
1.776710867881775	2467980.1535804654
1.7804391384124756	2778806.1612156145
1.7841613292694092	2415883.7292014225
1.7878772020339966	2479604.8956816187
1.7915871143341064	2297779.8363550887
1.7952908277511597	2630167.754522715
1.7989884614944458	2579815.8012161124
1.8026801347732544	2162379.2609093767
1.806365728378296	2234909.9681130666
1.8100452423095703	1967424.3567051936
1.8137187957763672	2482026.881549435
1.817386507987976	2816774.53989759
1.8210482597351074	2680592.426282007
1.8247040510177612	3165602.0463317926
1.828354001045227	2862148.24856803
1.8319982290267944	2692110.2161914096
1.8356364965438843	2751216.0388149875
1.8392690420150757	2674572.4189751707
1.8428958654403687	2786911.7742040385
1.8465168476104736	2699312.0752441087
1.8501322269439697	2753253.791685878
1.8537418842315674	3246294.74563365
1.8573459386825562	2646189.990466057
1.860944390296936	1960588.933804172
1.864537239074707	1916106.571876386
1.8681244850158691	1970082.2143611573
1.871706247329712	2111910.1818330823
1.8752825260162354	2492502.958247918
1.8788533210754395	3325798.7815471157
1.8824186325073242	3216327.4526147046
1.8859784603118896	2992709.5246151458
1.8895330429077148	3105141.6441606814
1.8930821418762207	3195564.727864844
1.8966259956359863	3352813.3879420743
1.9001644849777222	2977417.3905455824
1.9036977291107178	3167742.6370156733
1.9072256088256836	3824474.4054225655
1.9107483625411987	3696282.328777086
1.9142658710479736	2955757.9504704946
1.9177782535552979	3888443.409740063
1.9212853908538818	3275128.243376143
1.9247875213623047	3139595.8354208604
1.9282845258712769	3663889.3677583584
1.9317764043807983	3369582.5199489384
1.9352631568908691	3646998.571755975
1.9387450218200684	2259099.5373690445
1.942221760749817	2836284.339816961
1.9456936120986938	2989336.456485694
1.9491604566574097	2993404.3312061806
1.952622413635254	3676841.6722054
1.956079363822937	2809204.667803736
1.959531545639038	2635112.5448181615
1.962978720664978	3148671.5601959974
1.966421127319336	4261685.022562379
1.9698586463928223	4261469.420358292
1.9732913970947266	4346633.740094391
1.9767193794250488	4255259.002839282
1.9801424741744995	4274313.359499004
1.9835609197616577	4571754.646010326
1.9869745969772339	4756688.428540333
1.990383505821228	3972065.7815581453
1.9937876462936401	4614955.556316608
1.9971871376037598	4819198.930629536
2.000581979751587	4421795.22931582
2.003972291946411	4906228.6221426055
2.007357597351074	5353844.495459782
2.0107386112213135	5539938.83124941
2.0141148567199707	5861523.283013083
2.017486572265625	5624786.563399661
2.0208535194396973	5926974.243547781
2.0242159366607666	6137007.22467934
2.027573823928833	5952848.643609256
2.0309269428253174	5809837.208154841
2.034275770187378	6203965.785170915
2.0376198291778564	6324502.169619558
2.040959596633911	6349597.494199568
2.044294595718384	6396846.64983979
2.0476250648498535	6098057.040656281
2.0509510040283203	6059071.340068577
2.054272413253784	6414595.246112837
2.057589530944824	6460011.213993605
2.0609018802642822	6347232.685416345
2.0642096996307373	6441403.647009301
2.0675129890441895	6541209.606208462
2.0708119869232178	6659571.703194845
2.074106216430664	6767252.179855955
2.0773961544036865	6824826.515459148
2.080681324005127	6869428.193278689
2.0839622020721436	6867578.715271765
2.087238311767578	6872263.890564341
2.090510129928589	6923307.532120895
2.0937774181365967	6968429.974822171
2.0970399379730225	7010517.416007458
2.1002981662750244	7023946.1821384225
2.1035518646240234	7081954.537240376
2.1068007946014404	7096752.722706686
2.1100454330444336	6979413.459922232
2.1132853031158447	6859225.119318125
2.116520881652832	6992592.350250483
2.1197516918182373	7178660.255271461
2.1229779720306396	7272130.102136012
2.12619948387146	7304789.907794122
2.1294167041778564	7326482.729276087
2.132629156112671	7363179.159487409
2.1358368396759033	7405385.915335748
2.139039993286133	7433861.959869669
2.1422386169433594	7448147.425196052
2.145432472229004	7464537.89066603
2.1486217975616455	7423268.274308984
2.151806354522705	7265756.353918796
2.1549863815307617	7060195.30150493
2.1581614017486572	7336720.087022327
2.16133189201355	7492503.312773873
2.1644976139068604	7589059.392902399
2.167658567428589	7657011.274827555
2.1708147525787354	7650768.764090862
2.173966407775879	7605624.028749356
2.1771130561828613	7693669.836256904
2.1802549362182617	7761712.439438097
2.183391809463501	7756579.522695224
2.1865241527557373	7787163.719320956
2.1896514892578125	7820696.287198663
2.1927738189697266	7839260.282017919
2.1958916187286377	7700840.286646848
2.1990041732788086	7202309.389912081
2.2021119594573975	7129847.518001818
2.2052149772644043	7564131.535968281
2.208312749862671	7901364.53779208
2.2114057540893555	7971902.0746229505
2.214493751525879	7752707.962667877
2.217576742172241	7506546.105069785
2.2206547260284424	7646815.440150798
2.2237277030944824	7538408.376410738
2.2267956733703613	7307909.591428595
2.2298583984375	7340370.424657638
2.2329163551330566	7384108.605223395
2.235969066619873	7574452.117045411
2.2390167713165283	7243809.028575867
2.2420592308044434	6811220.161577414
2.2450966835021973	7141461.789986593
2.248128890991211	6974337.338924695
2.2511560916900635	6757877.05294468
2.254178285598755	6456569.44613907
2.257194995880127	6663216.763611167
2.260206699371338	7051269.1045645755
2.2632133960723877	6964519.957655376
2.266214609146118	7169624.018601651
2.2692108154296875	7340186.098724168
2.2722020149230957	7468688.3247460285
2.2751877307891846	7185678.695310266
2.278168201446533	7227863.111141343
2.2811436653137207	7845060.624899756
2.284113883972168	6983507.215922404
2.287078857421875	5995127.5788878845
2.290038824081421	6572665.594521711
2.2929933071136475	6327015.729625489
2.295942783355713	6049749.175569482
2.298887014389038	6324438.924310384
2.301826238632202	6983622.056719936
2.304760217666626	7557494.723324379
2.3076889514923096	7809162.178143945
2.310612440109253	7939507.884872123
2.3135311603546143	7528641.06822425
2.3164443969726562	6142089.304892319
2.319352865219116	6199793.697464886
2.322256088256836	6423332.485237698
2.3251543045043945	6047015.264840095
2.328047275543213	6179538.66483662
2.330935478210449	6409436.056042813
2.3338186740875244	6619914.686258202
2.3366971015930176	6655218.491964965
2.3395702838897705	6595465.397765286
2.3424389362335205	6513958.285213869
2.3453025817871094	6197750.712134242
2.348161458969116	5806439.46428636
2.351015567779541	6098686.707526367
2.353865146636963	6433621.708042313
2.3567099571228027	6330105.851426585
2.3595502376556396	6614542.167116283
2.3623859882354736	7410126.743687549
2.3652172088623047	8021408.003062209
2.368043899536133	6895202.47855152
2.370866537094116	5450279.403096278
2.3736846446990967	5098845.253868535
2.3764986991882324	5356106.26851
2.3793084621429443	6335779.051978311
2.3821144104003906	6943981.568650067
2.384916305541992	6668250.182809452
2.387714147567749	6782414.199317608
2.3905084133148193	8021800.77534559
2.393299102783203	8469991.767267508
2.3960859775543213	7676449.445123265
2.398869514465332	6498248.690576118
2.4016497135162354	5777672.0086256405
2.4044265747070312	6066602.523180811
2.407200336456299	7049113.902474077
2.409970998764038	7506176.366620464
2.4127390384674072	7086713.143284934
2.415503978729248	6098924.835983913
2.418266534805298	5678079.427859157
2.4210267066955566	6039432.104165327
2.4237842559814453	6354244.8643358415
2.426539897918701	5949499.056867927
2.429293394088745	5902907.739194218
2.4320452213287354	6477538.083591956
2.4347951412200928	6253481.690321716
2.4375438690185547	5964973.58061615
2.440291166305542	6410869.981632545
2.443037271499634	6869065.764995875
2.445782423019409	7335975.566918144
2.4485268592834473	7092530.279608735
2.451270818710327	6081811.564670784
2.454014539718628	6041403.174098493
2.4567582607269287	6639119.690785594
2.4595019817352295	7047182.577773114
2.4622461795806885	7364639.817232654
2.4649908542633057	7063482.142171936
2.4677364826202393	5834817.6754009565
2.4704833030700684	5462894.558149106
2.473231554031372	5865002.096407036
2.4759814739227295	6096083.183166358
2.4787333011627197	5710169.0932363225
2.481487512588501	5165538.77561387
2.4842441082000732	5457501.538026437
2.4870035648345947	5643274.336350732
