#wavelength	surface flux
0.6450077295303345	261.94482380248536
0.6472567915916443	279.9911386500108
0.6494921445846558	299.0090223915624
0.6517150402069092	318.9348027754728
0.6539263725280762	340.03951939978725
0.6561272740364075	362.191404715096
0.6583186388015747	385.5885771023453
0.6605015397071838	410.17585831194395
0.6626768708229065	435.95886424313744
0.6648455858230591	463.1847530696028
0.6670085787773132	491.7937384019221
0.6691668033599854	521.8884225139367
0.6713210344314575	551.9453363349201
0.6734722256660461	586.7829126924506
0.6756211519241333	621.7320029529316
0.6777685880661011	658.4745373091987
0.6799154281616211	697.0911197189279
0.6820623278617859	737.6856041962312
0.6842101216316223	780.3155965662243
0.6863595843315125	825.0704102535917
0.688511312007904	872.0343195654696
0.6906660795211792	921.0046130566385
0.6928245425224304	972.0325452706785
0.6949873566627502	1028.2177556839567
0.6971551775932312	1085.9826717168025
0.6993286609649658	1145.1780383510416
0.7015084028244019	1210.2782621188792
0.7036949396133423	1277.3917349380163
0.7058889269828796	1347.9669987674206
0.7080909013748169	1421.3603864434403
0.710301399230957	1498.7933651539013
0.712520956993103	1581.0945997076078
0.7147500514984131	1666.675006987088
0.7169892191886902	1750.1966566278702
0.7192389369010925	1852.2355273343535
0.7214996814727783	1951.3039961374404
0.723771870136261	2056.9044307967147
0.7260559797286987	2168.882528271639
0.7283523678779602	2285.167488113777
0.7306615710258484	2404.1704092088667
0.7329838871955872	2536.314228123392
0.7353196740150452	2662.253434029747
0.7376693487167358	2809.772735924422
0.7400332689285278	2961.196674743719
0.7424117922782898	3116.2611713518545
0.7448052167892456	3281.9821741049345
0.7472138404846191	3460.1590255943893
0.7496379613876343	3648.6885301573243
0.7520779371261597	3842.1249357852507
0.7545340061187744	4048.6184370135393
0.7570064663887024	4264.23211578197
0.7594954967498779	4489.285195676787
0.7620013952255249	4722.395777623344
0.7645244002342224	4920.6306137681095
0.7670646905899048	4766.305517910467
0.7696225643157959	5136.491466044845
0.7721980810165405	5766.405248884331
0.7747915983200073	6115.258059056825
0.7774031162261963	6443.313706631149
0.7800329327583313	6727.324698399964
0.7826811671257019	7143.877817307905
0.7853479981422424	7521.345168085066
0.7880334854125977	7914.957465651318
0.7907378077507019	8331.274626027083
0.7934610247612	8754.384411976142
0.7962033748626709	9207.335837296705
0.7989648580551147	9711.502311806886
0.801745593547821	10219.267675193907
0.8045456409454346	10758.773600049339
0.8073651194572449	11322.338554003978
0.8102040886878967	11869.026437337798
0.8130625486373901	12510.924257450526
0.8159406185150146	13176.380546642715
0.8188382983207703	13804.727184854059
0.8217556476593018	14585.388012456957
0.8246926665306091	15333.334513657555
0.8276493549346924	16117.10257689766
0.8306257724761963	16967.82023012942
0.8336219191551208	17866.927359360307
0.8366377949714661	18782.567712087344
0.8396733403205872	19732.401511968754
0.8427285552024841	20773.87487781229
0.8458034992218018	21815.87489232219
0.8488980531692505	22942.785191208728
0.8520121574401855	24125.092016107268
0.8551458716392517	25351.4192603927
0.8582990765571594	26644.322421599612
0.8614717125892639	27983.457297952253
0.8646637797355652	29358.644446264527
0.8678751587867737	30881.18532468762
0.8711057901382446	32437.44512125219
0.8743556141853333	34065.09226304187
0.87762451171875	35786.109525361884
0.8809124231338501	37571.34506814846
0.8842192888259888	39414.16061233798
0.8875449895858765	41390.80578658469
0.8908893465995789	43222.65981235805
0.894252359867096	45375.090304278565
0.8976338505744934	46815.89435736249
0.9010337591171265	49838.34279389312
0.9044519662857056	52485.7201206832
0.9078882932662964	55023.30893103315
0.9113426208496094	57758.155296957375
0.914814829826355	60393.42800396975
0.9183048605918884	63164.29996273293
0.9218124747276306	66201.73782132764
0.925337553024292	68731.09745814018
0.9288799166679382	70999.30491273513
0.9324395060539246	71596.72749268917
0.9360161423683167	74801.97481319986
0.9396095871925354	82411.04773873142
0.943219780921936	87076.62010893135
0.9468464851379395	86007.92788301384
0.9504896402359009	90016.2492710191
0.9541489481925964	97004.98616002387
0.9578243494033813	102565.80437668052
0.9615156054496765	105904.2511782077
0.9652225375175476	111873.25457922797
0.9689450263977051	118971.58384624336
0.9726828336715698	122219.86624940803
0.9764357805252075	129331.70478201953
0.9802037477493286	134703.6138435627
0.983986496925354	141474.34818101418
0.9877838492393494	147588.97838199322
0.9915955662727356	154508.23007025835
0.9954215884208679	161398.267782419
0.9992615580558777	168342.2588388409
1.0031154155731201	175318.3834299899
1.0069829225540161	182736.236570053
1.0108637809753418	190437.90681520908
1.0147579908370972	198358.15686961648
1.018665075302124	206480.85153364326
1.022585153579712	214999.57625840208
1.0265177488327026	223731.13175684062
1.0304628610610962	232768.55141664037
1.0344202518463135	242093.8696146829
1.0383895635604858	251719.86287142013
1.0423706769943237	261659.09994051792
1.0463634729385376	271892.5359013721
1.0503677129745483	282384.77591066994
1.0543830394744873	293399.9105267404
1.058409333229065	304569.34277557686
1.0624464750289917	316647.9582012124
1.0664942264556885	328747.2179370361
1.0705522298812866	341239.34422431595
1.0746204853057861	354219.4484504975
1.0786986351013184	366802.6524649537
1.0827864408493042	380673.19586036727
1.086883783340454	394061.0187713001
1.0909905433654785	407699.5868206044
1.0951062440872192	420769.3558818961
1.0992310047149658	426021.69551387563
1.10336434841156	442492.70201312
1.1075061559677124	464761.724351756
1.1116561889648438	479461.9232944648
1.115814208984375	417883.9146424209
1.1199802160263062	473909.0376622619
1.124153733253479	437724.9003368779
1.1283347606658936	508501.72622390254
1.1325229406356812	558566.5817501582
1.1367181539535522	552071.0856462781
1.1409201622009277	605443.1986362741
1.145128846168518	587997.9817615486
1.1493438482284546	553195.866730653
1.1535650491714478	657834.6429953623
1.1577922105789185	688439.6113621963
1.1620250940322876	699761.3597138085
1.1662636995315552	722413.4245848343
1.170507550239563	726224.2546739813
1.174756646156311	770206.5492019674
1.1790107488632202	802285.0210869504
1.1832695007324219	831258.4080300477
1.1875330209732056	852252.8970763892
1.191800832748413	885019.5081747128
1.1960728168487549	908665.253197141
1.2003488540649414	934568.5281424309
1.2046287059783936	965188.646156468
1.2089121341705322	994005.107232303
1.2131990194320679	1016839.7944111926
1.2174891233444214	1052281.2854512485
1.2217823266983032	1081766.6853751726
1.2260783910751343	1112300.078833496
1.230377197265625	1142077.6874534742
1.2346785068511963	1175436.8005102312
1.238982081413269	1207858.9786437745
1.2432878017425537	1239908.89966231
1.2475954294204712	1272672.8983669186
1.2519049644470215	1306255.4917954418
1.256216049194336	1340924.0567643752
1.2605286836624146	1375074.1823874733
1.2648425102233887	1411195.5106720221
1.2691574096679688	1444426.3934588006
1.2734732627868652	1480514.1683693405
1.2777899503707886	1519917.3704162813
1.2821072340011597	1549650.5673777615
1.2864248752593994	1590200.9086164685
1.2907428741455078	1626094.2067372107
1.2950609922409058	1628092.8351320892
1.2993791103363037	1681336.9544815873
1.303696870803833	1740416.1838390268
1.3080145120620728	1782346.858642037
1.3123314380645752	1819983.1932192314
1.3166478872299194	1857280.208236512
1.3209635019302368	1889665.6965089142
1.3252781629562378	1944250.8540095787
1.3295916318893433	1980858.3211875316
1.3339040279388428	1948860.0706679332
1.3382149934768677	1814557.2188461903
1.3425244092941284	1543225.4030100545
1.3468321561813354	1575168.2739972323
1.3511382341384888	1617743.485101636
1.3554422855377197	1623846.8777060325
1.3597444295883179	1816490.6035738178
1.3640443086624146	1727072.438397413
1.3683418035507202	1818078.5415353847
1.3726370334625244	2123968.3124385816
1.3769296407699585	2180553.4924890455
1.381219506263733	2284373.046772573
1.3855066299438477	1979035.0711119194
1.3897908926010132	2105182.6247212444
1.3940720558166504	2063135.729265905
1.3983501195907593	2078688.9228430293
1.4026249647140503	2299175.664404244
1.4068963527679443	2347597.056936142
1.4111642837524414	2529191.535445248
1.4154287576675415	2201995.9397345744
1.419689416885376	2188673.1035334077
1.4239463806152344	1948534.536531308
1.4281994104385376	2612711.0494472715
1.4324485063552856	2520886.6265060892
1.436693549156189	2787410.929737534
1.440934419631958	2716769.1425393997
1.4451709985733032	2817994.6230975636
1.449403166770935	2798512.624921392
1.453631043434143	2700247.1814393443
1.4578542709350586	3189347.459713094
1.4620729684829712	3186929.835740441
1.4662868976593018	3284667.346031204
1.4704961776733398	3462229.683331268
1.4747005701065063	3348542.4409390213
1.4788999557495117	3592090.9664521455
1.4830944538116455	3530725.4015106843
1.4872838258743286	3706393.2247270346
1.491468071937561	3888810.6287491173
1.4956470727920532	3926319.883694576
1.4998208284378052	3931826.264307233
1.5039892196655273	4053204.1603702772
1.5081522464752197	4143357.3290570867
1.5123097896575928	4190065.225041439
1.5164618492126465	4291175.849548414
1.5206083059310913	4295422.157638484
1.5247491598129272	4359054.568301877
1.5288842916488647	4230094.882859158
1.5330137014389038	4534402.931849841
1.5371372699737549	4696350.228805753
1.541254997253418	4751156.181045572
1.545366883277893	4834012.8107333435
1.5494728088378906	4909587.488366456
1.5535727739334106	4985873.81112288
1.5576666593551636	5036031.569808528
1.561754584312439	5102634.85867807
1.5658363103866577	5200831.566751288
1.5699119567871094	5278037.865818532
1.5739814043045044	5355298.327194671
1.5780447721481323	5423182.549113178
1.582101821899414	5493106.698953673
1.5861525535583496	5554811.989324188
1.5901970863342285	5632493.308981242
1.5942351818084717	5710648.746343056
1.5982669591903687	5783611.966084113
1.6022924184799194	5859423.550372405
1.606311559677124	5925082.137956638
1.6103241443634033	5996116.316637545
1.6143304109573364	6068599.752067039
1.6183301210403442	6141660.690028196
1.6223233938217163	6176076.180446941
1.6263102293014526	6170548.603976745
1.6302905082702637	6239819.677459108
1.634264349937439	6303264.331216849
1.638231635093689	6482626.9013026
1.6421923637390137	6551675.729165433
1.646146535873413	6599212.743434016
1.6500942707061768	6672418.918449917
1.6540353298187256	6695558.38596374
1.6579699516296387	6713995.2684478145
1.661897897720337	6846401.629030054
1.6658192873001099	6614782.178175135
1.6697341203689575	6721908.474684377
1.6736423969268799	7108513.679155811
1.677544116973877	7137323.557861311
1.6814392805099487	7156494.11433918
1.6853278875350952	7180464.73796496
1.6892099380493164	7407357.582589815
1.6930854320526123	7132814.569492014
1.696954369544983	7383518.4676438635
1.7008168697357178	7218146.733197571
1.7046726942062378	7296367.517899779
1.708522081375122	7561723.020560255
1.712364912033081	7802232.26500552
1.7162011861801147	7887724.582241892
1.7200311422348022	7878828.044902591
1.723854422569275	7637411.198151277
1.7276713848114014	7685699.9678667635
1.731481909751892	7718212.542409975
1.7352858781814575	7499259.018424765
1.7390835285186768	7843962.562170402
1.7428747415542603	7814936.251555536
1.7466596364974976	8315039.9261941705
1.7504380941390991	8421363.278455656
1.7542102336883545	8215694.178105557
1.7579760551452637	8102289.980373442
1.7617355585098267	8185687.816251256
1.7654887437820435	7872782.670327741
1.7692357301712036	7647834.438122692
1.7729763984680176	8071546.50298834
1.776710867881775	7326167.427033474
1.7804391384124756	8171475.951762403
1.7841613292694092	7763468.986313361
1.7878772020339966	7662775.81947628
1.7915871143341064	6634291.829868328
1.7952908277511597	7644708.49140806
1.7989884614944458	7872848.460725947
1.8026801347732544	7754815.902966395
1.806365728378296	7396994.424413307
1.8100452423095703	6218063.844404018
1.8137187957763672	7920470.761239474
1.817386507987976	8758825.026641892
1.8210482597351074	8720308.009569466
1.8247040510177612	9655952.438240275
1.828354001045227	9661266.00999537
1.8319982290267944	8449870.793113586
1.8356364965438843	9352166.08689292
1.8392690420150757	8992249.699791942
1.8428958654403687	9374040.493739499
1.8465168476104736	8484054.33274174
1.8501322269439697	8643362.597514465
1.8537418842315674	9765468.546464285
1.8573459386825562	8596437.539712911
1.860944390296936	6756606.236007184
1.864537239074707	7335940.346400316
1.8681244850158691	7065801.673300419
1.871706247329712	7498821.81934847
1.8752825260162354	8094755.531907518
1.8788533210754395	10031459.484712884
1.8824186325073242	9332141.602372307
1.8859784603118896	8397484.67343385
1.8895330429077148	8981727.577728856
1.8930821418762207	9119749.78718431
1.8966259956359863	9731671.084035223
1.9001644849777222	9377218.97295045
1.9036977291107178	9216377.764056703
1.9072256088256836	10814952.347600792
1.9107483625411987	10813744.231878726
1.9142658710479736	10080950.781562848
1.9177782535552979	11002420.502378296
1.9212853908538818	10002618.431415172
1.9247875213623047	9051712.376878167
1.9282845258712769	10635133.132486252
1.9317764043807983	10440286.862634847
1.9352631568908691	10653690.132440815
1.9387450218200684	7717638.547328525
1.942221760749817	8429267.019318022
1.9456936120986938	8561081.805014431
1.9491604566574097	8905545.891178887
1.952622413635254	9941696.496957587
1.956079363822937	7706435.427455819
1.959531545639038	7973930.445915383
1.962978720664978	10159113.702429747
1.966421127319336	11573644.84086826
1.9698586463928223	11301404.766427025
1.9732913970947266	11842868.097912613
1.9767193794250488	11265099.479633776
1.9801424741744995	11652071.647255985
1.9835609197616577	11628100.78548909
1.9869745969772339	11287655.335365698
1.990383505821228	10169237.674693516
1.9937876462936401	11378942.385898663
1.9971871376037598	11971788.983732704
2.000581979751587	11132648.319275184
2.003972291946411	11514760.89367844
2.007357597351074	12552004.584134078
2.0107386112213135	13042244.239675233
2.0141148567199707	13172607.180364404
2.017486572265625	12389908.987084411
2.0208535194396973	13039131.748345288
2.0242159366607666	13449348.634026738
2.027573823928833	12976651.551235829
2.0309269428253174	12682833.773347195
2.034275770187378	13563380.020751359
2.0376198291778564	13856217.463883094
2.040959596633911	13952121.723711036
2.044294595718384	13938884.928032959
2.0476250648498535	13363672.65138925
2.0509510040283203	13257941.997123895
2.054272413253784	13901476.684219413
2.057589530944824	13995210.449339546
2.0609018802642822	13683738.90368684
2.0642096996307373	13980388.616386952
2.0675129890441895	14247663.556036672
2.0708119869232178	14476627.70530212
2.074106216430664	14665087.018634003
2.0773961544036865	14773741.23793732
2.080681324005127	14875190.884745836
2.0839622020721436	14866347.003146391
2.087238311767578	14839040.33947961
2.090510129928589	14958706.854838943
2.0937774181365967	15054034.977660088
2.0970399379730225	15127347.666899491
2.1002981662750244	15142109.634692784
2.1035518646240234	15269760.89922602
2.1068007946014404	15300973.3324518
2.1100454330444336	15073707.203310689
2.1132853031158447	14860664.869917093
2.116520881652832	15117633.125671435
2.1197516918182373	15474420.44876205
2.1229779720306396	15640231.136563731
2.12619948387146	15691248.29436647
2.1294167041778564	15730578.201426532
2.132629156112671	15804924.896138202
2.1358368396759033	15895291.592976853
2.139039993286133	15950978.948101174
2.1422386169433594	15972159.948303426
2.145432472229004	16015297.65321371
2.1486217975616455	16023310.647012142
2.151806354522705	15939010.930216035
2.1549863815307617	15742709.812957777
2.1581614017486572	16011484.782946737
2.16133189201355	16198374.152223095
2.1644976139068604	16288700.42978536
2.167658567428589	16383098.709228827
2.1708147525787354	16386909.337842893
2.173966407775879	16352514.728419049
2.1771130561828613	16524787.01167578
2.1802549362182617	16640145.541453633
2.183391809463501	16691505.177856434
2.1865241527557373	16714616.15229142
2.1896514892578125	16738454.956353003
2.1927738189697266	16785232.200442336
2.1958916187286377	16674969.427328262
2.1990041732788086	16270123.728672152
2.2021119594573975	16292937.596691048
2.2052149772644043	16666232.78778668
2.208312749862671	16984592.21081838
2.2114057540893555	17079472.783393424
2.214493751525879	16842723.41384863
2.217576742172241	16659839.061337376
2.2206547260284424	16806206.862645812
2.2237277030944824	16649673.46479528
2.2267956733703613	16546432.339000892
2.2298583984375	16850783.8092279
2.2329163551330566	16991823.753924187
2.235969066619873	17103599.228799205
2.2390167713165283	16859842.99551844
2.2420592308044434	16520240.700688815
2.2450966835021973	16871877.266255695
2.248128890991211	16660500.739376992
2.2511560916900635	16266839.533141742
2.254178285598755	15414611.40189547
2.257194995880127	15639785.868707616
2.260206699371338	16639306.725531293
2.2632133960723877	17014101.877845984
2.266214609146118	17214025.41397179
2.2692108154296875	17037091.633727532
2.2722020149230957	17032357.51131316
2.2751877307891846	16946825.682970215
2.278168201446533	17087391.805168767
2.2811436653137207	17659672.86913682
2.284113883972168	16332464.515983585
2.287078857421875	14514602.165098216
2.290038824081421	15437489.293677652
2.2929933071136475	15130788.6349579
2.295942783355713	14901497.631545182
2.298887014389038	15938855.571208911
2.301826238632202	17131318.660994507
2.304760217666626	17686334.02410446
2.3076889514923096	17995493.80737558
2.310612440109253	18176805.780320413
2.3135311603546143	17394305.259041414
2.3164443969726562	15512527.856313039
2.319352865219116	15482901.432757132
2.322256088256836	15134537.47851286
2.3251543045043945	14513658.799309203
2.328047275543213	15465241.414171945
2.330935478210449	15447823.563425446
2.3338186740875244	15137421.836302783
2.3366971015930176	16039672.713709354
2.3395702838897705	16812791.32123275
2.3424389362335205	16697117.889286634
2.3453025817871094	15318596.530493319
2.348161458969116	14398170.481060486
2.351015567779541	15267455.79149203
2.353865146636963	15573526.103689676
2.3567099571228027	14632529.221982619
2.3595502376556396	14668916.677368766
2.3623859882354736	15750628.921128487
2.3652172088623047	15583088.364326322
2.368043899536133	13319074.626737908
2.370866537094116	13059631.202364882
2.3736846446990967	13685487.745797658
2.3764986991882324	13935248.012276413
2.3793084621429443	13796485.081845762
2.3821144104003906	14514467.47197151
2.384916305541992	15874625.74652124
2.387714147567749	16365210.16059866
2.3905084133148193	17806007.085222248
2.393299102783203	18519880.01892268
2.3960859775543213	18249351.090006936
2.398869514465332	16652113.762651278
2.4016497135162354	14948491.339499813
2.4044265747070312	15180353.165121373
2.407200336456299	16292580.437344218
2.409970998764038	16943305.21483936
2.4127390384674072	16214050.411098732
2.415503978729248	14577552.736477688
2.418266534805298	14725413.927120574
2.4210267066955566	15368884.897952605
2.4237842559814453	15240929.836691512
2.426539897918701	14639060.840497931
2.429293394088745	13921213.194055876
2.4320452213287354	13929065.120436374
2.4347951412200928	14033244.438317155
2.4375438690185547	14588657.730569787
2.440291166305542	14884903.657183053
2.443037271499634	15220360.17992199
2.445782423019409	16431804.73215357
2.4485268592834473	16729378.180919945
2.451270818710327	16254899.710651644
2.454014539718628	16111778.9248952
2.4567582607269287	15321286.183946654
2.4595019817352295	15146492.232358508
2.4622461795806885	16800786.058249842
2.4649908542633057	18409774.963923942
2.4677364826202393	17940431.005319614
2.4704833030700684	16862161.880218703
2.473231554031372	16342249.499235079
2.4759814739227295	16250453.384207612
2.4787333011627197	14879232.93433267
