#wavelength	surface flux
0.6450077295303345	130.85282188361512
0.6472567915916443	140.38614320255556
0.6494921445846558	150.47776672558234
0.6517150402069092	161.0292639558097
0.6539263725280762	172.316863049665
0.6561272740364075	184.1580637229418
0.6583186388015747	196.78819382042988
0.6605015397071838	210.04457545541322
0.6626768708229065	223.9609789616563
0.6648455858230591	238.77344288842312
0.6670085787773132	254.36202576555036
0.6691668033599854	270.8385414217858
0.6713210344314575	287.7746063082535
0.6734722256660461	306.50218353488873
0.6756211519241333	325.80347334606955
0.6777685880661011	346.1621760791734
0.6799154281616211	367.6284599155767
0.6820623278617859	390.25667883494464
0.6842101216316223	414.1084697467432
0.6863595843315125	439.2910529065507
0.688511312007904	465.77105556406246
0.6906660795211792	493.6063221324314
0.6928245425224304	521.6267525793547
0.6949873566627502	554.0948301691848
0.6971551775932312	587.0785296962316
0.6993286609649658	620.5177597737136
0.7015084028244019	657.9924620507005
0.7036949396133423	696.5364310208256
0.7058889269828796	737.2934756648052
0.7080909013748169	779.3847490795878
0.710301399230957	824.0384170047737
0.712520956993103	872.2469730402023
0.7147500514984131	921.9434549332549
0.7169892191886902	966.7417063331877
0.7192389369010925	1030.4620597696355
0.7214996814727783	1088.1964936904708
0.723771870136261	1150.3736720032878
0.7260559797286987	1217.4064885408256
0.7283523678779602	1286.2075293495227
0.7306615710258484	1354.8352261297434
0.7329838871955872	1436.1446979578018
0.7353196740150452	1509.2269232708989
0.7376693487167358	1599.913304927884
0.7400332689285278	1693.2830321601464
0.7424117922782898	1787.0673616175009
0.7448052167892456	1888.132431478823
0.7472138404846191	1995.574699176087
0.7496379613876343	2110.7655002144766
0.7520779371261597	2228.8496920800317
0.7545340061187744	2355.3250692939846
0.7570064663887024	2488.0246892697737
0.7594954967498779	2627.000800950366
0.7620013952255249	2771.1003377896504
0.7645244002342224	2897.539189940119
0.7670646905899048	2834.7296357486243
0.7696225643157959	3051.719310217463
0.7721980810165405	3423.7880372895847
0.7747915983200073	3640.3132743516608
0.7774031162261963	3846.5192381383495
0.7800329327583313	4030.238341518891
0.7826811671257019	4288.69596091554
0.7853479981422424	4528.775315065122
0.7880334854125977	4778.050211649037
0.7907378077507019	5043.817996569537
0.7934610247612	5316.450329031877
0.7962033748626709	5606.444867265595
0.7989648580551147	5929.6930403006645
0.801745593547821	6257.363161076305
0.8045456409454346	6606.877898391524
0.8073651194572449	6971.240284566256
0.8102040886878967	7296.800458059695
0.8130625486373901	7724.531103533051
0.8159406185150146	8167.858249198956
0.8188382983207703	8535.330464399767
0.8217556476593018	9093.236694675536
0.8246926665306091	9580.211804078612
0.8276493549346924	10093.800140324673
0.8306257724761963	10663.119716669959
0.8336219191551208	11276.022094176262
0.8366377949714661	11881.324135399496
0.8396733403205872	12507.933430465091
0.8427285552024841	13222.203295340316
0.8458034992218018	13909.793753636886
0.8488980531692505	14674.738243407714
0.8520121574401855	15479.595598338297
0.8551458716392517	16315.755660432764
0.8582990765571594	17198.92857911385
0.8614717125892639	18106.84195126792
0.8646637797355652	19044.647728488122
0.8678751587867737	20094.927815109866
0.8711057901382446	21158.08764999593
0.8743556141853333	22276.119948359894
0.87762451171875	23467.558136663054
0.8809124231338501	24697.30550552319
0.8842192888259888	25976.552964513558
0.8875449895858765	27349.75041234009
0.8908893465995789	28497.737865968098
0.894252359867096	30011.081862663395
0.8976338505744934	30461.881098970636
0.9010337591171265	33024.98087054214
0.9044519662857056	35063.255154146995
0.9078882932662964	36838.28563536462
0.9113426208496094	38824.14890160294
0.914814829826355	40588.34774206164
0.9183048605918884	42458.55251010162
0.9218124747276306	44645.21454828178
0.925337553024292	46082.21067853011
0.9288799166679382	47175.838660838686
0.9324395060539246	45993.807982082784
0.9360161423683167	49167.13866821526
0.9396095871925354	55803.888718209266
0.943219780921936	59475.845416247284
0.9468464851379395	55821.925174904325
0.9504896402359009	58859.090319970805
0.9541489481925964	65760.48325228677
0.9578243494033813	69624.59270399153
0.9615156054496765	71758.00676029208
0.9652225375175476	76110.9667256434
0.9689450263977051	82642.28368648388
0.9726828336715698	83645.40938445357
0.9764357805252075	89802.61977713295
0.9802037477493286	93412.9123368345
0.983986496925354	99172.83865373694
0.9877838492393494	103647.29626926099
0.9915955662727356	109037.33681411472
0.9954215884208679	114350.42229404401
0.9992615580558777	119594.91674486925
1.0031154155731201	124830.4078894604
1.0069829225540161	130376.02528146462
1.0108637809753418	136189.94535202827
1.0147579908370972	142153.39727983196
1.018665075302124	148250.5920506618
1.022585153579712	154699.30184201483
1.0265177488327026	161270.3754207427
1.0304628610610962	168108.30333114805
1.0344202518463135	175166.55294386367
1.0383895635604858	182463.51040108944
1.0423706769943237	190020.12524879
1.0463634729385376	197779.33384931387
1.0503677129745483	205753.74741322966
1.0543830394744873	214199.68896801615
1.058409333229065	222696.80123420057
1.0624464750289917	231882.34809962078
1.0664942264556885	240991.52538064492
1.0705522298812866	250718.01824408752
1.0746204853057861	260896.35083708278
1.0786986351013184	270186.8916414025
1.0827864408493042	281201.3140851345
1.086883783340454	291103.6155969723
1.0909905433654785	301374.4005933329
1.0951062440872192	310686.2012600301
1.0992310047149658	309686.24006690603
1.10336434841156	322016.0754032232
1.1075061559677124	342804.0831969848
1.1116561889648438	353068.14525855985
1.115814208984375	289841.41145392676
1.1199802160263062	339637.893352705
1.124153733253479	297582.58904113545
1.1283347606658936	362516.6241371322
1.1325229406356812	410585.9497426883
1.1367181539535522	393682.2829478866
1.1409201622009277	452418.59584160167
1.145128846168518	421252.92095069797
1.1493438482284546	379905.8057650204
1.1535650491714478	486181.49590461893
1.1577922105789185	516823.19738578785
1.1620250940322876	525701.7045768657
1.1662636995315552	541244.2992192082
1.170507550239563	530428.1521244446
1.174756646156311	576077.5048550308
1.1790107488632202	606675.2369742083
1.1832695007324219	633038.8185516191
1.1875330209732056	648825.1452245361
1.191800832748413	678369.1830259815
1.1960728168487549	695531.3761234615
1.2003488540649414	715128.0569010914
1.2046287059783936	742953.3964724434
1.2089121341705322	766883.4388815741
1.2131990194320679	780312.4465357838
1.2174891233444214	814589.6856206136
1.2217823266983032	838069.3107137226
1.2260783910751343	863438.6156153124
1.230377197265625	886805.6250956536
1.2346785068511963	915502.996038655
1.238982081413269	941954.5609237457
1.2432878017425537	968136.704569503
1.2475954294204712	994632.2582262905
1.2519049644470215	1022402.9937581094
1.256216049194336	1050723.082339561
1.2605286836624146	1079374.928913987
1.2648425102233887	1109107.0779625087
1.2691574096679688	1135557.4646521641
1.2734732627868652	1163826.780284441
1.2777899503707886	1198323.9702871528
1.2821072340011597	1219224.169913121
1.2864248752593994	1253182.0786169714
1.2907428741455078	1281526.5132885443
1.2950609922409058	1261026.1651318946
1.2993791103363037	1314652.3975618181
1.303696870803833	1371240.615854714
1.3080145120620728	1407481.9678622126
1.3123314380645752	1434047.0729427973
1.3166478872299194	1464483.3134553705
1.3209635019302368	1482087.4870242553
1.3252781629562378	1539699.1160020875
1.3295916318893433	1564927.571018753
1.3339040279388428	1507227.656704298
1.3382149934768677	1332979.9020454087
1.3425244092941284	1103701.4506818624
1.3468321561813354	1167996.185992583
1.3511382341384888	1142525.9255305936
1.3554422855377197	1152631.6987789252
1.3597444295883179	1282999.160766181
1.3640443086624146	1196833.9780831016
1.3683418035507202	1288453.6059837039
1.3726370334625244	1571495.4302614923
1.3769296407699585	1611974.883010086
1.381219506263733	1700687.567625493
1.3855066299438477	1472032.149397318
1.3897908926010132	1573719.2335393315
1.3940720558166504	1525388.7271656455
1.3983501195907593	1481339.2522584077
1.4026249647140503	1650269.9473532527
1.4068963527679443	1673780.934151445
1.4111642837524414	1923256.9437530416
1.4154287576675415	1622306.1915446876
1.419689416885376	1550528.9424086343
1.4239463806152344	1276571.391761867
1.4281994104385376	1896689.0325646168
1.4324485063552856	1869362.2198215509
1.436693549156189	2015078.4609632613
1.440934419631958	1935605.6404830993
1.4451709985733032	2045963.368420961
1.449403166770935	2018369.2747085497
1.453631043434143	1987694.4480627305
1.4578542709350586	2547562.178857566
1.4620729684829712	2445236.716441761
1.4662868976593018	2527746.2990692006
1.4704961776733398	2707220.120713797
1.4747005701065063	2533212.9698867453
1.4788999557495117	2801598.864040865
1.4830944538116455	2701322.4536151136
1.4872838258743286	2915192.370591153
1.491468071937561	3117371.1423230576
1.4956470727920532	3154082.116427504
1.4998208284378052	3156173.3077706965
1.5039892196655273	3264209.5075387093
1.5081522464752197	3367972.7796820607
1.5123097896575928	3399661.451901605
1.5164618492126465	3488690.054867136
1.5206083059310913	3441598.2131309654
1.5247491598129272	3534889.467587079
1.5288842916488647	3346515.9748294908
1.5330137014389038	3723195.8293145895
1.5371372699737549	3910245.040272467
1.541254997253418	3945866.4914048817
1.545366883277893	4031801.1495544403
1.5494728088378906	4104507.4955110163
1.5535727739334106	4172751.568643332
1.5576666593551636	4216391.37368916
1.561754584312439	4271467.813815991
1.5658363103866577	4376926.763125051
1.5699119567871094	4446172.358779167
1.5739814043045044	4523329.577199975
1.5780447721481323	4590075.446349116
1.582101821899414	4648683.830579802
1.5861525535583496	4698849.117710308
1.5901970863342285	4772537.867295828
1.5942351818084717	4846080.845342226
1.5982669591903687	4910290.350846511
1.6022924184799194	4982243.823486169
1.606311559677124	5040447.930846241
1.6103241443634033	5110206.851715297
1.6143304109573364	5175441.18338936
1.6183301210403442	5240730.992481747
1.6223233938217163	5223779.463344663
1.6263102293014526	5150241.263936501
1.6302905082702637	5192621.3379331725
1.634264349937439	5241777.951818898
1.638231635093689	5524331.751337699
1.6421923637390137	5597738.239544662
1.646146535873413	5625993.321104969
1.6500942707061768	5659368.018585846
1.6540353298187256	5619100.648395476
1.6579699516296387	5614421.6724446975
1.661897897720337	5767789.281541934
1.6658192873001099	5361028.693665892
1.6697341203689575	5444959.185513269
1.6736423969268799	6080957.126775637
1.677544116973877	6070871.482602823
1.6814392805099487	6017752.367723398
1.6853278875350952	6001113.146966648
1.6892099380493164	6371581.168043633
1.6930854320526123	5743686.039558303
1.696954369544983	6112238.675101451
1.7008168697357178	5625122.358445041
1.7046726942062378	5678119.255389197
1.708522081375122	6198440.616958752
1.712364912033081	6662675.573021919
1.7162011861801147	6771395.23173208
1.7200311422348022	6683609.40217983
1.723854422569275	6131910.883000683
1.7276713848114014	6192326.022857236
1.731481909751892	6173282.322066274
1.7352858781814575	5954043.699513399
1.7390835285186768	6565440.283855054
1.7428747415542603	6520511.369089684
1.7466596364974976	7131526.802360463
1.7504380941390991	7197849.1805660045
1.7542102336883545	6847990.6391372755
1.7579760551452637	6579664.648316403
1.7617355585098267	6685754.903646385
1.7654887437820435	6420717.355427857
1.7692357301712036	6325803.082941825
1.7729763984680176	6566543.183673056
1.776710867881775	5841373.535262534
1.7804391384124756	6597805.878836831
1.7841613292694092	6127323.683548522
1.7878772020339966	6107287.926553539
1.7915871143341064	5183696.68952133
1.7952908277511597	6172321.358534684
1.7989884614944458	6506453.5280166585
1.8026801347732544	6381605.772177845
1.806365728378296	5887769.95663222
1.8100452423095703	4561804.3116332535
1.8137187957763672	6137373.146818529
1.817386507987976	7248251.693565826
1.8210482597351074	7157136.999554957
1.8247040510177612	8263054.137071602
1.828354001045227	8190594.784693329
1.8319982290267944	6780672.263306508
1.8356364965438843	7779759.0554437945
1.8392690420150757	7348490.263913943
1.8428958654403687	7735403.2920090845
1.8465168476104736	6780135.492939294
1.8501322269439697	6858517.287723066
1.8537418842315674	8273187.712317247
1.8573459386825562	6971010.443163082
1.860944390296936	5323300.738156005
1.864537239074707	5417691.9286403
1.8681244850158691	5569534.1107779415
1.871706247329712	6003432.86681429
1.8752825260162354	6542917.097502464
1.8788533210754395	8476838.522693925
1.8824186325073242	7663421.666813583
1.8859784603118896	6684672.745913881
1.8895330429077148	7100806.101343928
1.8930821418762207	7254358.852322604
1.8966259956359863	7940910.401641414
1.9001644849777222	7728530.908002292
1.9036977291107178	7776418.957607109
1.9072256088256836	9250935.710519293
1.9107483625411987	9191411.793578135
1.9142658710479736	8178826.7655371595
1.9177782535552979	9402764.808284802
1.9212853908538818	8480377.644662857
1.9247875213623047	7204894.049602891
1.9282845258712769	8744608.809497967
1.9317764043807983	8540613.314163137
1.9352631568908691	9137924.946870418
1.9387450218200684	5979621.85814643
1.942221760749817	6587053.430239114
1.9456936120986938	6993895.870664112
1.9491604566574097	7363211.725897729
1.952622413635254	8077623.909923683
1.956079363822937	5842223.906709236
1.959531545639038	5581729.653900814
1.962978720664978	7960879.884167126
1.966421127319336	9787178.071235597
1.9698586463928223	9294772.63379881
1.9732913970947266	9981311.10260959
1.9767193794250488	9340336.086566161
1.9801424741744995	9774976.46347383
1.9835609197616577	9746477.753990466
1.9869745969772339	9495674.467131417
1.990383505821228	8549948.293045318
1.9937876462936401	9608133.697042448
1.9971871376037598	10099367.151169399
2.000581979751587	9234984.756810319
2.003972291946411	9719483.2156749
2.007357597351074	10774644.495433427
2.0107386112213135	11402644.251942106
2.0141148567199707	11618222.992904164
2.017486572265625	10579449.97208519
2.0208535194396973	11398275.879722726
2.0242159366607666	11963059.631528653
2.027573823928833	11374154.388484862
2.0309269428253174	10999187.701589422
2.034275770187378	12047523.591662632
2.0376198291778564	12414778.647938097
2.040959596633911	12523104.961904531
2.044294595718384	12492236.81117675
2.0476250648498535	11691338.597756205
2.0509510040283203	11522495.920381732
2.054272413253784	12378284.032591892
2.057589530944824	12485493.71522686
2.0609018802642822	12085216.787881931
2.0642096996307373	12322127.098481229
2.0675129890441895	12616812.137123683
2.0708119869232178	12950532.603676856
2.074106216430664	13238645.499219863
2.0773961544036865	13371189.14992079
2.080681324005127	13489798.065127665
2.0839622020721436	13435995.502632448
2.087238311767578	13390462.589319436
2.090510129928589	13527319.391197762
2.0937774181365967	13626352.738874229
2.0970399379730225	13712161.719564006
2.1002981662750244	13709517.309478307
2.1035518646240234	13860363.75102426
2.1068007946014404	13873639.322911313
2.1100454330444336	13494694.445476886
2.1132853031158447	13109126.122939711
2.116520881652832	13456001.484020954
2.1197516918182373	13980815.952351607
2.1229779720306396	14224621.634112243
2.12619948387146	14289176.347875122
2.1294167041778564	14318087.40172415
2.132629156112671	14397533.07163052
2.1358368396759033	14502236.418657383
2.139039993286133	14555609.008623865
2.1422386169433594	14557640.528464405
2.145432472229004	14579797.289077941
2.1486217975616455	14493903.008024229
2.151806354522705	14205341.981011273
2.1549863815307617	13650276.950204762
2.1581614017486572	14223996.776048066
2.16133189201355	14580210.93173014
2.1644976139068604	14789936.03711473
2.167658567428589	14946064.634932699
2.1708147525787354	14905126.633203743
2.173966407775879	14757225.307211967
2.1771130561828613	14997046.038408333
2.1802549362182617	15191252.252710283
2.183391809463501	15245870.177430544
2.1865241527557373	15257937.301631838
2.1896514892578125	15270932.690163609
2.1927738189697266	15309556.102646386
2.1958916187286377	14970585.559765473
2.1990041732788086	13873112.209600037
2.2021119594573975	13818722.892581187
2.2052149772644043	14693736.821358375
2.208312749862671	15434170.397954445
2.2114057540893555	15611531.687894352
2.214493751525879	15068528.138477862
2.217576742172241	14556021.28316675
2.2206547260284424	14884033.228631472
2.2237277030944824	14604197.359733632
2.2267956733703613	14336631.704975687
2.2298583984375	14737223.884770831
2.2329163551330566	14827938.820124868
2.235969066619873	15225308.063927159
2.2390167713165283	14695862.189561274
2.2420592308044434	13746909.023070535
2.2450966835021973	14416045.29844413
2.248128890991211	13990242.29746688
2.2511560916900635	13428025.091159727
2.254178285598755	12609899.037588812
2.257194995880127	12877948.608674867
2.260206699371338	13853047.775793938
2.2632133960723877	14365733.279686766
2.266214609146118	14737625.55186036
2.2692108154296875	14390342.921759041
2.2722020149230957	14438224.64456808
2.2751877307891846	13935820.401060166
2.278168201446533	14103445.401426861
2.2811436653137207	15519476.316406993
2.284113883972168	13861768.474976161
2.287078857421875	11856858.216133997
2.290038824081421	13049528.440459004
2.2929933071136475	12408702.437947087
2.295942783355713	11664934.405876528
2.298887014389038	12294703.014862888
2.301826238632202	14026339.777741816
2.304760217666626	15258840.220263015
2.3076889514923096	15891067.345727196
2.310612440109253	16177355.184301298
2.3135311603546143	14901061.780144943
2.3164443969726562	11907729.937194474
2.319352865219116	12066744.53542733
2.322256088256836	11848778.641325012
2.3251543045043945	10512878.747518636
2.328047275543213	11388732.16372689
2.330935478210449	11741550.93789387
2.3338186740875244	11926404.86356978
2.3366971015930176	12906423.947066855
2.3395702838897705	13484204.180772958
2.3424389362335205	13310920.901617657
2.3453025817871094	12304165.215941237
2.348161458969116	11270871.593287284
2.351015567779541	11659095.25536297
2.353865146636963	12278610.445206521
2.3567099571228027	12188470.934604878
2.3595502376556396	12721063.688569985
2.3623859882354736	13993534.003811382
2.3652172088623047	13988548.078595683
2.368043899536133	10913093.724019762
2.370866537094116	9619375.486843612
2.3736846446990967	9660748.026422527
2.3764986991882324	9843149.730949128
2.3793084621429443	10865750.08876884
2.3821144104003906	12297454.60808475
2.384916305541992	13106494.941365665
2.387714147567749	13517202.658086214
2.3905084133148193	15680644.606337741
2.393299102783203	16486586.989596186
2.3960859775543213	15358529.491454663
2.398869514465332	12687759.824104559
2.4016497135162354	10197674.867869342
2.4044265747070312	10489895.836045887
2.407200336456299	12691957.726429632
2.409970998764038	14027809.16165321
2.4127390384674072	13282950.340362357
2.415503978729248	11422226.2355035
2.418266534805298	10704539.982700171
2.4210267066955566	10663770.875817353
2.4237842559814453	10577089.19428899
2.426539897918701	10140257.977030063
2.429293394088745	10144942.33848701
2.4320452213287354	11053569.794522699
2.4347951412200928	11220512.119637212
2.4375438690185547	11422995.581108551
2.440291166305542	11907719.23412972
2.443037271499634	12107314.164106524
2.445782423019409	12825244.216872457
2.4485268592834473	13137508.422352755
2.451270818710327	13203265.492797507
2.454014539718628	13479598.766043717
2.4567582607269287	12639658.5377261
2.4595019817352295	12532761.74797369
2.4622461795806885	14280881.461009338
2.4649908542633057	15606837.329245167
2.4677364826202393	14541783.808314614
2.4704833030700684	13356716.018168103
2.473231554031372	13273952.378037099
2.4759814739227295	13356141.040517928
2.4787333011627197	11841573.413849896
