#wavelength	surface flux
0.8	659.6081081330052
0.8002000000000001	662.888967719654
0.8004000500000003	665.7354538003483
0.8006001500125003	668.5488401941275
0.8008003000500035	671.5656696390961
0.8010005001250161	674.6095902093281
0.8012007502500472	677.9182747295779
0.8014010504376099	681.052273940598
0.8016014007002193	683.9593751986455
0.8018018010503944	686.9147802281204
0.8020022515006572	689.9043398663183
0.8022027520635323	693.2621280908256
0.8024033027515483	696.3581479844206
0.8026039035772362	698.9774037465288
0.8028045545531306	702.0966640215902
0.8030052556917691	704.8554528071717
0.803206007005692	708.8242854674421
0.8034068085074435	712.2523306632825
0.8036076602095705	715.3616285648222
0.8038085621246229	718.6762940322351
0.8040095142651542	721.7529357199157
0.8042105166437206	724.8215226879163
0.8044115692728815	727.9254756273065
0.8046126721651998	730.759201282763
0.8048138253332411	734.7167633563811
0.8050150287895745	738.1836981353603
0.805216282546772	741.5176653085523
0.8054175866174087	744.7033217794785
0.8056189410140631	747.9682089037539
0.8058203457493168	751.296920903144
0.8060218008357541	754.5872656120008
0.8062233062859632	757.6644347889572
0.8064248621125346	761.3803127656994
0.806626468328063	764.833767268709
0.8068281249451449	767.9622616330574
0.8070298319763813	771.4570752417187
0.8072315894343755	774.9124333389545
0.8074333973317341	778.0676049586815
0.8076352556810671	781.9409553026097
0.8078371644949874	785.5562025529097
0.8080391237861113	789.0452886837754
0.8082411335670578	792.3628952238739
0.8084431938504498	795.9154054603354
0.8086453046489125	799.5356653163667
0.8088474659750746	802.8314782301628
0.8090496778415686	806.2520212118153
0.809251940261029	809.6148214397759
0.8094542532460944	812.0138061483137
0.8096566168094059	815.3414706682086
0.8098590309636085	820.5817005604421
0.8100614957213493	824.2973034988706
0.8102640110952797	827.6195969701757
0.8104665770980536	831.6118444584722
0.8106691937423283	834.2561589681154
0.8108718610407639	831.8974704989389
0.8110745790060241	832.3961175282275
0.8112773476507757	842.8000887667627
0.8114801669876885	844.3769620039534
0.8116830370294355	846.9353254082808
0.8118859577886929	856.4314113969922
0.8120889292781401	861.378226512508
0.8122919515104597	865.2391020026377
0.8124950244983374	869.2913573120856
0.8126981482544621	873.0593387036201
0.8129013227915257	876.7338226032095
0.8131045481222237	879.9874970610008
0.8133078242592543	882.0124307020989
0.8135111512153191	880.551915292157
0.813714529003123	885.9634758723284
0.8139179576353739	894.4976461599728
0.8141214371247829	896.2968083254297
0.8143249674840641	895.5690123079557
0.814528548725935	892.971262084457
0.8147321808631167	903.4275415556136
0.8149358639083326	913.5605546084739
0.8151395978743097	913.872041933484
0.8153433827737784	920.6645021085815
0.8155472186194719	927.0958130135856
0.8157511054241268	931.5426322142669
0.815955043200483	934.4382890427453
0.8161590319612831	939.4783086730033
0.8163630717192736	942.3571252135002
0.8165671624872033	947.6877057559134
0.8167713042778252	953.151347728622
0.8169754971038948	956.6468735807775
0.8171797409781707	958.0947982632182
0.8173840359134155	964.9065479348267
0.8175883819223938	970.1442044409658
0.8177927790178745	974.0206719206869
0.8179972272126291	975.8025237218253
0.8182017265194322	976.5453614280887
0.8184062769510622	965.4987595754612
0.8186108785203001	986.4154043563472
0.8188155312399301	995.7191810659609
0.8190202351227402	999.4136209675336
0.819224990181521	1004.516889217675
0.8194297964290664	1008.7842569844855
0.8196346538781738	1011.9816043136132
0.8198395625416434	1015.0008899991822
0.8200445224322789	1016.8696624599796
0.820249533562887	1025.6783930346196
0.8204545959462778	1031.1302888996554
0.8206597095952644	1035.6140006677288
0.8208648745226633	1040.079125222173
0.8210700907412941	1044.4709060018197
0.8212753582639793	1049.3393589961422
0.8214806771035456	1053.9298895232669
0.8216860472728215	1058.55295919271
0.8218914687846397	1063.3404606837682
0.822096941651836	1067.9438524311915
0.822302465887249	1072.2428084293408
0.8225080415037209	1076.3393696025391
0.8227136685140968	1076.5324403787831
0.8229193469312254	1062.4419072481862
0.8231250767679583	1066.6182913303437
0.8233308580371503	1082.4027604476323
0.8235366907516598	1087.7879366195189
0.8237425749243477	1094.4914565552124
0.8239485105680789	1106.4514755005875
0.824154497695721	1114.1372750440878
0.824360536320145	1119.551147127759
0.8245666264542252	1124.719986844992
0.8247727681108388	1129.8082497590133
0.8249789613028664	1133.4709252086702
0.8251852060431922	1139.4287496745212
0.825391502344703	1144.9839730192318
0.8255978502202894	1149.9574282799158
0.8258042496828445	1154.876344432389
0.8260107007452654	1159.2260450179729
0.8262172034204517	1162.1443385078785
0.8264237577213068	1163.3989981059294
0.8266303636607373	1161.3244920106677
0.8268370212516525	1177.376670627865
0.8270437305069654	1185.4306826582867
0.8272504914395923	1190.1673358184871
0.8274573040624523	1194.813571381088
0.8276641683884679	1200.0872475300541
0.8278710844305652	1205.259693361499
0.8280780522016729	1210.4122699925235
0.8282850717147234	1214.7769806329977
0.8284921429826521	1220.402625686677
0.8286992660183978	1225.263311019279
0.8289064408349024	1225.897824684873
0.8291136674451112	1231.3091541531192
0.8293209458619727	1240.8222929917185
0.8295282760984382	1246.6377258381958
0.829735658167463	1250.0294184329136
0.8299430920820048	1255.6219000550454
0.8301505778550254	1262.9529614309486
0.8303581154994891	1269.4432673457234
0.8305657050283641	1274.8040576906158
0.8307733464546212	1279.8704755543993
0.8309810397912352	1284.4092524963626
0.8311887850511829	1288.3978075459033
0.8313965822474458	1283.6695995987725
0.8316044313930077	1292.1224738823928
0.8318123325008561	1305.477943967314
0.8320202855839813	1313.1786622234495
0.8322282906553774	1318.7487011482276
0.8324363477280413	1322.9731121287284
0.8326444568149735	1330.315884506567
0.8328526179291771	1336.2655528169155
0.8330608310836596	1339.7903894343021
0.8332690962914304	1343.358649201283
0.8334774135655034	1351.4658107256596
0.833685782918895	1358.0830514438503
0.8338942043646247	1364.2845384193286
0.834102677915716	1370.495054276891
0.834311203585195	1376.087876533052
0.8345197813860912	1381.984943559127
0.8347284113314379	1388.511122946441
0.8349370934342709	1394.6433395362305
0.8351458277076294	1400.6154022126334
0.8353546141645565	1406.0732429073846
0.8355634528180977	1409.874038637273
0.8357723436813022	1417.1327355282285
0.8359812867672226	1423.5738903059887
0.8361902820889144	1429.3020740068205
0.8363993296594368	1434.4273776787652
0.8366084294918518	1441.7682245737124
0.8368175815992247	1449.2836520075293
0.8370267859946247	1455.0312770397786
0.8372360426911234	1460.1625480134267
0.8374453517017962	1465.889634376754
0.8376547130397217	1470.4005927664252
0.8378641267179816	1479.358126251462
0.8380735927496613	1486.741283852629
0.8382831111478488	1491.910578867889
0.8384926819256358	1494.721220437524
0.8387023050961173	1500.7702790538176
0.8389119806723914	1509.9611744123547
0.8391217086675596	1518.0609123630545
0.8393314890947265	1525.2595741801376
0.8395413219670003	1530.9392907209938
0.8397512072974922	1537.2861279533022
0.8399611450993165	1542.4212305920191
0.8401711353855914	1544.6012977444366
0.8403811781694378	1554.5556401841575
0.8405912734639802	1563.335592531712
0.8408014212823464	1568.3521172327064
0.8410116216376671	1576.7137156687797
0.8412218745430766	1584.0005512420068
0.8414321800117124	1591.0493943644594
0.8416425380567154	1597.4868622292267
0.8418529486912297	1604.0375016799355
0.8420634119284025	1610.5501447221823
0.8422739277813847	1618.0443655253073
0.8424844962633302	1625.0576436891947
0.842695117387396	1631.2112574498144
0.8429057911667428	1637.3213801911345
0.8431165176145345	1644.8543843797167
0.8433272967439382	1652.600253575974
0.8435381285681244	1659.6387859985598
0.8437490131002665	1666.6750830551248
0.8439599503535415	1673.43044913021
0.84417094034113	1678.9272071803039
0.8443819830762154	1686.6071141637167
0.8445930785719846	1691.3917623800019
0.8448042268416277	1701.2887805592488
0.8450154278983382	1709.107397818933
0.8452266817553128	1716.303259041936
0.8454379884257517	1722.630199113702
0.8456493479228583	1728.8719438228154
0.845860760259839	1737.961687019435
0.846072225449904	1745.5470994603784
0.8462837435062666	1750.01711789188
0.8464953144421433	1750.76646607817
0.8467069382707537	1759.9810043661573
0.8469186150053215	1773.709900876574
0.847130344659073	1782.1436580129052
0.8473421272452377	1789.6508142751125
0.8475539627770492	1796.2497135592137
0.8477658512677435	1804.3980031545009
0.8479777927305605	1811.8403802312441
0.8481897871787432	1818.8819525391618
0.848401834625538	1827.2680707219304
0.8486139350841944	1835.4847631509883
0.8488260885679657	1841.4821019803585
0.8490382950901076	1846.6475758215572
0.8492505546638802	1857.0317438875672
0.8494628673025462	1865.6412155553521
0.8496752330193721	1873.9714754532747
0.8498876518276269	1882.047506787105
0.8501001237405839	1889.744063146719
0.8503126487715191	1897.4763931666625
0.850525226933712	1905.570456017139
0.8507378582404455	1913.6763744481088
0.8509505427050057	1921.6812377251101
0.8511632803406821	1929.6988032196857
0.8513760711607672	1937.7514663337424
0.8515889151785576	1945.7685521765152
0.8518018124073523	1953.6600686081244
0.8520147628604541	1961.3395710095788
0.8522277665511693	1968.237290849467
0.8524408234928071	1978.2094924659518
0.8526539336986805	1986.6199345274258
0.8528670971821053	1994.9032850782462
0.8530803139564007	2003.0625641654162
0.8532935840348901	2011.3952612967175
0.8535069074308987	2019.8107297597442
0.8537202841577566	2028.2621940631775
0.8539337142287962	2036.274714697326
0.8541471976573534	2043.021695828559
0.8543607344567677	2052.7313185776343
0.8545743246403821	2062.3591298219167
0.8547879682215422	2071.016065855817
0.8550016652135977	2079.288346741519
0.8552154156299011	2087.683760399339
0.8554292194838088	2096.2294617468965
0.8556430767886797	2104.483245354908
0.855856987557877	2114.1443653208225
0.8560709518047664	2123.072510424575
0.8562849695427177	2131.737248585462
0.8564990407851035	2140.641084838309
0.8567131655452999	2149.630756677794
0.8569273438366862	2158.606336545364
0.8571415756726455	2167.1738635370484
0.8573558610665638	2175.166581557976
0.8575702000318304	2184.635053942287
0.8577845925818384	2194.15148838664
0.857999038729984	2203.398048050383
0.8582135384896665	2212.553116304921
0.858428091874289	2221.408935226765
0.8586426988972576	2230.374978176315
0.8588573595719821	2239.6733663737514
0.8590720739118751	2248.8884422871865
0.8592868419303532	2257.933422565385
0.8595016636408359	2267.383132655488
0.8597165390567462	2277.065557473106
0.8599314681915105	2286.4349582104355
0.8601464510585584	2295.8247945890134
0.860361487671323	2305.173978417316
0.8605765780432408	2314.595353491422
0.8607917221877518	2323.6401317690534
0.8610069201182988	2333.213987450471
0.8612221718483286	2341.9915038030035
0.8614374773912907	2349.7809460907115
0.8616528367606385	2359.855182030355
0.8618682499698288	2366.9221770927566
0.8620837170323213	2375.8962062813416
0.8622992379615795	2387.009350827501
0.8625148127710699	2393.019098835868
0.8627304414742627	2402.303296905162
0.8629461240846313	2416.6199575291043
0.8631618606156526	2425.2047827895144
0.8633776510808066	2435.8638946446004
0.8635934954935769	2446.6832204571365
0.8638093938674504	2457.5762342155303
0.8640253462159173	2466.3223030692916
0.8642413525524714	2472.226042977737
0.8644574128906095	2486.9593454237092
0.8646735272438323	2496.3446797167726
0.8648896956256433	2505.073189235679
0.8651059180495498	2519.1989281345745
0.8653221945290621	2529.3799434387643
0.8655385250776946	2540.0073796593365
0.8657549097089641	2551.521390158242
0.8659713484363913	2562.37770693349
0.8661878412735006	2572.6852564282426
0.866404388233819	2582.4763956997085
0.8666209893308775	2593.01084384236
0.8668376445782103	2605.143768761362
0.8670543539893549	2615.78119917333
0.8672711175778525	2625.8821015781987
0.8674879353572469	2636.2187078826687
0.8677048073410862	2647.2453262221557
0.8679217335429217	2658.3294257919165
0.8681387139763074	2668.6774551334142
0.8683557486548015	2677.5183568198627
0.8685728375919655	2689.152665845714
0.8687899808013633	2701.8134174660872
0.8690071782965637	2713.1761708623617
0.869224430091138	2724.36166667321
0.8694417361986609	2734.1152637974847
0.8696590966327107	2743.5794578890277
0.869876511406869	2754.9133956396613
0.8700939805347206	2766.1419595209723
0.8703115040298544	2779.5423682210494
0.870529081905862	2790.987932168332
0.8707467141763385	2801.4127617318077
0.8709644008548827	2811.469297697478
0.8711821419550964	2822.7410357866042
0.8713999374905854	2833.816421329107
0.871617787474958	2847.9030188750758
0.8718356919218269	2858.94957741585
0.8720536508448075	2867.8431291809725
0.8722716642575187	2879.2100104267265
0.8724897321735832	2892.513215412844
0.8727078546066265	2905.142191871707
0.8729260315702784	2917.610380040111
0.873144263078171	2929.853966539747
0.8733625491439405	2941.3454472768376
0.8735808897812266	2951.8050745446485
0.8737992850036719	2963.293245871629
0.874017734824923	2972.6752911293424
0.8742362392586293	2988.149243278693
0.874454798318444	3000.3026015395394
0.8746734120180236	3012.214066902954
0.8748920803710283	3025.4321787808567
0.875110803391121	3037.3797559346103
0.8753295810919689	3049.789255856299
0.875548413487242	3062.5299432325432
0.8757673005906139	3074.8627552252315
0.8759862424157616	3086.82802495082
0.8762052389763657	3098.8932546947635
0.8764242902861098	3110.824060754386
0.8766433963586814	3123.8920198052383
0.8768625572077712	3135.119931454056
0.8770817728470732	3146.2565370463867
0.8773010432902849	3161.0297853857955
0.8775203685511077	3175.295271161293
0.8777397486432454	3188.3333984131928
0.8779591835804065	3200.6084201432027
0.8781786733763015	3213.2893711532606
0.8783982180446457	3226.522695014717
0.878617817599157	3238.7328074684206
0.8788374720535569	3251.533140635841
0.8790571814215703	3263.8849684572297
0.8792769457169257	3276.701769959614
0.879496764953355	3291.4664122635018
0.8797166391445934	3305.3491992791814
0.8799365683043796	3318.3348815991803
0.8801565524464557	3331.0075078509717
0.8803765915845676	3343.923112873114
0.8805966857324639	3357.416814255131
0.880816834903897	3369.662548190477
0.881037039112623	3383.2755682924712
0.8812572983724012	3396.4374739680693
0.8814776126969944	3408.4968573192086
0.8816979821001687	3423.926265262076
0.8819184065956938	3439.4815341763615
0.8821388861973429	3452.636870158305
0.8823594209188923	3465.108634817238
0.882580010774122	3479.970478094201
0.8828006557768155	3494.528907192456
0.8830213559407598	3508.2099291964355
0.8832421112797452	3521.997175974378
0.8834629218075651	3534.405033154953
0.8836837875380171	3546.3574282269096
0.8839047084849018	3562.1957592909384
0.884125684662023	3578.9238630880714
0.8843467160831886	3593.4336672768154
0.8845678027622095	3607.481196898825
0.8847889447129001	3620.6751866641634
0.8850101419490785	3635.0363897695393
0.8852313944845657	3649.0015450427036
0.885452702333187	3664.773061183023
0.8856740655087704	3678.638503130371
0.8858954840251476	3689.6280183248914
0.8861169578961539	3704.5473062468263
0.886338487135628	3722.6437423905168
0.886560071757412	3738.247302709414
0.8867817117753515	3752.996106349684
0.8870034072032955	3767.6705071718497
0.8872251580550963	3781.5282462854384
0.8874469643446101	3796.416822907065
0.8876688260856963	3811.1903420131584
0.8878907432922178	3827.0261720378417
0.8881127159780409	3842.0340704194873
0.8883347441570356	3855.21955623838
0.8885568278430749	3868.9487631943953
0.8887789670500358	3886.0578023332773
0.8890011617917983	3902.0917321518587
0.8892234120822464	3919.3711765799317
0.8894457179352669	3934.9589787625036
0.8896680793647509	3949.619625408354
0.8898904963845921	3963.5077440730183
0.8901129690086883	3979.2196004502707
0.8903354972509405	3996.4009974611504
0.8905580811252535	4012.5521458344397
0.8907807206455347	4016.0104277762753
0.8910034158256963	3994.038380895569
0.8912261666796527	4038.7819342302387
0.8914489732213227	4072.2497977311114
0.8916718354646282	4083.897492309333
0.8918947534234944	4093.999410721729
0.8921177271118502	4099.648669529041
0.8923407565436284	4091.7056219928472
0.8925638417327644	4129.664739207668
0.8927869826931977	4166.269677252068
0.8930101794388711	4182.816693044995
0.8932334319837308	4175.65728783022
0.8934567403417267	4177.539816038905
0.8936801045268123	4223.332050429988
0.8939035245529441	4245.019992504436
0.8941270004340824	4259.168820260868
0.894350532184191	4259.654682017707
0.8945741198172371	4287.853087076934
0.8947977633471915	4319.096139131037
0.8950214627880284	4336.611673819235
0.8952452181537254	4349.514338649492
0.8954690294582639	4363.123491977893
0.8956928967156286	4384.1244188788405
0.8959168199398075	4395.886293905247
0.8961407991447926	4413.123737439697
0.8963648343445789	4410.179389430004
0.896588925553165	4357.987731761858
0.8968130727845534	4398.343895106912
0.8970372760527496	4449.482430085446
0.8972615353717629	4320.625959872159
0.8974858507556059	4296.825967034505
0.8977102222182949	4506.92694121131
0.8979346497738496	4563.867387917503
0.8981591334362931	4580.330781977379
0.8983836732196523	4595.5629734751055
0.8986082691379572	4611.516329335718
0.8988329212052417	4518.719302877715
0.8990576294355432	4372.389843728799
0.8992823938429022	4502.276413318873
0.8995072144413631	4622.925210060609
0.8997320912449734	4698.39415766512
0.8999570242677847	4724.092420036004
0.9001820135238516	4738.430840936469
0.9004070590272328	4727.466052330877
0.9006321607919896	4678.581302497987
0.9008573188321878	4725.443310719353
0.9010825331618959	4740.696546106045
0.9013078037951865	4815.219142565755
0.9015331307461353	4845.09259270594
0.9017585140288219	4868.482146635985
0.9019839536573292	4890.507491352319
0.9022094496457435	4912.9742723883455
0.9024350020081551	4931.073314412517
0.9026606107586572	4947.077851491749
0.902886275911347	4964.122180750907
0.9031119974803249	4978.1491580391585
0.9033377754796951	4996.997580400911
0.903563609923565	5024.583150758903
0.903789500826046	5044.762817975303
0.9040154482012526	5056.856871983568
0.904241452063303	5083.249045476813
0.9044675124263188	5099.530045038882
0.9046936293044254	5112.9734110539985
0.9049198027117517	5132.387631427751
0.9051460326624297	5158.528827386909
0.9053723191705955	5184.353917894629
0.9055986622503881	5205.064573852564
0.9058250619159507	5226.054911636092
0.9060515181814298	5245.173627837835
0.9062780310609752	5254.888683994294
0.9065046005687405	5271.566413666568
0.906731226718883	5298.40028056517
0.9069579095255627	5321.071923360242
0.907184649002944	5336.0674381890585
0.907411445165195	5359.1986095829525
0.9076382980264862	5381.800269383605
0.907865207600993	5399.067022226286
0.9080921739028933	5413.413593207573
0.9083191969463691	5431.332105602106
0.9085462767456058	5451.01098557632
0.9087734133147922	5457.704011487266
0.9090006066681211	5497.05810318244
0.909227856819788	5526.983953288406
0.9094551637839932	5547.932311732085
0.9096825275749393	5566.828688276283
0.9099099482068329	5577.604267223585
0.9101374256938848	5596.539061443861
0.9103649600503083	5615.724023468453
0.9105925512903209	5640.554229378558
0.9108201994281437	5617.081895160332
0.9110479044780008	5658.105077049263
0.9112756664541204	5718.921530896351
0.911503485370734	5746.386433215555
0.9117313612420768	5756.2789081892215
0.9119592940823873	5782.220372931838
0.912187283905908	5812.69539312944
0.9124153307268845	5837.095690727595
0.9126434345595664	5859.4248229424265
0.9128715954182063	5879.410217726586
0.9130998133170609	5895.614573622271
0.9133280882703902	5909.7761681400125
0.913556420292458	5936.079487584229
0.9137848093975312	5957.437651392716
0.9140132555998806	5989.975204623534
0.9142417589137806	6011.663800527084
0.9144703193535092	5987.804557876065
