#wavelength	surface flux
0.7	1540.482242161804
0.7001166666666666	1544.7808317839572
0.7002333527777778	1549.1974383069708
0.700350058336574	1553.9079099874527
0.7004667833462966	1558.5450004167487
0.7005835278101878	1563.1273916731102
0.7007002917314895	1567.468479463355
0.7008170751134447	1571.766084525225
0.7009338779592968	1576.038463922886
0.7010507002722901	1580.121498221685
0.7011675420556689	1583.957303866445
0.701284403312678	1588.7032606020268
0.7014012840465635	1593.7917036531499
0.7015181842605713	1598.1496208803744
0.701635103957948	1602.2904862103705
0.701752043141941	1605.924387947177
0.701869001815798	1609.841404540622
0.7019859799827672	1613.9554530334442
0.7021029776460976	1619.2090716015866
0.7022199948090387	1624.4957010434757
0.7023370314748403	1629.186534823083
0.7024540876467528	1633.956387091975
0.702571163328027	1638.8181322107755
0.7026882585219152	1643.3471258788118
0.7028053732316688	1647.7784589452137
0.7029225074605406	1652.4307387292934
0.7030396612117841	1656.9121010636593
0.7031568344886527	1661.0586902643452
0.7032740272944008	1665.7173848829595
0.7033912396322832	1670.6751126956237
0.7035084715055552	1675.5889376702505
0.7036257229174727	1680.4042409274812
0.7037429938712924	1684.879667247689
0.7038602843702709	1689.4872677339436
0.7039775944176659	1694.2199381089783
0.7040949240167356	1699.0234661725528
0.7042122731707383	1703.843450649857
0.7043296418829335	1708.6566535778497
0.7044470301565806	1713.4125204204604
0.70456443799494	1718.0821892961817
0.7046818654012724	1722.7453360691113
0.7047993123788394	1727.4060882481563
0.7049167789309024	1732.1514691147518
0.7050342650607243	1736.9865098989414
0.7051517707715678	1742.0370330534984
0.7052692960666963	1746.937679596299
0.705386840949374	1751.7342272619442
0.7055044054228656	1756.522964301244
0.7056219894904361	1761.3478832383319
0.7057395931553511	1766.332174530472
0.705857216420877	1771.329140445218
0.7059748592902804	1776.3394456028134
0.7060925217668288	1781.2314643518955
0.70621020385379	1786.0939663107981
0.7063279055544321	1790.9787892453844
0.7064456268720246	1795.9283776924005
0.7065633678098366	1800.9798566745274
0.7066811283711383	1805.94951777196
0.7067989085592001	1810.8826772447578
0.7069167083772933	1815.737794248425
0.7070345278286895	1820.474175817488
0.707152366916661	1824.9247004851507
0.7072702256444803	1829.339311113584
0.7073881040154211	1833.7297902489863
0.7075060020327569	1839.5776680289782
0.7076239196997625	1845.4967318988627
0.7077418570197124	1851.0501207367993
0.7078598139958823	1856.2895977620153
0.7079777906315483	1861.2238552185754
0.7080957869299869	1866.2695885378917
0.7082138028944751	1871.3660821025662
0.7083318385282908	1876.6466105754964
0.7084498938347124	1881.875224479276
0.708567968817018	1887.0325734251592
0.7086860634784875	1891.9990985129696
0.7088041778224007	1896.8689925983238
0.7089223118520377	1901.0276245026162
0.7090404655706796	1905.9656495410202
0.709158638981608	1912.3997401976687
0.709276832088105	1917.9088021627285
0.7093950448934531	1922.9201512357217
0.7095132774009353	1926.1081951657125
0.7096315296138355	1930.3847431920672
0.7097498015354378	1937.8745318810124
0.7098680931690269	1944.0465666029609
0.7099864045178884	1949.2470959719526
0.7101047355853081	1954.9343976280384
0.7102230863745722	1960.637054217974
0.7103414568889679	1966.1397623194998
0.7104598471317828	1971.6427837961833
0.7105782571063047	1977.1461317568808
0.7106966868158224	1982.3414583528602
0.710815136263625	1987.5475294678974
0.7109336054530023	1993.2962621308152
0.7110520943872445	1998.9522343756523
0.7111706030696424	2004.489684645036
0.7112891315034873	2010.018252059955
0.7114076796920712	2015.5542634193134
0.7115262476386865	2021.2320807494755
0.7116448353466263	2026.8112571676847
0.711763442819184	2032.2275191397193
0.711882070059654	2037.834708272988
0.7120007170713306	2043.526165111752
0.7121193838575091	2049.000594695784
0.7122380704214853	2054.5626433402776
0.7123567767665555	2060.3092555489343
0.7124755028960166	2065.816001927534
0.7125942488131658	2071.185778545325
0.7127130145213015	2076.29517226849
0.7128318000237216	2081.634099192373
0.7129506053237256	2087.635936014753
0.7130694304246129	2093.574773027004
0.7131882753296837	2099.4690608483634
0.7133071400422386	2105.135663693842
0.7134260245655789	2110.3429539838644
0.7135449289030065	2113.9978840928966
0.7136638530578235	2119.837215309849
0.7137827970333332	2127.561280159253
0.7139017608328388	2133.757899646216
0.7140207444596443	2139.679991098216
0.7141397479170543	2145.522165929655
0.7142587712083737	2151.098580424146
0.7143778143369084	2156.4024237404656
0.7144968773059646	2162.9099571366214
0.7146159601188489	2169.5889081517635
0.7147350627788687	2175.5893598020825
0.7148541852893318	2181.607954057979
0.7149733276535467	2187.648098942083
0.7150924898748222	2193.2580632645036
0.715211671956468	2198.830608869164
0.7153308739017941	2205.196482144361
0.715450095714111	2211.4772656010573
0.71556933739673	2217.6401982380958
0.7156885989529628	2223.665390896052
0.7158078803861218	2229.6046241992344
0.7159271816995193	2234.9944135960172
0.7160465028964692	2240.275974243119
0.7161658439802853	2245.3875059989177
0.7162852049542819	2249.880239786434
0.7164045858217744	2254.2005075860548
0.716523986586078	2260.404887110939
0.7166434072505089	2262.394224192144
0.716762847818384	2256.9996015428883
0.7168823082930204	2265.8683094888625
0.7170017886777359	2281.099175883755
0.7171212889758488	2291.136472994637
0.7172408091906781	2299.1199737969473
0.7173603493255433	2303.1396432385636
0.7174799093837642	2308.4812618446954
0.7175994893686615	2314.4794927564467
0.7177190892835562	2322.275615478633
0.7178387091317702	2330.380804246219
0.7179583489166254	2339.114642155675
0.7180780086414448	2345.387270604708
0.7181976883095517	2350.3458367941034
0.7183173879242699	2358.259739765649
0.718437107488924	2365.8131314262014
0.7185568470068389	2372.4325339436255
0.7186766064813399	2377.694364739235
0.7187963859157535	2382.191593374138
0.7189161853134061	2390.411247810363
0.719036004677625	2398.2469762477454
0.7191558440117378	2404.9173547488213
0.7192757033190732	2411.613945575945
0.7193955826029597	2418.3262955366354
0.7195154818667269	2424.552967191105
0.7196354011137046	2430.8416211102904
0.7197553403472235	2437.3213200043288
0.7198752995706147	2444.1926800039228
0.7199952787872098	2451.2968748116446
0.720115278000341	2457.67354247161
0.7202352972133411	2464.031188907715
0.7203553364295432	2470.413338109055
0.7204753956522815	2476.752229978601
0.7205954748848902	2483.0659186584962
0.7207155741307044	2489.9283566432387
0.7208356933930594	2496.9257934998323
0.7209558326752915	2504.1903189912655
0.7210759919807375	2510.6592918429674
0.7211961713127342	2516.666178555152
0.7213163706746197	2522.0103609678304
0.7214365900697322	2527.8454310895704
0.7215568295014103	2534.851510418642
0.721677088972994	2542.6145147185644
0.7217973684878227	2550.8021140787837
0.7219176680492374	2556.4403516350944
0.7220379876605789	2562.814273768581
0.722158327325189	2570.9056360441427
0.7222786870464099	2578.848398358297
0.7223990668275843	2586.713058464931
0.7225194666720555	2593.7530511818827
0.7226398865831676	2600.6943608504466
0.7227603265642646	2607.4482089550015
0.722880786618692	2613.2878379751005
0.7230012667497951	2618.7031295739694
0.7231217669609201	2626.4046994332316
0.7232422872554135	2633.767723314872
0.7233628276366229	2640.5031718838627
0.7234833881078956	2648.013506995696
0.7236039686725803	2655.7657636792806
0.7237245693340255	2660.4537759032946
0.7238451900955812	2666.517457012769
0.7239658309605971	2674.8774740053505
0.7240864919324239	2683.4345056095126
0.7242071730144127	2691.9731527257813
0.724327874209915	2698.9763521686864
0.7244485955222832	2706.3246327461598
0.7245693369548704	2714.184662407832
0.7246900985110294	2721.7068935928055
0.7248108801941148	2729.1228856675048
0.7249316820074803	2736.6202742288865
0.7250525039544815	2744.038942386795
0.7251733460384739	2751.3547729570514
0.7252942082628137	2758.567291017451
0.7254150906308574	2765.69358980707
0.7255359931459625	2772.415514065854
0.7256569158114868	2779.3078470791697
0.7257778586307888	2786.3917403317278
0.7258988216072273	2794.2288203028857
0.7260198047441617	2802.2329008975153
0.7261408080449525	2810.2238881534468
0.72626183151296	2817.8003355220417
0.7263828751515454	2824.9798609263535
0.7265039389640706	2832.9317531996826
0.726625022953898	2840.7329547448867
0.7267461271243904	2847.463858410019
0.7268672514789111	2854.4015164059024
0.7269883960208241	2861.5050833547098
0.7271095607534942	2870.2215847676416
0.7272307456802866	2878.7624814271812
0.7273519508045666	2886.2815905435023
0.7274731761297006	2893.5815153976255
0.7275944216590555	2900.7378882863377
0.7277156873959987	2908.0959075922724
0.7278369733438982	2914.6383503520624
0.727958279506122	2919.296918298614
0.7280796058860397	2928.3394739363944
0.7282009524870207	2939.6604009264247
0.7283223193124353	2948.365385539509
0.7284437063656539	2956.767324737909
0.7285651136500483	2964.6293833820414
0.7286865411689898	2972.344824081015
0.7288079889258514	2979.9458429889437
0.7289294569240056	2986.751758405183
0.7290509451668262	2994.1192638965845
0.7291724536576875	3002.2641820709514
0.7292939823999636	3010.858554497474
0.7294155313970303	3019.5524668607773
0.7295371006522632	3028.0208116791996
0.7296586901690385	3036.094425506085
0.7297802999507332	3043.744761003912
0.7299019300007252	3049.7490868466966
0.7300235803223919	3055.864920823476
0.7301452509191123	3063.765988589995
0.7302669417942654	3071.5380594467556
0.7303886529512311	3079.204829351823
0.7305103843933897	3081.481784466739
0.7306321361241218	3086.8302462978013
0.7307539081468093	3102.29116951572
0.7308757004648336	3113.6139895179163
0.7309975130815778	3122.417134532149
0.7311193460004248	3131.4430642236503
0.7312411992247582	3140.4256378526657
0.7313630727579622	3149.3128413267464
0.7314849666034219	3157.698948619724
0.7316068807645224	3165.7944584699276
0.7317288152446498	3172.6617609717214
0.7318507700471907	3180.260918241231
0.7319727451755319	3188.886042626505
0.732094740633061	3198.8921700194787
0.7322167564231665	3208.8854830844703
0.7323387925492371	3216.2956055161712
0.7324608490146619	3224.926394729171
0.732582925822831	3234.7854417663525
0.7327050229771347	3243.8368165422407
0.7328271404809642	3252.6509958193014
0.7329492783377112	3261.0917644478045
0.7330714365507675	3269.7878741902523
0.7331936151235259	3278.6657627837812
0.7333158140593796	3286.8256674084632
0.7334380333617229	3295.0411220451333
0.7335602730339499	3303.465739555651
0.7336825330794556	3312.3670258298393
0.7338048135016354	3321.4027990480013
0.7339271143038857	3328.101784905669
0.734049435489603	3331.436954500944
0.7341717770621846	3329.8107316798937
0.7342941390250283	3338.0292034114846
0.7344165213815324	3349.133078656674
0.734538924135096	3359.8031176926806
0.7346613472891185	3370.1304530748816
0.734783790847	3380.116494648398
0.7349062548121412	3387.762838296157
0.7350287391879431	3393.098855079931
0.7351512439778078	3392.059691441538
0.7352737691851374	3403.400930203363
0.735396314813335	3422.9280755993645
0.7355188808658037	3433.8604791143957
0.7356414673459482	3444.7029336909495
0.7357640742571725	3455.889204207919
0.7358867016028818	3465.4972568369976
0.7360093493864824	3474.417299080017
0.7361320176113801	3482.9173024146776
0.736254706280982	3490.911190773753
0.7363774153986956	3498.2756070263104
0.7365001449679286	3500.157484459709
0.7366228949920899	3502.7853041206968
0.7367456654745885	3514.061673657887
0.7368684564188344	3529.87135164564
0.7369912678282374	3549.2809033321014
0.7371140997062088	3561.241957011809
0.7372369520561599	3571.8611630664836
0.7373598248815024	3580.6838287522305
0.7374827181856494	3589.775093712926
0.7376056319720137	3599.008376070729
0.7377285662440091	3608.466880283614
0.7378515210050496	3616.6637834632097
0.7379744962585505	3623.11036824034
0.738097492007927	3628.421189490073
0.7382205082565949	3633.9748902276237
0.738343545007971	3642.2262841495844
0.7384666022654723	3652.1676423556014
0.7385896800325165	3663.54221791272
0.7387127783125219	3673.701904121136
0.7388358971089073	3683.935672784721
0.7389590364250921	3694.617695653871
0.7390821962644963	3705.338335670847
0.7392053766305403	3716.101075987624
0.7393285775266454	3727.346673746343
0.7394517989562333	3738.2327398025786
0.7395750409227259	3748.6222161398555
0.7396983034295463	3759.0561720779483
0.739821586480118	3769.309020767542
0.7399448900778645	3778.650873564261
0.7400682142262109	3786.901656620095
0.740191558928582	3794.2709401867164
0.7403149241884034	3803.2581526876256
0.7404383100091014	3812.499973978015
0.7405617163941028	3822.0417302016613
0.7406851433468352	3832.31831008328
0.7408085908707264	3842.453308870236
0.7409320589692048	3846.2646095787377
0.7410555476456997	3855.984544706454
0.7411790569036406	3872.933453025312
0.7413025867464579	3882.8465210206023
0.7414261371775823	3890.5312689125853
0.7415497082004452	3895.2620827220035
0.7416732998184786	3903.2258385473133
0.741796912035115	3913.4089068320636
0.7419205448537874	3922.721215562019
0.7420441982779297	3933.209399945023
0.742167872310976	3945.850954158006
0.7422915669563612	3958.849926239253
0.7424152822175206	3971.704752447696
0.7425390180978901	3982.638557872861
0.7426627746009065	3993.1403593451196
0.7427865517300065	4003.22240370826
0.7429103494886282	4016.0633919601746
0.7430341678802096	4028.8460318197904
0.7431580069081896	4040.5900942272588
0.7432818665760077	4051.5018827096646
0.7434057468871037	4061.978530709298
0.7435296478449182	4072.2724522718795
0.7436535694528923	4082.96625137446
0.7437775117144678	4094.184821417964
0.7439014746330868	4103.369770811617
0.7440254582121922	4112.287721628992
0.7441494624552276	4121.914110981268
0.7442734873656368	4130.807974329111
0.7443975329468645	4139.198371534189
0.7445215992023557	4149.168025904879
0.7446456861355559	4157.202969200697
0.7447697937499119	4161.860784988488
0.7448939220488703	4171.934791933998
0.7450180710358784	4183.951341258966
0.7451422407143843	4197.137774816771
0.7452664310878367	4210.037900448853
0.7453906421596846	4222.689289672885
0.7455148739333779	4235.001604502386
0.7456391264123667	4247.358751987248
0.7457633996001021	4259.871540208127
0.7458876935000356	4271.943756979905
0.7460120081156189	4283.836310186354
0.7461363434503048	4295.759896672017
0.7462606995075466	4307.073948364942
0.7463850762907978	4317.7484658321755
0.7465094738035127	4328.4011765372215
0.7466338920491467	4339.753937535327
0.746758331031155	4352.982595509669
0.7468827907529935	4365.325992236023
0.7470072712181189	4377.253602031817
0.7471317724299886	4389.6490703956615
0.7472562943920602	4401.863616478007
0.7473808371077922	4413.858383673799
0.7475054005806435	4423.45829232997
0.7476299848140736	4432.9164168137095
0.7477545898115426	4443.298961280053
0.7478792155765113	4454.651680248659
0.7480038621124406	4466.477192815724
0.7481285294227926	4475.66626233225
0.7482532175110298	4487.462128103794
0.7483779263806148	4502.759387103159
0.7485026560350116	4515.476841583062
0.7486274064776842	4527.605166669018
0.748752177712097	4539.6080312630975
0.7488769697417158	4552.68591164517
0.749001782570006	4566.41613869693
0.7491266162004343	4579.001219424877
0.7492514706364677	4591.189381766731
0.7493763458815739	4602.810587303629
0.7495012419392209	4614.99301755374
0.7496261588128773	4627.283131450918
0.7497510965060128	4639.480742702059
0.7498760550220971	4651.877633850489
0.7500010343646007	4664.399158048305
0.7501260345369949	4676.409304270761
0.750251055542751	4688.126225324916
0.7503760973853414	4699.417325257454
0.7505011600682389	4711.529963031883
0.750626243594917	4723.540952423511
0.7507513479688495	4734.4337800955445
0.7508764731935109	4744.6620260017635
0.7510016192723765	4754.500577321799
0.7511267862089218	4766.830483417237
0.7512519740066232	4779.32315957342
0.7513771826689577	4792.044348742746
0.7515024121994025	4805.360734818577
0.7516276626014359	4818.5860697663875
0.751752933878536	4831.018209132159
0.7518782260341824	4842.801240567789
0.7520035390718548	4854.262816027902
0.7521288729950334	4868.081601147646
0.7522542278071992	4881.595690313077
0.7523796035118337	4894.709294450734
0.7525050001124189	4907.580608254251
0.7526304176124378	4920.044025801944
0.7527558560153731	4931.377040443619
0.752881315324709	4944.739982146789
0.7530067955439299	4959.150619422481
0.7531322966765205	4972.5909619888425
0.7532578187259665	4986.007668530041
0.7533833616957542	4999.396306322862
0.75350892558937	5012.1327029270715
0.7536345104103016	5024.806713568855
0.7537601161620366	5037.576480552527
0.7538857428480638	5049.832377301587
0.7540113904718717	5061.881348211298
0.7541370590369503	5074.24425680204
0.7542627485467898	5086.8997344315385
0.7543884590048808	5099.848769262337
0.7545141904147151	5114.3719915784295
0.7546399427797842	5128.580463190499
0.7547657161035808	5141.7683646127225
0.754891510389598	5154.978084901736
0.7550173256413296	5168.163182374374
0.7551431618622698	5181.1364353130475
0.7552690190559135	5194.369265743817
0.7553948972257561	5207.816321988133
0.7555207963752938	5221.426506650111
0.755646716508023	5235.066841403694
0.755772657627441	5248.745201983535
0.7558986197370455	5262.380026894566
0.756024602840335	5275.932964943987
0.7561506069408084	5289.193670565865
0.7562766320419653	5302.677451986531
0.7564026781473054	5316.300272639955
0.75652874526033	5329.667800501996
0.7566548333845401	5343.202672941288
0.7567809425234375	5356.9544023033295
0.7569070726805247	5370.481771817368
0.7570332238593047	5384.037371228981
0.7571593960632813	5397.780766593369
0.7572855892959586	5410.896544755885
0.7574118035608413	5423.730297955666
0.7575380388614347	5436.70840747627
0.7576642952012449	5450.456784896948
0.7577905725837782	5464.947798003964
0.7579168710125422	5478.882303168987
0.7580431904910444	5492.864296467105
0.7581695310227928	5507.022370759662
0.7582958926112967	5520.982394836759
0.7584222752600652	5534.94842616555
0.7585486789726085	5549.231701247445
0.7586751037524372	5563.352856046323
0.7588015496030628	5577.368755455936
0.7589280165279966	5591.775461834894
0.7590545045307512	5606.067134325091
0.7591810136148396	5620.206067924286
0.7593075437837755	5634.674206147281
0.7594340950410726	5649.09591917893
0.7595606673902461	5663.231054481894
0.7596872608348112	5677.322121177976
0.7598138753782836	5691.414425296145
0.75994051102418	5705.670129586335
0.7600671677760173	5720.201177736051
0.7601938456373134	5734.976449506514
0.7603205446115863	5749.37307957102
0.7604472647023548	5763.72649854518
0.7605740059131385	5778.038342145305
0.7607007682474575	5792.397581506074
0.7608275517088319	5806.783067258095
0.7609543563007835	5821.215043613803
0.7610811820268336	5835.685555622665
0.7612080288905045	5850.182383658149
0.7613348968953197	5864.734720178844
0.7614617860448022	5879.317296908981
0.7615886963424764	5893.931617046179
0.7617156277918667	5908.600966059254
0.7618425803964988	5923.297149201259
0.7619695541598982	5938.03392546429
0.7620965490855914	5952.816965418748
0.7622235651771058	5967.627016301958
0.7623506024379685	5982.486650116329
0.7624776608717082	5997.30457070818
0.7626047404818536	6012.080845338174
0.7627318412719337	6026.446513795614
0.762858963245479	6041.003128431884
0.7629861064060198	6055.780162592333
0.7631132707570876	6070.292957545546
0.7632404563022137	6084.908919766753
0.7633676630449308	6099.813489276507
0.7634948909887717	6114.389152420294
0.7636221401372697	6128.816827936767
0.7637494104939593	6143.069006840009
0.7638767020623748	6157.05598755178
0.7640040148460518	6170.877750709351
0.7641313488485262	6184.977064433862
0.7642587040733344	6198.633562551168
0.7643860805240132	6211.771653680193
0.7645134782041005	6225.033887631692
0.7646408971171346	6237.829890748959
0.764768337266654	6249.605170986947
0.7648957986561985	6259.944709381735
0.7650232812893079	6269.851387881319
0.7651507851695227	6279.941805959104
0.7652783103003843	6287.714869814787
