#wavelength	surface flux
0.8	10099.16005620274
0.8002000000000001	10138.7827097986
0.8004000500000003	10177.317284177061
0.8006001500125003	10217.781500902458
0.8008003000500035	10254.613860941472
0.8010005001250161	10293.588177794407
0.8012007502500472	10338.173908625588
0.8014010504376099	10377.896156817667
0.8016014007002193	10416.269148040512
0.8018018010503944	10454.801756420196
0.8020022515006572	10494.684914900437
0.8022027520635323	10538.863486198143
0.8024033027515483	10580.228923692861
0.8026039035772362	10618.519744398918
0.8028045545531306	10658.744290172732
0.8030052556917691	10698.639621193097
0.803206007005692	10744.974874905576
0.8034068085074435	10787.562540914729
0.8036076602095705	10827.154476731703
0.8038085621246229	10870.232509148209
0.8040095142651542	10910.86026476337
0.8042105166437206	10950.08041597136
0.8044115692728815	10990.668342369236
0.8046126721651998	11028.858718982157
0.8048138253332411	11076.3088720354
0.8050150287895745	11122.231653219998
0.805216282546772	11164.331505963259
0.8054175866174087	11206.345610073251
0.8056189410140631	11249.685860944835
0.8058203457493168	11292.2943580438
0.8060218008357541	11334.377906165128
0.8062233062859632	11373.792778618952
0.8064248621125346	11420.940223066124
0.806626468328063	11466.033826641855
0.8068281249451449	11505.27896073093
0.8070298319763813	11549.715454567253
0.8072315894343755	11594.545565911201
0.8074333973317341	11635.635097137327
0.8076352556810671	11683.627646691015
0.8078371644949874	11730.884324471805
0.8080391237861113	11775.441014404829
0.8082411335670578	11815.344434745944
0.8084431938504498	11862.417730989728
0.8086453046489125	11908.264476669618
0.8088474659750746	11949.477669365617
0.8090496778415686	11994.421461523452
0.809251940261029	12036.964053250846
0.8094542532460944	12073.472337379015
0.8096566168094059	12115.869486296213
0.8098590309636085	12174.804783989104
0.8100614957213493	12220.198226283163
0.8102640110952797	12264.2203666073
0.8104665770980536	12312.194291993757
0.8106691937423283	12352.065083315973
0.8108718610407639	12353.38369478778
0.8110745790060241	12373.989664828647
0.8112773476507757	12463.140189821328
0.8114801669876885	12480.38001783592
0.8116830370294355	12515.660603032538
0.8118859577886929	12630.265095901748
0.8120889292781401	12690.659356903612
0.8122919515104597	12736.805801247794
0.8124950244983374	12786.252080906479
0.8126981482544621	12835.22355336076
0.8129013227915257	12882.846788095143
0.8131045481222237	12915.77930038505
0.8133078242592543	12932.781622736713
0.8135111512153191	12928.388805371542
0.813714529003123	12995.13759623969
0.8139179576353739	13096.378833363495
0.8141214371247829	13115.48972135714
0.8143249674840641	13120.99839810283
0.814528548725935	13136.53335605286
0.8147321808631167	13251.28758024503
0.8149358639083326	13348.932667463196
0.8151395978743097	13369.987249400367
0.8153433827737784	13444.315241925531
0.8155472186194719	13507.945767887166
0.8157511054241268	13563.663903788205
0.815955043200483	13590.994901996595
0.8161590319612831	13655.701534540705
0.8163630717192736	13679.523647926173
0.8165671624872033	13755.763655133818
0.8167713042778252	13836.017004098221
0.8169754971038948	13875.398839381352
0.8171797409781707	13871.763641639542
0.8173840359134155	13976.702516734027
0.8175883819223938	14051.03672972505
0.8177927790178745	14098.056218769787
0.8179972272126291	14121.64464033658
0.8182017265194322	14168.158625233995
0.8184062769510622	14135.651202177602
0.8186108785203001	14287.835143093196
0.8188155312399301	14372.377295437234
0.8190202351227402	14420.741188770618
0.819224990181521	14473.601941071536
0.8194297964290664	14529.441338117816
0.8196346538781738	14573.771292635936
0.8198395625416434	14608.051057019404
0.8200445224322789	14631.084549910544
0.820249533562887	14734.052628597427
0.8204545959462778	14802.601204017721
0.8206597095952644	14858.31984466687
0.8208648745226633	14912.481087575372
0.8210700907412941	14966.809974067944
0.8212753582639793	15025.545905478828
0.8214806771035456	15083.678756425805
0.8216860472728215	15140.848128620124
0.8218914687846397	15194.270722666044
0.822096941651836	15249.318236067493
0.822302465887249	15299.90729253214
0.8225080415037209	15341.599645487622
0.8227136685140968	15350.315967171144
0.8229193469312254	15217.152788722713
0.8231250767679583	15261.769245492904
0.8233308580371503	15401.274556829903
0.8235366907516598	15495.318869384171
0.8237425749243477	15594.859535198686
0.8239485105680789	15721.76490269432
0.824154497695721	15805.999186480913
0.824360536320145	15870.82322540888
0.8245666264542252	15934.348626156027
0.8247727681108388	16003.866620300221
0.8249789613028664	16054.021520823037
0.8251852060431922	16121.39794380296
0.825391502344703	16188.661714032543
0.8255978502202894	16249.91743340544
0.8258042496828445	16307.22270066049
0.8260107007452654	16362.222534238308
0.8262172034204517	16398.30862594901
0.8264237577213068	16439.417281069353
0.8266303636607373	16455.70110813639
0.8268370212516525	16593.038406770214
0.8270437305069654	16673.960106180253
0.8272504914395923	16729.81986168081
0.8274573040624523	16782.849978288123
0.8276641683884679	16847.801229903394
0.8278710844305652	16910.084997826383
0.8280780522016729	16965.31848010993
0.8282850717147234	17004.710765426786
0.8284921429826521	17075.8992118975
0.8286992660183978	17145.75426754019
0.8289064408349024	17144.543619852295
0.8291136674451112	17205.806190578143
0.8293209458619727	17328.248877136713
0.8295282760984382	17392.9274268478
0.829735658167463	17429.75871852617
0.8299430920820048	17499.49004545404
0.8301505778550254	17590.28497846921
0.8303581154994891	17669.868776070023
0.8305657050283641	17731.560378383067
0.8307733464546212	17796.25664245326
0.8309810397912352	17859.654998657315
0.8311887850511829	17913.104885246314
0.8313965822474458	17895.792090219824
0.8316044313930077	17999.63197233169
0.8318123325008561	18102.154135419834
0.8320202855839813	18174.876126966858
0.8322282906553774	18241.247925399857
0.8324363477280413	18274.799145349403
0.8326444568149735	18392.43982361309
0.8328526179291771	18469.25657143921
0.8330608310836596	18498.36822322077
0.8332690962914304	18530.951906062674
0.8334774135655034	18631.37221554732
0.833685782918895	18707.174219946457
0.8338942043646247	18789.150424651347
0.834102677915716	18865.334992326185
0.834311203585195	18930.918650637137
0.8345197813860912	19005.0948379259
0.8347284113314379	19085.776473380018
0.8349370934342709	19156.562491170094
0.8351458277076294	19219.337101623045
0.8353546141645565	19282.716140882392
0.8355634528180977	19320.760150935344
0.8357723436813022	19411.751746503003
0.8359812867672226	19488.756664632067
0.8361902820889144	19556.578813346263
0.8363993296594368	19590.492970214367
0.8366084294918518	19700.144401568123
0.8368175815992247	19788.887174652456
0.8370267859946247	19853.17698316924
0.8372360426911234	19923.217343078275
0.8374453517017962	19980.53729972399
0.8376547130397217	20020.761293816882
0.8378641267179816	20129.378680280937
0.8380735927496613	20222.9319731721
0.8382831111478488	20291.161840091336
0.8384926819256358	20333.155898313868
0.8387023050961173	20393.239353031986
0.8389119806723914	20492.689107084854
0.8391217086675596	20596.36235002395
0.8393314890947265	20678.000875794165
0.8395413219670003	20732.39072636986
0.8397512072974922	20807.96098054937
0.8399611450993165	20863.73804022979
0.8401711353855914	20901.01812922757
0.8403811781694378	21019.68074204543
0.8405912734639802	21105.583918203796
0.8408014212823464	21147.434769487296
0.8410116216376671	21258.61170514458
0.8412218745430766	21353.75150752611
0.8414321800117124	21432.84187637601
0.8416425380567154	21497.868051506506
0.8418529486912297	21568.192783854854
0.8420634119284025	21642.540484831192
0.8422739277813847	21737.087408831067
0.8424844962633302	21823.72699404104
0.842695117387396	21896.924795301067
0.8429057911667428	21962.4625106361
0.8431165176145345	22048.392708184834
0.8433272967439382	22139.311559712023
0.8435381285681244	22218.04174313286
0.8437490131002665	22296.62939379796
0.8439599503535415	22377.11276873178
0.84417094034113	22447.575809917584
0.8443819830762154	22530.161753917026
0.8445930785719846	22595.25692067507
0.8448042268416277	22696.961841030705
0.8450154278983382	22779.73327972513
0.8452266817553128	22861.162212657182
0.8454379884257517	22931.52957470479
0.8456493479228583	22996.19476942735
0.845860760259839	23110.134837175458
0.846072225449904	23198.461826241044
0.8462837435062666	23259.200344822195
0.8464953144421433	23294.13914051067
0.8467069382707537	23390.732167088816
0.8469186150053215	23519.972222083547
0.847130344659073	23606.777771846202
0.8473421272452377	23693.43688230527
0.8475539627770492	23774.32871120058
0.8477658512677435	23864.827630353582
0.8479777927305605	23950.976476687734
0.8481897871787432	24031.534290441556
0.848401834625538	24121.156374751492
0.8486139350841944	24207.57285394973
0.8488260885679657	24275.741968753282
0.8490382950901076	24341.98462926781
0.8492505546638802	24455.938879911602
0.8494628673025462	24550.81785302032
0.8496752330193721	24643.22447395099
0.8498876518276269	24729.892877979742
0.8501001237405839	24817.656748723643
0.8503126487715191	24908.43291503244
0.850525226933712	24999.43696629805
0.8507378582404455	25088.363752167734
0.8509505427050057	25178.762289861468
0.8511632803406821	25269.6075769722
0.8513760711607672	25355.434382452
0.8515889151785576	25443.21861348725
0.8518018124073523	25526.866621737772
0.8520147628604541	25620.15251915833
0.8522277665511693	25704.19083100824
0.8524408234928071	25809.554809091875
0.8526539336986805	25901.54758036665
0.8528670971821053	25992.866620757435
0.8530803139564007	26080.733145922186
0.8532935840348901	26168.59384091392
0.8535069074308987	26263.593879939777
0.8537202841577566	26359.05853233374
0.8539337142287962	26447.25512772979
0.8541471976573534	26526.344761743618
0.8543607344567677	26630.482025334702
0.8545743246403821	26735.230060165388
0.8547879682215422	26829.693466101002
0.8550016652135977	26922.33049642958
0.8552154156299011	27016.532436170193
0.8554292194838088	27112.498290305135
0.8556430767886797	27207.080445232736
0.855856987557877	27309.419488196545
0.8560709518047664	27408.64573017214
0.8562849695427177	27504.016482512146
0.8564990407851035	27599.08580173656
0.8567131655452999	27695.732394918996
0.8569273438366862	27797.84171530401
0.8571415756726455	27896.318495119718
0.8573558610665638	27984.062429784637
0.8575702000318304	28084.13195080334
0.8577845925818384	28188.29044667486
0.857999038729984	28287.457042559556
0.8582135384896665	28384.03804227279
0.858428091874289	28478.181973416875
0.8586426988972576	28576.14869644014
0.8588573595719821	28677.331036806918
0.8590720739118751	28780.308218582817
0.8592868419303532	28881.28695048051
0.8595016636408359	28984.34816558177
0.8597165390567462	29087.07902987342
0.8599314681915105	29185.850220438188
0.8601464510585584	29288.456489159445
0.860361487671323	29392.860860405624
0.8605765780432408	29497.388136951755
0.8607917221877518	29590.268865622547
0.8610069201182988	29673.755265550546
0.8612221718483286	29716.50315516053
0.8614374773912907	29737.29455686547
0.8616528367606385	29841.58817760448
0.8618682499698288	29893.70558369564
0.8620837170323213	29981.158052403454
0.8622992379615795	30114.808307427134
0.8625148127710699	30153.221641837805
0.8627304414742627	30257.99394987538
0.8629461240846313	30442.727880209608
0.8631618606156526	30501.120175591335
0.8633776510808066	30607.842432617537
0.8635934954935769	30747.27978920184
0.8638093938674504	30874.357614422584
0.8640253462159173	30970.767237631793
0.8642413525524714	31036.86685252977
0.8644574128906095	31219.363328980755
0.8646735272438323	31328.27361544766
0.8648896956256433	31418.240440267713
0.8651059180495498	31593.420514022902
0.8653221945290621	31719.325499605315
0.8655385250776946	31853.015920153517
0.8657549097089641	31975.98783511143
0.8659713484363913	32099.954361243617
0.8661878412735006	32216.543589197503
0.866404388233819	32312.861492441418
0.8666209893308775	32412.852642392867
0.8668376445782103	32558.913426188432
0.8670543539893549	32673.78664747114
0.8672711175778525	32769.3947956083
0.8674879353572469	32875.74265808344
0.8677048073410862	32999.73268118749
0.8679217335429217	33128.59026467732
0.8681387139763074	33236.43865897299
0.8683557486548015	33310.13289270894
0.8685728375919655	33424.39982049004
0.8687899808013633	33582.89462767213
0.8690071782965637	33723.75721446493
0.869224430091138	33843.27627958846
0.8694417361986609	33921.04557355511
0.8696590966327107	33994.608646380264
0.869876511406869	34134.02489593011
0.8700939805347206	34272.294497576295
0.8703115040298544	34420.7548472211
0.870529081905862	34528.489862961884
0.8707467141763385	34615.99154768726
0.8709644008548827	34715.42851826667
0.8711821419550964	34852.64278156141
0.8713999374905854	34984.15486732437
0.871617787474958	35145.2609326039
0.8718356919218269	35257.0682957055
0.8720536508448075	35334.969235229604
0.8722716642575187	35440.50499701328
0.8724897321735832	35584.19245690518
0.8727078546066265	35730.40179804494
0.8729260315702784	35866.795311764756
0.873144263078171	36003.10188340593
0.8733625491439405	36122.60096318396
0.8735808897812266	36199.360880402535
0.8737992850036719	36326.73799781537
0.874017734824923	36450.75157452056
0.8742362392586293	36617.60138917372
0.874454798318444	36742.63025158699
0.8746734120180236	36862.1962948832
0.8748920803710283	36996.92412221749
0.875110803391121	37104.67224863985
0.8753295810919689	37226.34592679413
0.875548413487242	37374.22136034695
0.8757673005906139	37517.95445979505
0.8759862424157616	37651.96278966606
0.8762052389763657	37773.00994830547
0.8764242902861098	37891.98099051327
0.8766433963586814	38034.98193532557
0.8768625572077712	38132.466525683376
0.8770817728470732	38237.73290749545
0.8773010432902849	38399.69694437908
0.8775203685511077	38558.84878033797
0.8777397486432454	38706.32013565684
0.8779591835804065	38827.5741577425
0.8781786733763015	38949.391545841325
0.8783982180446457	39088.889096304316
0.878617817599157	39212.73364930777
0.8788374720535569	39323.90291034386
0.8790571814215703	39457.75562734727
0.8792769457169257	39600.66107244901
0.879496764953355	39761.88870023233
0.8797166391445934	39920.29601529361
0.8799365683043796	40052.2510846331
0.8801565524464557	40146.05858253122
0.8803765915845676	40267.561057882
0.8805966857324639	40429.73217949491
0.880816834903897	40554.77354208613
0.881037039112623	40699.577932290544
0.8812572983724012	40829.60482985077
0.8814776126969944	40960.367127684556
0.8816979821001687	41127.69648464253
0.8819184065956938	41297.12955822955
0.8821388861973429	41429.27539704386
0.8823594209188923	41537.30502204489
0.882580010774122	41682.650241293006
0.8828006557768155	41842.62376520585
0.8830213559407598	41981.676859517145
0.8832421112797452	42129.418561335035
0.8834629218075651	42242.40486008149
0.8836837875380171	42371.21375479553
0.8839047084849018	42545.4945563821
0.884125684662023	42724.84538291387
0.8843467160831886	42871.38725204867
0.8845678027622095	42996.879729125474
0.8847889447129001	43105.35639970906
0.8850101419490785	43266.5163721386
0.8852313944845657	43417.97545982289
0.885452702333187	43588.56869235132
0.8856740655087704	43725.62765808072
0.8858954840251476	43825.660186984234
0.8861169578961539	43971.77461115734
0.886338487135628	44168.887283650685
0.886560071757412	44340.1436818435
0.8867817117753515	44490.1711885819
0.8870034072032955	44619.98662014732
0.8872251580550963	44733.55622243273
0.8874469643446101	44893.05700817381
0.8876688260856963	45058.25957402142
0.8878907432922178	45226.52161486059
0.8881127159780409	45371.958417445014
0.8883347441570356	45493.079933852045
0.8885568278430749	45612.633911549136
0.8887789670500358	45790.32810940615
0.8890011617917983	45958.53373061992
0.8892234120822464	46155.17078346334
0.8894457179352669	46308.350891691596
0.8896680793647509	46435.61293031592
0.8898904963845921	46559.8394977228
0.8901129690086883	46723.45231072256
0.8903354972509405	46908.361880403994
0.8905580811252535	47074.728274622
0.8907807206455347	47147.86639509847
0.8910034158256963	47049.93736942797
0.8912261666796527	47359.37037727146
0.8914489732213227	47645.48570905718
0.8916718354646282	47779.6082652275
0.8918947534234944	47873.8466085227
0.8921177271118502	47960.188101695196
0.8923407565436284	47993.48019489462
0.8925638417327644	48236.81147427075
0.8927869826931977	48527.082625717085
0.8930101794388711	48697.43731286885
0.8932334319837308	48696.42663673569
0.8934567403417267	48829.825110356614
0.8936801045268123	49092.167251877305
0.8939035245529441	49267.01966502367
0.8941270004340824	49434.63491900415
0.894350532184191	49550.12649984689
0.8945741198172371	49826.214382308
0.8947977633471915	50076.97414170725
0.8950214627880284	50220.93937066067
0.8952452181537254	50319.14395772407
0.8954690294582639	50409.7130362561
0.8956928967156286	50651.83312760355
0.8959168199398075	50832.49172765305
0.8961407991447926	51040.583236796636
0.8963648343445789	51028.654547325124
0.896588925553165	50597.141434725934
0.8968130727845534	50886.17204080319
0.8970372760527496	51475.55847623202
0.8972615353717629	50875.51810663445
0.8974858507556059	50790.89813353959
0.8977102222182949	52068.438711145885
0.8979346497738496	52490.43521845628
0.8981591334362931	52617.734618088056
0.8983836732196523	52729.31457364218
0.8986082691379572	52941.60189394543
0.8988329212052417	52554.85904242629
0.8990576294355432	51819.99978065354
0.8992823938429022	52334.70943925619
0.8995072144413631	53082.09078114831
0.8997320912449734	53803.940117391794
0.8999570242677847	54038.95374714215
0.9001820135238516	54113.61220197996
0.9004070590272328	54202.025281261085
0.9006321607919896	54072.62114505457
0.9008573188321878	54343.78096239568
0.9010825331618959	54478.90791715525
0.9013078037951865	54962.9045527696
0.9015331307461353	55211.9708095715
0.9017585140288219	55443.4169667064
0.9019839536573292	55634.964128939835
0.9022094496457435	55886.84026115656
0.9024350020081551	56057.77914578292
0.9026606107586572	56180.03293305025
0.902886275911347	56331.89063125526
0.9031119974803249	56523.64699869972
0.9033377754796951	56692.670028269036
0.903563609923565	56970.255291329784
0.903789500826046	57198.095797130096
0.9040154482012526	57340.65667286908
0.904241452063303	57536.76541290872
0.9044675124263188	57708.10977138046
0.9046936293044254	57864.02235455259
0.9049198027117517	58038.88796188033
0.9051460326624297	58275.93862037089
0.9053723191705955	58500.35130788872
0.9055986622503881	58674.86785686875
0.9058250619159507	58903.00049585803
0.9060515181814298	59086.47929050226
0.9062780310609752	59211.67555634643
0.9065046005687405	59375.6170848679
0.906731226718883	59613.74796290109
0.9069579095255627	59818.040433487084
0.907184649002944	59915.15239609777
0.907411445165195	60083.46771495222
0.9076382980264862	60373.99194465627
0.907865207600993	60583.436683246066
0.9080921739028933	60656.752631014635
0.9083191969463691	60794.67594514125
0.9085462767456058	61068.37986467469
0.9087734133147922	61172.628670002436
0.9090006066681211	61396.761296648205
0.909227856819788	61716.96363775922
0.9094551637839932	61961.58588893563
0.9096825275749393	62090.642498020265
0.9099099482068329	62244.61284909202
0.9101374256938848	62411.45792336923
0.9103649600503083	62673.66929515835
0.9105925512903209	62803.52212385272
0.9108201994281437	62330.198987572934
0.9110479044780008	62831.319397426254
0.9112756664541204	63560.363322750374
0.911503485370734	63846.93480958595
0.9117313612420768	63917.12192010336
0.9119592940823873	64133.37410970111
0.912187283905908	64423.487505242694
0.9124153307268845	64689.047871671384
0.9126434345595664	64900.93492360529
0.9128715954182063	65038.92519547101
0.9130998133170609	65125.74701684057
0.9133280882703902	65278.41250275192
0.913556420292458	65561.06767595423
0.9137848093975312	65721.29293142827
0.9140132555998806	66054.83743386116
0.9142417589137806	66332.83675079187
