#wavelength	surface flux
0.7	4662.303706093708
0.7001166666666666	4672.027673801065
0.7002333527777778	4683.8972299057
0.700350058336574	4701.126451611935
0.7004667833462966	4716.81687429302
0.7005835278101878	4731.356833786902
0.7007002917314895	4744.514564209917
0.7008170751134447	4757.17280140636
0.7009338779592968	4768.231550052645
0.7010507002722901	4776.71739848842
0.7011675420556689	4781.84618502549
0.701284403312678	4797.733995981449
0.7014012840465635	4817.679638097434
0.7015181842605713	4830.187370077191
0.701635103957948	4839.995886176325
0.701752043141941	4843.509147851609
0.701869001815798	4851.327571639138
0.7019859799827672	4862.139515017661
0.7021029776460976	4882.92617200673
0.7022199948090387	4903.846798547921
0.7023370314748403	4918.81364853885
0.7024540876467528	4933.623311569706
0.702571163328027	4948.2495116922555
0.7026882585219152	4960.205961959888
0.7028053732316688	4971.418999101464
0.7029225074605406	4985.292537464518
0.7030396612117841	4998.438049186659
0.7031568344886527	5010.1585324886955
0.7032740272944008	5024.115023622329
0.7033912396322832	5039.376740997147
0.7035084715055552	5054.129883159295
0.7036257229174727	5068.317161174756
0.7037429938712924	5080.6311626975985
0.7038602843702709	5093.388191988974
0.7039775944176659	5106.56441230644
0.7040949240167356	5121.014596999357
0.7042122731707383	5135.6778081748835
0.7043296418829335	5149.576090786067
0.7044470301565806	5163.022179219306
0.70456443799494	5175.790437854187
0.7046818654012724	5188.531553882128
0.7047993123788394	5201.262076256155
0.7049167789309024	5214.931877148557
0.7050342650607243	5229.148753523603
0.7051517707715678	5244.6779861791565
0.7052692960666963	5259.200671896992
0.705386840949374	5273.023315090245
0.7055044054228656	5286.27327239538
0.7056219894904361	5299.657291633816
0.7057395931553511	5313.931997386062
0.705857216420877	5328.498925748676
0.7059748592902804	5343.374338282547
0.7060925217668288	5357.634313279308
0.70621020385379	5371.753629584175
0.7063279055544321	5386.137591972044
0.7064456268720246	5400.383919801382
0.7065633678098366	5414.4113225235815
0.7066811283711383	5428.343959891344
0.7067989085592001	5442.235066669916
0.7069167083772933	5455.447530202748
0.7070345278286895	5468.143362823198
0.707152366916661	5479.604887099503
0.7072702256444803	5490.352107652902
0.7073881040154211	5500.615240409015
0.7075060020327569	5519.666480897756
0.7076239196997625	5539.012963183422
0.7077418570197124	5555.634418854116
0.7078598139958823	5571.175803854874
0.7079777906315483	5585.667013923907
0.7080957869299869	5599.946642799939
0.7082138028944751	5614.381897981989
0.7083318385282908	5630.351518167614
0.7084498938347124	5645.594829737877
0.708567968817018	5659.844647690508
0.7086860634784875	5672.733778311103
0.7088041778224007	5684.966138402393
0.7089223118520377	5693.067403774724
0.7090404655706796	5706.15101449468
0.709158638981608	5728.801202777367
0.709276832088105	5745.359621237555
0.7093950448934531	5758.638837838585
0.7095132774009353	5759.359215488708
0.7096315296138355	5767.386155348733
0.7097498015354378	5797.026042635436
0.7098680931690269	5818.322249219866
0.7099864045178884	5833.466354120701
0.7101047355853081	5850.0408085333165
0.7102230863745722	5866.744922560097
0.7103414568889679	5883.21048141787
0.7104598471317828	5899.455721424847
0.7105782571063047	5915.485429859398
0.7106966868158224	5929.121616940336
0.710815136263625	5942.76047956499
0.7109336054530023	5960.083567928978
0.7110520943872445	5977.070054337275
0.7111706030696424	5993.626619175856
0.7112891315034873	6009.6258251536665
0.7114076796920712	6025.456951060307
0.7115262476386865	6041.493146403073
0.7116448353466263	6057.08890312896
0.711763442819184	6071.958237179551
0.711882070059654	6088.065663954882
0.7120007170713306	6104.720035610684
0.7121193838575091	6120.35374847951
0.7122380704214853	6136.13306702084
0.7123567767665555	6152.217876136884
0.7124755028960166	6166.881399650379
0.7125942488131658	6180.732051465837
0.7127130145213015	6194.478598919515
0.7128318000237216	6209.37455511695
0.7129506053237256	6227.42614923757
0.7130694304246129	6244.481589383802
0.7131882753296837	6260.828922434179
0.7133071400422386	6275.7311379006405
0.7134260245655789	6288.517611588835
0.7135449289030065	6294.312312906592
0.7136638530578235	6311.79605387192
0.7137827970333332	6339.364956231466
0.7139017608328388	6357.437375113791
0.7140207444596443	6373.968139943139
0.7141397479170543	6390.794310706612
0.7142587712083737	6405.60794252128
0.7143778143369084	6418.357574440977
0.7144968773059646	6438.92444972819
0.7146159601188489	6460.595460618841
0.7147350627788687	6477.8154951748065
0.7148541852893318	6495.09949933394
0.7149733276535467	6512.459619892701
0.7150924898748222	6527.501986164556
0.715211671956468	6542.301019297218
0.7153308739017941	6561.0040421063095
0.715450095714111	6579.719681492166
0.71556933739673	6598.451550381298
0.7156885989529628	6614.352733906419
0.7158078803861218	6628.830146172825
0.7159271816995193	6637.0107581887905
0.7160465028964692	6648.447410240853
0.7161658439802853	6664.983274949816
0.7162852049542819	6674.584387247354
0.7164045858217744	6681.749693803926
0.716523986586078	6697.5310780725085
0.7166434072505089	6689.286844640782
0.716762847818384	6638.956711061901
0.7168823082930204	6671.723577476607
0.7170017886777359	6741.595323493328
0.7171212889758488	6783.917409089175
0.7172408091906781	6813.379016637888
0.7173603493255433	6818.023052397243
0.7174799093837642	6828.090868117165
0.7175994893686615	6840.85168128844
0.7177190892835562	6868.326782597166
0.7178387091317702	6898.203672656885
0.7179583489166254	6932.965178656689
0.7180780086414448	6951.532532909129
0.7181976883095517	6961.451917957387
0.7183173879242699	6988.699846699064
0.718437107488924	7013.343316469987
0.7185568470068389	7031.421636017654
0.7186766064813399	7041.307361266673
0.7187963859157535	7046.577318925936
0.7189161853134061	7077.297264707309
0.719036004677625	7105.4017800208485
0.7191558440117378	7125.566201657335
0.7192757033190732	7145.028687342825
0.7193955826029597	7164.082965030218
0.7195154818667269	7179.601039385889
0.7196354011137046	7195.812765551838
0.7197553403472235	7214.0006864203315
0.7198752995706147	7234.5282891075985
0.7199952787872098	7256.445395232324
0.720115278000341	7272.167133908453
0.7202352972133411	7286.685790655387
0.7203553364295432	7298.921982793374
0.7204753956522815	7317.369364729735
0.7205954748848902	7339.498667952598
0.7207155741307044	7360.4740336735995
0.7208356933930594	7381.829509254195
0.7209558326752915	7404.1867437508145
0.7210759919807375	7421.778199204211
0.7211961713127342	7436.600038801028
0.7213163706746197	7446.69656700363
0.7214365900697322	7459.673139352966
0.7215568295014103	7479.5873144102125
0.721677088972994	7504.595430450577
0.7217973684878227	7532.458982425646
0.7219176680492374	7543.522854220041
0.7220379876605789	7559.190525691382
0.722158327325189	7585.651222604009
0.7222786870464099	7611.3622311162835
0.7223990668275843	7636.678087516473
0.7225194666720555	7657.026152965667
0.7226398865831676	7676.7048729149865
0.7227603265642646	7695.1067920729365
0.722880786618692	7707.637315826914
0.7230012667497951	7717.431475196704
0.7231217669609201	7741.055505248545
0.7232422872554135	7762.535347479536
0.7233628276366229	7780.043993668606
0.7234833881078956	7802.599240712407
0.7236039686725803	7826.725425119787
0.7237245693340255	7830.8263595260305
0.7238451900955812	7844.307994754304
0.7239658309605971	7873.451478183206
0.7240864919324239	7902.169407706946
0.7242071730144127	7930.155272473363
0.724327874209915	7949.1752913898645
0.7244485955222832	7970.180931063043
0.7245693369548704	7994.132928366535
0.7246900985110294	8015.6581138185065
0.7248108801941148	8036.4971162503025
0.7249316820074803	8058.730112345119
0.7250525039544815	8079.89474785046
0.7251733460384739	8099.667709030475
0.7252942082628137	8118.490562105238
0.7254150906308574	8136.753993198997
0.7255359931459625	8152.967673070897
0.7256569158114868	8170.967629501288
0.7257778586307888	8190.976706936433
0.7258988216072273	8213.464511056387
0.7260198047441617	8236.69178766028
0.7261408080449525	8260.847836891033
0.72626183151296	8281.73986588189
0.7263828751515454	8299.506320548722
0.7265039389640706	8323.437657661663
0.726625022953898	8346.76227847278
0.7267461271243904	8363.847267682719
0.7268672514789111	8381.235446779006
0.7269883960208241	8398.867158090392
0.7271095607534942	8426.490464280518
0.7272307456802866	8453.322396961432
0.7273519508045666	8474.70404067532
0.7274731761297006	8494.215633719714
0.7275944216590555	8512.500013745535
0.7277156873959987	8530.732851203577
0.7278369733438982	8543.934028896265
0.727958279506122	8545.66056314446
0.7280796058860397	8574.665108954097
0.7282009524870207	8617.860188799381
0.7283223193124353	8646.825981723716
0.7284437063656539	8673.667538128422
0.7285651136500483	8696.728885294724
0.7286865411689898	8717.732080444108
0.7288079889258514	8737.434744534394
0.7289294569240056	8750.42678749404
0.7290509451668262	8767.892995155014
0.7291724536576875	8791.555462278193
0.7292939823999636	8818.176259760834
0.7294155313970303	8845.32360195152
0.7295371006522632	8870.127129805027
0.7296586901690385	8892.308099519461
0.7297802999507332	8911.677222058594
0.7299019300007252	8922.637506237472
0.7300235803223919	8933.80890273141
0.7301452509191123	8952.616651061611
0.7302669417942654	8971.392888621576
0.7303886529512311	8990.143915715591
0.7305103843933897	8977.235622419716
0.7306321361241218	8983.438147265173
0.7307539081468093	9052.02884496028
0.7308757004648336	9095.99042357081
0.7309975130815778	9124.95390023138
0.7311193460004248	9151.219739489106
0.7312411992247582	9177.848411394922
0.7313630727579622	9205.2936503813
0.7314849666034219	9228.439209327824
0.7316068807645224	9249.281404200887
0.7317288152446498	9262.832702868864
0.7318507700471907	9280.213285979156
0.7319727451755319	9302.963538611495
0.732094740633061	9335.858946237167
0.7322167564231665	9369.02615988221
0.7323387925492371	9385.539402121167
0.7324608490146619	9409.776470236566
0.732582925822831	9441.785427575007
0.7327050229771347	9469.140717738494
0.7328271404809642	9494.879634686058
0.7329492783377112	9517.60102332437
0.7330714365507675	9541.73856427582
0.7331936151235259	9566.883108563838
0.7333158140593796	9587.724695881214
0.7334380333617229	9607.932101469147
0.7335602730339499	9627.25698063106
0.7336825330794556	9654.008496348364
0.7338048135016354	9683.737949465698
0.7339271143038857	9698.819243001542
0.734049435489603	9695.802206340028
0.7341717770621846	9666.093063511182
0.7342941390250283	9688.692764567639
0.7344165213815324	9726.098949489051
0.734538924135096	9757.848715099168
0.7346613472891185	9789.016280863005
0.734783790847	9819.604051555547
0.7349062548121412	9835.338161184367
0.7350287391879431	9837.381647138072
0.7351512439778078	9802.147916869277
0.7352737691851374	9840.801607268442
0.735396314813335	9928.307927984215
0.7355188808658037	9963.465363640147
0.7356414673459482	9998.334766629598
0.7357640742571725	10035.811387174885
0.7358867016028818	10063.458920098346
0.7360093493864824	10086.76209187979
0.7361320176113801	10106.761357943315
0.736254706280982	10124.682488703918
0.7363774153986956	10140.019576407558
0.7365001449679286	10124.535671370953
0.7366228949920899	10113.313144710153
0.7367456654745885	10151.016576462893
0.7368684564188344	10213.766262405441
0.7369912678282374	10296.404186984804
0.7371140997062088	10336.333130110206
0.7372369520561599	10368.539811085016
0.7373598248815024	10390.385125918712
0.7374827181856494	10413.987582471274
0.7376056319720137	10438.558320698632
0.7377285662440091	10465.477402669658
0.7378515210050496	10484.36441441624
0.7379744962585505	10492.110049299505
0.738097492007927	10499.466540017333
0.7382205082565949	10508.786074252666
0.738343545007971	10528.425388780948
0.7384666022654723	10557.056380281596
0.7385896800325165	10593.312377430793
0.7387127783125219	10623.570901014009
0.7388358971089073	10653.37663907648
0.7389590364250921	10683.41000876597
0.7390821962644963	10714.703524233924
0.7392053766305403	10746.663229757794
0.7393285775266454	10779.403026358048
0.7394517989562333	10811.103367102056
0.7395750409227259	10841.367983960956
0.7396983034295463	10871.265431997324
0.739821586480118	10899.252573374042
0.7399448900778645	10918.665079579445
0.7400682142262109	10937.778429445592
0.740191558928582	10956.650623409701
0.7403149241884034	10977.860843775223
0.7404383100091014	11000.607126600118
0.7405617163941028	11026.380113450366
0.7406851433468352	11056.321603907745
0.7408085908707264	11085.402595342952
0.7409320589692048	11077.873864111456
0.7410555476456997	11102.719449593842
0.7411790569036406	11167.1747484431
0.7413025867464579	11194.154989428469
0.7414261371775823	11210.076557733584
0.7415497082004452	11213.292711058897
0.7416732998184786	11230.828038407342
0.741796912035115	11258.192098324143
0.7419205448537874	11280.550858879893
0.7420441982779297	11309.378747114493
0.742167872310976	11350.067001231573
0.7422915669563612	11392.701219330267
0.7424152822175206	11434.50159202777
0.7425390180978901	11465.511827429396
0.7426627746009065	11492.766787120394
0.7427865517300065	11516.372626047545
0.7429103494886282	11558.67078840479
0.7430341678802096	11600.335996497623
0.7431580069081896	11634.350727479237
0.7432818665760077	11664.73544573924
0.7434057468871037	11693.256356292577
0.7435296478449182	11721.706888412566
0.7436535694528923	11751.474376928854
0.7437775117144678	11782.970430521966
0.7439014746330868	11802.850836075104
0.7440254582121922	11821.760684977115
0.7441494624552276	11846.874290481277
0.7442734873656368	11865.872262353394
0.7443975329468645	11880.664075827712
0.7445215992023557	11905.170420739807
0.7446456861355559	11922.326849700634
0.7447697937499119	11926.525772739886
0.7448939220488703	11953.688749932056
0.7450180710358784	11988.998334748392
0.7451422407143843	12028.750015626902
0.7452664310878367	12067.560192539471
0.7453906421596846	12105.552338368514
0.7455148739333779	12142.353915558126
0.7456391264123667	12178.879936152724
0.7457633996001021	12215.011280090443
0.7458876935000356	12249.702072895727
0.7460120081156189	12283.72756152718
0.7461363434503048	12317.129815718441
0.7462606995075466	12347.212611791647
0.7463850762907978	12373.81283313955
0.7465094738035127	12402.760003037116
0.7466338920491467	12435.200765305266
0.746758331031155	12476.113803265402
0.7468827907529935	12511.488256112649
0.7470072712181189	12544.293504529636
0.7471317724299886	12580.592965182868
0.7472562943920602	12615.427713278486
0.7473808371077922	12648.485438184003
0.7475054005806435	12668.562035091123
0.7476299848140736	12688.048641350493
0.7477545898115426	12713.11780908873
0.7478792155765113	12744.288991532168
0.7480038621124406	12778.44305527457
0.7481285294227926	12796.385367942436
0.7482532175110298	12828.930229690544
0.7483779263806148	12881.090842581245
0.7485026560350116	12917.505887002015
0.7486274064776842	12950.470283216991
0.748752177712097	12983.196504500955
0.7488769697417158	13021.640334048661
0.749001782570006	13063.573372293013
0.7491266162004343	13100.900498617964
0.7492514706364677	13135.676740739087
0.7493763458815739	13166.812401132192
0.7495012419392209	13201.198743226541
0.7496261588128773	13235.569862651555
0.7497510965060128	13267.00389904291
0.7498760550220971	13301.233129193728
0.7500010343646007	13337.232390534533
0.7501260345369949	13369.652090355403
0.750251055542751	13400.097736595904
0.7503760973853414	13427.680289671289
0.7505011600682389	13459.151451550373
0.750626243594917	13490.335669226297
0.7507513479688495	13516.966874939453
0.7508764731935109	13539.876919687431
0.7510016192723765	13560.586651855998
0.7511267862089218	13594.001947075803
0.7512519740066232	13628.030560312303
0.7513771826689577	13662.921100111764
0.7515024121994025	13700.16093879958
0.7516276626014359	13736.976607701394
0.751752933878536	13770.43731950136
0.7518782260341824	13801.32843130096
0.7520035390718548	13830.941608797151
0.7521288729950334	13869.733769485969
0.7522542278071992	13907.777237939763
0.7523796035118337	13944.836391940384
0.7525050001124189	13979.25560926451
0.7526304176124378	14011.53103222237
0.7527558560153731	14038.703222472053
0.752881315324709	14076.78627920333
0.7530067955439299	14120.423026963761
0.7531322966765205	14157.526835470311
0.7532578187259665	14193.338373604003
0.7533833616957542	14227.635190889632
0.75350892558937	14260.32977189822
0.7536345104103016	14293.41995980387
0.7537601161620366	14328.193877528105
0.7538857428480638	14359.358680881998
0.7540113904718717	14389.058361562342
0.7541370590369503	14420.884509776512
0.7542627485467898	14452.956675191856
0.7543884590048808	14485.275677190684
0.7545141904147151	14526.088932461733
0.7546399427797842	14565.47683201433
0.7547657161035808	14599.95029509561
0.754891510389598	14634.871609245125
0.7550173256413296	14669.8209511106
0.7551431618622698	14703.877697068454
0.7552690190559135	14737.350761380616
0.7553948972257561	14770.34397945155
0.7555207963752938	14806.076602207913
0.755646716508023	14842.094741170311
0.755772657627441	14878.397067844062
0.7558986197370455	14913.366514507012
0.756024602840335	14947.699329845753
0.7561506069408084	14980.92024288758
0.7562766320419653	15014.948917410227
0.7564026781473054	15049.510055894774
0.75652874526033	15084.520802798676
0.7566548333845401	15119.453126811
0.7567809425234375	15154.281763247707
0.7569070726805247	15187.899113812578
0.7570332238593047	15220.98637911666
0.7571593960632813	15253.186691304021
0.7572855892959586	15282.301163281096
0.7574118035608413	15310.049618559275
0.7575380388614347	15338.731989411237
0.7576642952012449	15371.65157623558
0.7577905725837782	15408.656117953062
0.7579168710125422	15442.328733547249
0.7580431904910444	15476.294329502081
0.7581695310227928	15511.337211923017
0.7582958926112967	15545.533714912366
0.7584222752600652	15579.203321709098
0.7585486789726085	15611.65492812596
0.7586751037524372	15644.735870948962
0.7588015496030628	15678.230126088425
0.7589280165279966	15710.228641895723
0.7590545045307512	15741.58906251208
0.7591810136148396	15772.104800324007
0.7593075437837755	15803.487158826201
0.7594340950410726	15834.619652066915
0.7595606673902461	15864.652880008598
0.7596872608348112	15893.616134098105
0.7598138753782836	15922.251816872975
0.75994051102418	15952.129338265233
0.7600671677760173	15982.051860875188
0.7601938456373134	16012.014822730689
0.7603205446115863	16040.178237409402
0.7604472647023548	16067.53630605942
0.7605740059131385	16093.69190080885
0.7607007682474575	16119.349591018066
0.7608275517088319	16144.45694086165
0.7609543563007835	16168.037403144554
0.7610811820268336	16190.37483192459
0.7612080288905045	16211.950614478177
0.7613348968953197	16232.580332221989
0.7614617860448022	16251.602284569086
0.7615886963424764	16268.929421154888
0.7617156277918667	16285.646800179718
0.7618425803964988	16301.952045502236
0.7619695541598982	16317.55642933626
0.7620965490855914	16329.109975986194
0.7622235651771058	16338.74838524571
0.7623506024379685	16345.584324415082
0.7624776608717082	16349.475790888915
0.7626047404818536	16351.266520726345
0.7627318412719337	16347.186317452124
0.762858963245479	16341.170351080526
0.7629861064060198	16332.916144572679
0.7631132707570876	16316.84351082927
0.7632404563022137	16296.35058147521
0.7633676630449308	16268.438471128957
0.7634948909887717	16233.661251463998
0.7636221401372697	16193.87703266524
0.7637494104939593	16141.442083442273
0.7638767020623748	16077.891228183596
0.7640040148460518	16006.304445248945
0.7641313488485262	15913.257403820591
0.7642587040733344	15805.85959224339
0.7643860805240132	15681.67679434881
0.7645134782041005	15528.810506537346
0.7646408971171346	15356.538705670459
0.764768337266654	15150.671600789166
0.7648957986561985	14897.664382762447
0.7650232812893079	14616.261358970118
0.7651507851695227	14277.593036899161
0.7652783103003843	13878.216193790277
0.7654058566854343	13435.155281236148
