#wavelength	surface flux
0.8	63796.07746356232
0.8002000000000001	63895.41513794431
0.8004000500000003	64014.64078661505
0.8006001500125003	64366.849074166734
0.8008003000500035	64519.862182902
0.8010005001250161	64725.28524194711
0.8012007502500472	64936.636426846424
0.8014010504376099	65136.25820988199
0.8016014007002193	65332.51159500942
0.8018018010503944	65511.458831524564
0.8020022515006572	65792.29805827315
0.8022027520635323	66021.2482052997
0.8024033027515483	66256.07621252659
0.8026039035772362	66444.12963476802
0.8028045545531306	66642.18864210059
0.8030052556917691	66863.64220172439
0.803206007005692	67111.27574627695
0.8034068085074435	67328.00492245278
0.8036076602095705	67523.32599254206
0.8038085621246229	67760.7311476403
0.8040095142651542	67966.8598498647
0.8042105166437206	68181.97400073531
0.8044115692728815	68385.42087973739
0.8046126721651998	68542.27233443156
0.8048138253332411	68740.55909860661
0.8050150287895745	68964.77768120726
0.805216282546772	69199.17886249907
0.8054175866174087	69425.864920071
0.8056189410140631	69645.6824951922
0.8058203457493168	69860.96335931655
0.8060218008357541	70100.83013441453
0.8062233062859632	70302.66226608447
0.8064248621125346	70548.92674586961
0.806626468328063	70792.372180668
0.8068281249451449	71000.97424863408
0.8070298319763813	71232.75151854403
0.8072315894343755	71440.73106428821
0.8074333973317341	71624.41780981515
0.8076352556810671	71896.92581688016
0.8078371644949874	72151.55614773654
0.8080391237861113	72383.45688593517
0.8082411335670578	72601.95360209397
0.8084431938504498	72825.38211964497
0.8086453046489125	73066.80974466652
0.8088474659750746	73277.88045738504
0.8090496778415686	73493.03232571084
0.809251940261029	73700.29465115539
0.8094542532460944	73826.85277140721
0.8096566168094059	74056.93206998869
0.8098590309636085	74410.4116480412
0.8100614957213493	74654.59348027564
0.8102640110952797	74865.80336702453
0.8104665770980536	75124.16353204526
0.8106691937423283	75313.8284667305
0.8108718610407639	75218.29012682603
0.8110745790060241	75285.13042554233
0.8112773476507757	75915.37929978735
0.8114801669876885	76114.49864449025
0.8116830370294355	76310.06246238346
0.8118859577886929	76729.10823870686
0.8120889292781401	77018.00234918033
0.8122919515104597	77274.15946791347
0.8124950244983374	77525.74675485355
0.8126981482544621	77758.38154497134
0.8129013227915257	77995.16591655929
0.8131045481222237	78240.56422177005
0.8133078242592543	78454.54448514838
0.8135111512153191	78558.91765708526
0.813714529003123	78830.37366027826
0.8139179576353739	79182.91932615548
0.8141214371247829	79406.82894330584
0.8143249674840641	79523.54049410195
0.814528548725935	79402.48036519405
0.8147321808631167	79831.15398210952
0.8149358639083326	80333.81861093352
0.8151395978743097	80436.07636423645
0.8153433827737784	80806.05688358452
0.8155472186194719	81184.75870946981
0.8157511054241268	81446.98143906196
0.815955043200483	81689.13452567242
0.8161590319612831	81950.56565956098
0.8163630717192736	82193.36287497779
0.8165671624872033	82459.01014859955
0.8167713042778252	82722.48468233498
0.8169754971038948	82985.81621705882
0.8171797409781707	83234.8551956003
0.8173840359134155	83495.40118084282
0.8175883819223938	83745.0747236697
0.8177927790178745	84001.8441096952
0.8179972272126291	84226.08443782365
0.8182017265194322	84259.8868668027
0.8184062769510622	83825.69009361803
0.8186108785203001	84760.63210048043
0.8188155312399301	85276.56853976016
0.8190202351227402	85522.3905970303
0.819224990181521	85820.45137780964
0.8194297964290664	86058.15890735584
0.8196346538781738	86244.654253478
0.8198395625416434	86529.9228276634
0.8200445224322789	86815.36175225305
0.820249533562887	87133.87679108158
0.8204545959462778	87394.4508078437
0.8206597095952644	87661.97706304902
0.8208648745226633	87924.25041630889
0.8210700907412941	88181.9810767041
0.8212753582639793	88476.95501137033
0.8214806771035456	88748.07757647133
0.8216860472728215	89015.70049876774
0.8218914687846397	89304.97888836163
0.822096941651836	89575.46448841634
0.822302465887249	89849.57711300209
0.8225080415037209	90126.57850189008
0.8227136685140968	90241.81935608176
0.8229193469312254	89823.28374031198
0.8231250767679583	90186.7189355205
0.8233308580371503	90947.79052903563
0.8235366907516598	91186.43241624691
0.8237425749243477	91310.25682095088
0.8239485105680789	91851.91552499156
0.824154497695721	92316.76858048986
0.824360536320145	92613.46345197485
0.8245666264542252	92896.67898309021
0.8247727681108388	93178.59318444256
0.8249789613028664	93400.06185604565
0.8251852060431922	93708.48448689896
0.825391502344703	94038.55487717387
0.8255978502202894	94337.92218771987
0.8258042496828445	94625.89807412359
0.8260107007452654	94895.20658627017
0.8262172034204517	95126.5808377225
0.8264237577213068	95076.56307243778
0.8266303636607373	94816.33810238172
0.8268370212516525	95851.91882915556
0.8270437305069654	96349.3822971412
0.8272504914395923	96630.02360429657
0.8274573040624523	96915.36000924231
0.8276641683884679	97186.94840051724
0.8278710844305652	97465.53629594026
0.8280780522016729	97807.00730293745
0.8282850717147234	98109.55777307958
0.8284921429826521	98407.74966503365
0.8286992660183978	98672.84605996407
0.8289064408349024	98891.28641610357
0.8291136674451112	99161.56023326339
0.8293209458619727	99528.96213690106
0.8295282760984382	99860.45200637878
0.829735658167463	100117.25496894663
0.8299430920820048	100428.92505805056
0.8301505778550254	100773.68215824998
0.8303581154994891	101104.54155325184
0.8305657050283641	101398.37456652464
0.8307733464546212	101672.46717785065
0.8309810397912352	101874.55364036604
0.8311887850511829	102163.55454414348
0.8313965822474458	102179.47790411756
0.8316044313930077	102515.51097157449
0.8318123325008561	103173.96026284227
0.8320202855839813	103569.2397725562
0.8322282906553774	103884.76546229364
0.8324363477280413	104176.11838407887
0.8326444568149735	104463.054324697
0.8328526179291771	104797.83140126627
0.8330608310836596	105116.11732838061
0.8332690962914304	105403.09131385143
0.8334774135655034	105727.14515824162
0.833685782918895	106055.95886566049
0.8338942043646247	106352.9403995067
0.834102677915716	106676.5202077684
0.834311203585195	107004.36170651167
0.8345197813860912	107322.9859540707
0.8347284113314379	107652.77496603409
0.8349370934342709	107976.62781675723
0.8351458277076294	108306.22252892947
0.8353546141645565	108634.77642855346
0.8355634528180977	108930.53787829669
0.8357723436813022	109244.44844017886
0.8359812867672226	109545.50261027619
0.8361902820889144	109856.02762141703
0.8363993296594368	110212.50545141032
0.8366084294918518	110484.28745064179
0.8368175815992247	110907.76633698326
0.8370267859946247	111220.70923443412
0.8372360426911234	111508.74428016457
0.8374453517017962	111879.21541318667
0.8376547130397217	112201.91954116146
0.8378641267179816	112561.07743930271
0.8380735927496613	112920.88418197194
0.8382831111478488	113175.2959603449
0.8384926819256358	113340.03124138917
0.8387023050961173	113720.89070598413
0.8389119806723914	114197.14298969979
0.8391217086675596	114576.93778447136
0.8393314890947265	114955.20164145867
0.8395413219670003	115300.79965734958
0.8397512072974922	115625.38158044104
0.8399611450993165	115895.72601450396
0.8401711353855914	115948.23252322119
0.8403811781694378	116418.22077655068
0.8405912734639802	116967.69403554538
0.8408014212823464	117338.80813767936
0.8410116216376671	117684.23484677606
0.8412218745430766	118013.86904520464
0.8414321800117124	118399.36972334572
0.8416425380567154	118747.65376681414
0.8418529486912297	119078.84356372715
0.8420634119284025	119431.56182327952
0.8422739277813847	119795.42165572837
0.8424844962633302	120152.35451586984
0.842695117387396	120476.5089467964
0.8429057911667428	120778.66352501561
0.8431165176145345	121156.28300179318
0.8433272967439382	121559.59419056482
0.8435381285681244	121919.29183769925
0.8437490131002665	122282.75738781026
0.8439599503535415	122609.40227662481
0.84417094034113	122842.01011543383
0.8443819830762154	123260.11919723122
0.8445930785719846	123446.48557893798
0.8448042268416277	124022.76385066839
0.8450154278983382	124461.43818819708
0.8452266817553128	124798.93972756556
0.8454379884257517	125160.23456833369
0.8456493479228583	125521.9324402435
0.845860760259839	125930.44365481529
0.846072225449904	126282.41951866461
0.8462837435062666	126426.95289281488
0.8464953144421433	126349.95400829926
0.8467069382707537	126879.83141296064
0.8469186150053215	127693.12195622007
0.847130344659073	128144.25157177106
0.8473421272452377	128513.2061965649
0.8475539627770492	128820.44500445311
0.8477658512677435	129249.98844761896
0.8479777927305605	129634.54060580282
0.8481897871787432	129947.73561948402
0.848401834625538	130375.8721705138
0.8486139350841944	130810.27283988672
0.8488260885679657	131127.40901290037
0.8490382950901076	131361.0141850595
0.8492505546638802	131834.9656154342
0.8494628673025462	132296.67925505483
0.8496752330193721	132707.08491076386
0.8498876518276269	133109.93779933677
0.8501001237405839	133490.9136131629
0.8503126487715191	133870.30554235764
0.850525226933712	134264.99577521617
0.8507378582404455	134669.3106265446
0.8509505427050057	135048.81494119304
0.8511632803406821	135461.21950218393
0.8513760711607672	135855.69286830348
0.8515889151785576	136244.56391581512
0.8518018124073523	136624.0757779398
0.8520147628604541	136996.78542047786
0.8522277665511693	137356.77911236297
0.8524408234928071	137831.70081600535
0.8526539336986805	138239.4279570873
0.8528670971821053	138612.4313859341
0.8530803139564007	138869.23264809622
0.8532935840348901	139099.36695379412
0.8535069074308987	139496.5290621811
0.8537202841577566	139950.9894554639
0.8539337142287962	140353.40022030496
0.8541471976573534	140617.67176983508
0.8543607344567677	141144.51462846555
0.8545743246403821	141676.12612102245
0.8547879682215422	142110.92929562385
0.8550016652135977	142525.8337510816
0.8552154156299011	142939.2817371581
0.8554292194838088	143391.41619244392
0.8556430767886797	143814.81860646082
0.855856987557877	144255.06746658482
0.8560709518047664	144684.08683050566
0.8562849695427177	145099.49060483664
0.8564990407851035	145516.47572356038
0.8567131655452999	145960.19856856257
0.8569273438366862	146405.96721126285
0.8571415756726455	146826.0133165216
0.8573558610665638	147196.82458995943
0.8575702000318304	147646.9888942367
0.8577845925818384	148074.0598092222
0.857999038729984	148539.92683684258
0.8582135384896665	148881.12069304002
0.858428091874289	149055.01508556737
0.8586426988972576	149448.73395064697
0.8588573595719821	149923.33186891116
0.8590720739118751	150391.4076702607
0.8592868419303532	150846.96217833753
0.8595016636408359	151310.4080679692
0.8597165390567462	151708.05345716857
0.8599314681915105	152096.4235771603
0.8601464510585584	152542.96646114864
0.860361487671323	153022.0107730568
0.8605765780432408	153503.8885948808
0.8607917221877518	153946.31487853834
0.8610069201182988	154404.69335444405
0.8612221718483286	154881.11486931122
0.8614374773912907	155341.79239711064
0.8616528367606385	155776.86925880774
0.8618682499698288	155994.24584087296
0.8620837170323213	156364.22085305472
0.8622992379615795	156968.34650432866
0.8625148127710699	157249.08398124998
0.8627304414742627	157630.91547211027
0.8629461240846313	158327.54768043032
0.8631618606156526	158694.4144562699
0.8633776510808066	159085.2061165013
0.8635934954935769	159555.89962607267
0.8638093938674504	160066.24935225403
0.8640253462159173	160142.90477167207
0.8642413525524714	159981.4589256755
0.8644574128906095	161242.5835032717
0.8646735272438323	161383.05944424658
0.8648896956256433	161267.26098017624
0.8651059180495498	162288.0484538104
0.8653221945290621	163215.54597364334
0.8655385250776946	163666.89917308223
0.8657549097089641	164232.40753186995
0.8659713484363913	164758.35350084535
0.8661878412735006	165321.96918320344
0.866404388233819	165808.46281489823
0.8666209893308775	166257.37239131783
0.8668376445782103	166768.17139615037
0.8670543539893549	167239.04907355388
0.8672711175778525	167477.9664047442
0.8674879353572469	167691.73401861882
0.8677048073410862	168281.81716085668
0.8679217335429217	168858.00606435473
0.8681387139763074	169356.14563613883
0.8683557486548015	169737.8741468939
0.8685728375919655	170323.53638518904
0.8687899808013633	170903.32374045494
0.8690071782965637	171438.48101989852
0.869224430091138	171942.49936320714
0.8694417361986609	172453.62119304066
0.8696590966327107	172867.26382814438
0.869876511406869	173034.0366536342
0.8700939805347206	173441.45900685948
0.8703115040298544	174228.9187512124
0.870529081905862	174851.26041664742
0.8707467141763385	175445.48455860393
0.8709644008548827	175932.50350022587
0.8711821419550964	176304.3963150611
0.8713999374905854	176754.88228981904
0.871617787474958	177412.7647239142
0.8718356919218269	177874.6971175678
0.8720536508448075	178404.4935897048
0.8722716642575187	178935.44497518407
0.8724897321735832	179471.5676283155
0.8727078546066265	180028.011115061
0.8729260315702784	180556.7074189273
0.873144263078171	181027.82106275647
0.8733625491439405	181582.12054040938
0.8735808897812266	182100.416763386
0.8737992850036719	182392.22527012488
0.874017734824923	182367.95588177216
0.8742362392586293	183456.60673875452
0.874454798318444	184035.69423922707
0.8746734120180236	184559.0598470932
0.8748920803710283	185096.55299674414
0.875110803391121	185617.721849372
0.8753295810919689	186163.7147045643
0.875548413487242	186743.33479535134
0.8757673005906139	187290.32737666115
0.8759862424157616	187805.90549859244
0.8762052389763657	188313.60194173534
0.8764242902861098	188859.08496452338
0.8766433963586814	189359.04856653535
0.8768625572077712	189900.38409696514
0.8770817728470732	190391.369637662
0.8773010432902849	190999.47266056153
0.8775203685511077	191579.54779488398
0.8777397486432454	192118.5872131687
0.8779591835804065	192653.20662626997
0.8781786733763015	193189.37406707896
0.8783982180446457	193712.03807680545
0.878617817599157	194222.47679846335
0.8788374720535569	194828.14948444974
0.8790571814215703	195339.91162074934
0.8792769457169257	195858.98898191148
0.879496764953355	196488.91628256853
0.8797166391445934	197051.39381983966
0.8799365683043796	197586.57532094052
0.8801565524464557	198135.27390724412
0.8803765915845676	198688.12338970727
0.8805966857324639	199242.58802961215
0.880816834903897	199779.2875589026
0.881037039112623	200298.89173310463
0.8812572983724012	200840.7908432686
0.8814776126969944	201338.2836572585
0.8816979821001687	201943.52609604519
0.8819184065956938	202552.62798156793
0.8821388861973429	203119.96762785056
0.8823594209188923	203667.55517272954
0.882580010774122	204253.1097153876
0.8828006557768155	204826.75453044954
0.8830213559407598	205379.7007383101
0.8832421112797452	205916.4709182353
0.8834629218075651	205919.1841252134
0.8836837875380171	205671.9519654827
0.8839047084849018	206818.33365890276
0.884125684662023	208175.75766228072
0.8843467160831886	208859.4946586309
0.8845678027622095	209452.11673293106
0.8847889447129001	210019.27873168778
0.8850101419490785	210589.6878970538
0.8852313944845657	211160.18939390013
0.885452702333187	211759.893072514
0.8856740655087704	212280.99596884285
0.8858954840251476	212589.2850510213
0.8861169578961539	213206.83279369806
0.886338487135628	214053.32738477996
0.886560071757412	214710.90172820835
0.8867817117753515	215326.92842638903
0.8870034072032955	215923.87136140472
0.8872251580550963	216495.94308434447
0.8874469643446101	217071.00656594953
0.8876688260856963	217658.783410236
0.8878907432922178	218289.90979482848
0.8881127159780409	218876.16199919692
0.8883347441570356	219398.82553345113
0.8885568278430749	219934.07801653826
0.8887789670500358	220636.0923851724
0.8890011617917983	221279.60364404676
0.8892234120822464	221916.39048600182
0.8894457179352669	222516.05395116995
0.8896680793647509	223097.95760357188
0.8898904963845921	223580.50241574182
0.8901129690086883	224209.37246429062
0.8903354972509405	224954.9571304461
0.8905580811252535	225550.24257774337
0.8907807206455347	225617.73713211148
0.8910034158256963	224588.72669366267
0.8912261666796527	225893.0072051
0.8914489732213227	227742.2933315199
0.8916718354646282	228087.62503912792
0.8918947534234944	228461.2973142462
0.8921177271118502	228962.58428670737
0.8923407565436284	228166.5243050091
0.8925638417327644	229899.00219267394
0.8927869826931977	231605.77594098714
0.8930101794388711	232277.58808955146
0.8932334319837308	231985.01232881576
0.8934567403417267	231620.474471785
0.8936801045268123	233816.68740584215
0.8939035245529441	234537.53784299042
0.8941270004340824	235069.3097133591
0.894350532184191	235231.96715520186
0.8945741198172371	236202.84274685028
0.8947977633471915	237440.1254902035
0.8950214627880284	238187.9506225938
0.8952452181537254	238543.42062587113
0.8954690294582639	238999.15745762415
0.8956928967156286	240039.88628796366
0.8959168199398075	240585.087568933
0.8961407991447926	241004.75464974303
0.8963648343445789	241392.61894864676
0.896588925553165	241306.37791527854
0.8968130727845534	242568.52953684868
0.8970372760527496	242729.42963881142
0.8972615353717629	238614.14601230607
0.8974858507556059	238515.74954449123
0.8977102222182949	244922.39015830876
0.8979346497738496	246732.88135858282
0.8981591334362931	247395.99967973624
0.8983836732196523	248038.3767826541
0.8986082691379572	248585.86015006035
0.8988329212052417	246223.9451864189
0.8990576294355432	242330.23790376907
0.8992823938429022	246719.7003952154
0.8995072144413631	250580.93764976843
0.8997320912449734	252011.7343227002
0.8999570242677847	252636.38719947895
0.9001820135238516	252882.09465455517
0.9004070590272328	253137.1913063627
0.9006321607919896	252249.3010585654
0.9008573188321878	253701.50855984676
0.9010825331618959	254357.8900175641
0.9013078037951865	256482.2341278208
0.9015331307461353	257431.51883814653
0.9017585140288219	258146.6826614591
0.9019839536573292	258933.29137129284
0.9022094496457435	259674.7266021462
0.9024350020081551	260345.19169700713
0.9026606107586572	261010.82220083967
0.902886275911347	261685.33980000837
0.9031119974803249	262135.38542348237
0.9033377754796951	262906.789960915
0.903563609923565	263819.84529700654
0.903789500826046	264435.069413493
0.9040154482012526	264693.9884264477
0.904241452063303	265848.30104683345
0.9044675124263188	266457.75220622163
0.9046936293044254	266933.33919158584
0.9049198027117517	267826.6348398923
0.9051460326624297	268694.5911231726
0.9053723191705955	269550.49110901897
0.9055986622503881	270289.1009031169
0.9058250619159507	271025.8385151171
0.9060515181814298	271691.5344223991
0.9062780310609752	272053.0494116638
0.9065046005687405	272703.7535704112
0.906731226718883	273653.5906647797
0.9069579095255627	274491.4862179311
0.907184649002944	275172.2395540275
0.907411445165195	275957.633535745
0.9076382980264862	276386.1790497001
0.907865207600993	277090.1073798913
0.9080921739028933	278093.1326281515
0.9083191969463691	278851.4227439051
0.9085462767456058	279270.6775313229
0.9087734133147922	279594.5171081791
0.9090006066681211	280944.0764376841
0.909227856819788	281848.17026659637
0.9094551637839932	282489.039252146
0.9096825275749393	283400.02307691076
0.9099099482068329	283799.44014753186
0.9101374256938848	284530.00032894727
0.9103649600503083	285125.2021520449
0.9105925512903209	286302.7422172243
0.9108201994281437	287067.9373985682
0.9110479044780008	287817.9410567313
0.9112756664541204	288591.7240200016
0.911503485370734	289395.21608173044
0.9117313612420768	290247.9605468331
0.9119592940823873	291082.49803460995
0.912187283905908	291899.5536488028
0.9124153307268845	292668.31669988186
0.9126434345595664	293420.1205231323
0.9128715954182063	294178.60006664565
0.9130998133170609	294925.4216094753
0.9133280882703902	295452.0615507486
0.913556420292458	296265.0314154224
0.9137848093975312	297169.5491480856
0.9140132555998806	298124.99236862455
0.9142417589137806	298758.93317642855
