#wavelength (Angstrom)	surface_flux (erg / (Angstrom cm2 s))
6300.0	51.489813268373055
6301.3125	76.71468808344154
6302.6252734375	90.35258951191786
6303.938320369467	91.87655827356193
6305.251640852877	92.7426817805235
6306.565234944722	93.61851662329784
6307.8791027020025	94.49703900002007
6309.193244181732	95.37583652507927
6310.5076594409375	96.25536866930179
6311.822348536654	97.14136196113165
6313.137311525933	98.04552652107326
6314.452548465834	98.96871343412049
6315.768059413431	99.89922002655453
6317.083844425809	100.83047426872979
6318.399903560065	101.76200075549865
6319.716236873307	102.69539374796817
6321.032844422655	103.6357173217898
6322.349726265244	104.58557489079558
6323.666882458216	105.54050402161059
6324.984313058728	106.49631351026989
6326.302018123949	107.45237270368355
6327.619997711058	108.41103594357335
6328.938251877249	109.38399695661235
6330.256780679723	110.38324214512605
6331.575584175699	111.40100844183755
6332.894662422402	112.4230566087979
6334.214015477073	113.44541382182271
6335.533643396964	114.46773684763977
6336.853546239339	115.48801759371729
6338.173724061472	116.50289407741678
6339.494176920652	117.5127960140342
6340.814904874177	118.52123655964738
6342.135907979359	119.52979320095166
6343.457186293522	120.53922197114683
6344.778739874001	121.5591063685931
6346.100568778142	122.61428963297156
6347.422673063304	123.71247647250536
6348.745052786858	124.83030285663504
6350.067708006189	125.95049686618674
6351.39063877869	127.07088048217213
6352.713845161769	128.18989776316707
6354.037327212845	129.3011633451947
6355.3610849893485	130.39963262858555
6356.685118548721	131.49029045875434
6358.009427948419	132.5797122902391
6359.334013245908	133.66937133092077
6360.658874498668	134.76242950848427
6361.984011764189	135.87913785908663
6363.309425099973	137.0471644501167
6364.635114563535	138.25742891327985
6365.961080212403	139.47961934136714
6367.2873221041145	140.70254897536378
6368.61384029622	141.92530913766615
6369.940634846282	143.14298660278322
6371.267705811875	144.344886466283
6372.595053250586	145.5296630790442
6373.922677220014	146.70787632484834
6375.250577777768	147.88577967077492
6376.578754981471	149.06418319762645
6377.907208888761	150.24857817445204
6379.235939557279	151.45714860094762
6380.564947044686	152.70013814384006
6381.894231408654	153.96183826853033
6383.223792706865	155.2265430276082
6384.553630997012	156.4915430653185
6385.883746336804	157.75771432494278
6387.2141387839565	159.0298103418272
6388.544808396204	160.31304892921807
6389.875755231287	161.60443581154226
6391.20697934696	162.89790847987203
6392.53848080099	164.19169781939283
6393.870259651158	165.48645793758786
6395.202315955253	166.78818458495923
6396.534649771077	168.1074512696062
6397.867261156446	169.44350914679111
6399.2001501691875	170.7854442923685
6400.533316867139	172.12801344705503
6401.866761308153	173.47099926613706
6403.200483550093	174.81663042305996
6404.534483650832	176.17108025603946
6405.868761668259	177.53663368343211
6407.2033176602745	178.90757584770552
6408.5381516847865	180.27939740492715
6409.873263799722	181.65141312148407
6411.2086540630135	183.02033273976588
6412.544322532611	184.37207190298858
6413.880269266471	185.6946885970211
6415.216494322568	186.99876317142815
6416.552997758886	188.29945774173623
6417.8897796334195	189.6003919821122
6419.226840004177	190.90601061502548
6420.5641789291785	192.24670000348468
6421.9017964664545	193.66675032453549
6423.239692674053	195.15440161407878
6424.577867610025	196.66186986332985
6425.9163213324455	198.1705201268076
6427.25505389939	199.68068339280055
6428.594065368952	201.20691481987657
6429.933355799238	202.78248068110065
6431.272925248362	204.4134572849395
6432.612773774456	206.0674840010542
6433.9529014356585	207.72394801042068
6435.293308290125	209.38046000898188
6436.63399439602	211.0297840681338
6437.974959811519	212.64632621730848
6439.316204594813	214.21392240577075
6440.657728804104	215.7541059772182
6441.999532497605	217.29022707753242
6443.341615733541	218.82663064222461
6444.683978570154	220.3630484016179
6446.026621065689	221.8977979148829
6447.369543278411	223.4289169848873
6448.7127452665945	224.95738895817112
6450.056227088525	226.48545462908663
6451.399988802502	228.01381961687068
6452.744030466836	229.5440957584054
6454.088352139851	231.0909391613144
6455.43295387988	232.68177983719914
6456.777835745272	234.31627504938513
6458.122997794385	235.96647145157897
6459.468440085592	237.6180664949769
6460.814162677278	239.26978295193192
6462.160165627836	240.91761628568074
6463.506448995675	242.54980377370626
6464.853012839217	244.16128567401964
6466.199857216891	245.76274182992782
6467.546982187145	247.3632265861012
6468.894387808435	248.9638409077824
6470.242074139227	250.55668010416625
6471.590041238007	252.10610686402038
6472.938289163264	253.57964876137748
6474.286817973508	255.00300563478123
6475.6356277272525	256.4163380780297
6476.984718483029	257.8297699209872
6478.334090299379	259.24377474360864
6479.683743234858	260.66042646050107
6481.033677348033	262.08293977807233
6482.38389269748	263.51065103634255
6483.734389341793	264.940141681924
6485.085167339573	266.37000204774375
6486.436226749436	267.80352137538483
6487.787567630007	269.28442423918074
6489.139190039932	270.91827506977216
6490.491094037857	272.7303546949953
6491.843279682447	274.61945132980037
6493.195747032382	276.51661989148045
6494.548496146348	278.4138368462177
6495.901527083045	280.30117143410376
6497.254839901187	282.1412315776399
6498.6084346595	283.9083059402083
6499.962311416722	285.6332100530228
6501.316470231601	287.35150459842663
6502.670911162898	289.0702176970245
6504.025634269391	290.798522697435
6505.3806396098635	292.5896807300516
6506.735927243117	294.50949383918123
6508.091497227958	296.52935149408614
6509.447349623215	298.5752635302803
6510.80348448772	300.622492333952
6512.159901880322	302.6662476944089
6513.51660185988	304.66618388294825
6514.873584485267	306.5409929628338
6516.23084981537	308.28644978488
6517.58839790908	309.98421869197205
6518.946228825313	311.6788311087554
6520.304342622985	313.37449947215924
6521.662739361031	315.0846444273374
6523.021419098398	316.85061415903135
6524.380381894044	318.69253795042226
6525.739627806938	320.5736543662045
6527.099156896065	322.46046147544104
6528.458969220418	324.3471762970265
6529.819064839006	326.2093487592428
6531.179443810848	327.9287773919096
6532.540106194976	329.3887408486536
6533.9010520504335	330.67046443668005
6535.262281436278	331.91422369293923
6536.6237944115765	333.1575218669025
6537.985591035413	334.4197941064512
6539.347671366879	335.84617068441446
6540.71003546508	337.67211866770754
6542.072683389135	339.86125110729125
6543.435615198176	342.16590359553265
6544.798830951341	344.47737321058224
6546.162330707791	346.78843540498224
6547.526114526688	349.08643952814094
6548.890182467215	351.3391122496613
6550.254534588562	353.53708714200195
6551.619170949934	355.7109177920947
6552.984091610549	357.88260317327627
6554.349296629635	360.05391467384834
6555.7147860664345	362.19967113926896
6557.080559980198	364.22017023879806
6558.446618430195	366.04004767365666
6559.8129614757	367.7382753920002
6561.1795891760075	369.4150607103767
6562.54650159042	371.09192994934466
6563.913698778251	372.7700793157524
6565.281180798831	374.4553254056908
6566.648947711497	376.15542990033964
6568.016999575604	377.8676361315002
6569.385336450516	379.58338819028717
6570.753958395609	381.29962089180304
6572.122865470276	383.0257230532547
6573.492057733915	384.8647136423385
6574.861535245943	387.0326065891997
6576.231298065786	389.54996455593675
6577.601346252884	392.20211891741457
6578.971679866686	394.8656004202698
6580.342298966659	397.5282831591394
6581.7132036122775	400.1617077383035
6583.08439386303	402.6729419722879
6584.455869778419	405.0111185484466
6585.827631417956	407.2571011063721
6587.199678841168	409.490087382617
6588.572012107595	411.7232769384622
6589.944631276783	413.9457891753867
6591.3175364083	416.1011987922178
6592.690727561718	418.1295822024848
6594.064204796627	420.0674334240175
6595.437968172626	421.985080869362
6596.812017749329	423.9025941406641
6598.18635358636	425.81260776938586
6599.5609757433585	427.6495100828419
6600.935884279972	429.30011533076055
6602.311079255864	430.7748574769374
6603.686560730708	432.1911714870929
6605.062328764195	433.60420487103033
6606.43838341602	435.01972479900246
6607.814724745898	436.47294501620854
6609.191352813554	438.05975631752017
6610.568267678725	439.8137433699112
6611.9454694011565	441.6456108178775
6613.322958040616	443.48662245048376
6614.700733656875	445.3280617383019
6616.07879630972	447.1711128060249
6617.457146058951	449.0207213910026
6618.835782964381	450.8809138683651
6620.214707085831	452.7479025690843
6621.593918483141	454.61649074758236
6622.973417216159	456.4854299176659
6624.353203344746	458.3450648723679
6625.733276928776	460.1294743657001
6627.113638028136	461.74491821115686
6628.494286702727	463.21919614463565
6629.8752230124555	464.6540259936223
6631.25644701725	466.0875435793807
6632.637958777046	467.5277950992287
6634.019758351792	469.04928895288106
6635.401845801448	470.81760021839494
6636.784221185991	472.8587758011251
6638.166884565405	475.010744810545
6639.54983599969	477.173039995189
6640.933075548856	479.33228051179674
6642.316603272929	481.4036735126159
6643.700419231944	483.09207366796454
6645.084523485952	484.2188169197428
6646.468916095012	485.0356893755378
6647.853597119198	485.8056930983606
6649.238566618597	486.5750163079807
6650.623824653309	487.30803928036227
6652.009371283446	487.8113832700082
6653.39520656913	487.86668260924966
6654.781330570499	487.59060288899457
6656.167743347702	487.23491669145466
6657.554444960899	486.87679886736714
6658.941435470266	486.5123206283806
6660.328714935989	486.08464018694224
6661.716283418268	485.4896100780675
6663.104140977314	484.7311465298701
6664.492287673351	483.91597502383524
6665.880723566617	483.0969793513504
6667.269448717359	482.26116237428647
6668.658463185843	481.12715407575877
6670.04776703234	478.8942322151772
6671.437360317139	475.2394767230165
6672.827243100539	470.8950550600466
6674.21741544285	466.4645633763227
6675.607877404403	462.02630393550214
6676.998629045529	457.32809891864247
6678.389670426579	451.25634058970076
6679.781001607919	442.8301916073628
6681.17262264992	432.8713194038414
6682.564533612973	422.60711425423426
6683.956734557476	412.3347407059953
6685.349225543842	401.8918084555026
6686.742006632498	390.0825606035275
6688.135077883879	375.1172416918008
6689.528439358438	357.419635019094
6690.9220911166385	338.90721724317615
6692.316033218955	320.3520509227155
6693.710265725876	301.6851342010637
6695.104788697902	281.5484568357762
6696.4996021955485	256.7495031747427
6697.894706279339	226.6153240523254
6699.290101009814	194.2308581274712
6700.685786447524	161.62534924659954
6702.081762653035	129.10684948806897
6703.478029686921	99.14968186431153
6704.874587609773	80.78978335716118
6706.27143648219	80.00784741249583
6707.668576364793	89.3020734591663
6709.066007318201	100.23781251997018
6710.46372940306	111.19629434875708
6711.861742680019	122.59077154663163
6713.260047209744	136.86409199492806
6714.658643052912	156.95803462662442
6716.0575302702155	181.50949858668096
6717.4567089223565	207.1873367198138
6718.856179070049	232.90734232799102
6720.255940774021	258.61314371914654
6721.6559940950165	284.1130232095643
6723.056339093787	309.03561110985294
6724.456975831098	333.37544249711544
6725.85790436773	357.50842182102497
6727.259124764472	381.6315494457827
6728.660637082132	405.7226525684253
6730.062441381524	429.1071499157335
6731.464537723479	449.76550537511014
6732.866926168839	466.77457793052633
6734.269606778457	481.9485312031258
6735.672579613203	496.88301510313886
6737.075844733956	511.81554294743654
6738.4794022016085	526.5465489793589
6739.883252077068	540.1212810449506
6741.2873944212515	551.6229529969632
6742.691829295089	561.7223571360214
6744.096556759525	571.5303878608424
6745.5015768755175	581.3345910812008
6746.906889704033	591.1047206081807
6748.312495306054	600.5704653364853
6749.718393742578	609.3054535518768
6751.124585074607	617.3869573399533
6752.531069363165	625.2662489985784
6753.937846669282	633.1363380052989
6755.344917054005	641.002335772372
6756.752280578391	648.7834462946958
6758.159937303512	656.2781861363216
6759.567887290451	663.4340578921018
6760.976130600304	670.4434694027752
6762.384667294178	677.4396055127029
6763.793497433198	684.4317878777669
6765.202621078498	691.2651226777508
6766.612038291223	697.3432908667405
6768.021749132533	702.2323039878086
6769.431753663604	706.4105946720084
6770.842051945616	710.4651596029158
6772.252644039771	714.5186096241042
6773.66353000728	718.5244168229177
6775.074709909365	722.185056658288
6776.486183807264	725.1149408690266
6777.897951762223	727.4646111682553
6779.310013835508	729.6620899273687
6780.722370088391	731.8546461978256
6782.135020582158	734.0697476586732
6783.547965378113	736.5357810788312
6784.961204537568	739.7185691185397
6786.374738121846	743.651576150815
6787.788566192289	747.8695329850048
6789.2026888102455	752.110823996349
6790.617106037082	756.3562287631295
6792.031817934173	760.672138801661
6793.446824562909	765.2704249368095
6794.862125984693	770.2605968418571
6796.27772226094	775.4558882496144
6797.693613453079	780.6806412664741
6799.109799622548	785.90400933016
6800.5262808308025	790.9925990032569
6801.9430571393095	795.2836499032393
6803.360128609546	798.0974420406526
6804.777495303007	799.8731678557618
6806.195157281196	801.4176782015843
6807.6131146056305	802.9568118618187
6809.031367337839	804.4929299145862
6810.449915539369	805.9987268379481
6811.868759271772	807.4279489031255
6813.287898596622	808.7858553342681
6814.707333575495	810.1206533114985
6816.12706426999	811.4543766007739
6817.547090741715	812.8098224981876
6818.967413052284	814.509795609644
6820.388031263337	817.4031977291486
6821.808945436517	821.7626453339055
6823.230155633484	826.7923578762321
6824.651661915907	831.8975069872325
6826.073464345473	837.0025283257726
6827.49556298388	842.0654382888133
6828.917957892834	846.9161942119418
6830.340649134063	851.421053906476
6831.763636769299	855.7125020620139
6833.186920860294	859.965497553842
6834.610501468806	864.218321785436
6836.034378656611	868.4043779234332
6837.458552485498	872.0866333489689
6838.883023017267	874.6687900803913
6840.307790313729	876.3500921650171
6841.732854436711	877.7836862928408
6843.158215448053	879.207621914051
6844.583873409604	880.6670675051664
6846.009828383232	882.5545417889404
6847.436080430813	885.7176841125586
6848.862629614236	890.2652373219164
6850.289475995406	895.3615248095311
6851.716619636238	900.5057181552452
6853.144060598662	905.6212719625846
6854.57179894462	910.0223800610598
6855.999834736067	911.3913066138915
6857.428168034971	908.397303247552
6858.856798903312	903.039892525316
6860.285727403084	897.3321815576304
6861.7149535962935	891.6265682574715
6863.144477544959	886.2328767710205
6864.5742993111135	882.7633974884061
6866.004418956804	882.9828632702767
6867.434836544087	885.886225683266
6868.865552135034	889.4196151174924
6870.296565791729	892.9713242274263
6871.72787757627	896.6161152406543
6873.159487550764	901.1779596445572
6874.591395777338	908.1353756996673
6876.023602318125	917.3952269928186
6877.456107235274	927.4349050636135
6878.888910590949	937.5242442070441
6880.322012447323	947.539889912679
6881.755412866582	956.2764722811883
6883.18911191093	960.4226745240734
6884.623109642579	958.7568924396151
6886.057406123754	954.3384123841332
6887.492001416697	949.5915658231492
6888.926895583659	944.8446887066914
6890.362088686906	940.1655696467957
6891.797580788715	935.8469121242972
6893.233371951381	932.1392444994912
6894.669462237203	928.8220322887659
6896.105851708503	925.5790041895865
6897.542540427609	922.33533055731
6898.979528456865	918.9346209424688
6900.416815858628	914.3046764454355
6901.854402695265	906.8827998201017
6903.29228902916	897.0775842751439
6904.730474922708	886.5736677216627
6906.168960438317	876.0350076116362
6907.607745638409	865.6275955912287
6909.0468305854165	857.0221681415809
6910.48621534179	854.0824932190128
6911.925899969986	857.5366823146151
6913.365884532479	863.6278105880327
6914.806169091757	869.9590528189983
6916.246753710318	876.2968165016899
6917.687638450675	882.7689331262482
6919.128823375352	889.8285802823333
6920.570308546889	897.7635678310947
6922.012094027836	906.1939540538518
6923.454179880759	914.7050815710002
6924.896566168235	923.2112075303738
6926.339252952854	931.1698923522272
6927.782240297219	935.5407350514816
6929.225528263946	932.7543064363898
6930.669116915669	924.5769839752176
6932.113006315028	915.078086479831
6933.557196524675	905.5376426326636
6935.001687607285	896.1657927172853
6936.446479625538	888.5499160965416
6937.8915726421255	885.6705857128047
6939.33696671976	887.4952318993288
6940.782661921161	890.9898118726362
6942.228658309061	894.6008558794891
6943.67495594621	898.2461171724788
6945.121554895365	902.5155604932316
6946.568455219301	909.135312989239
6948.015656980806	918.8473379373513
6949.463160242676	930.0850903152709
6950.910965067728	941.5181443398086
6952.359071518784	952.945184100465
6953.807479658683	963.9904235122087
6955.256189550279	972.9387065484048
6956.705201256435	978.2125210101301
6958.154514840031	981.0443148511378
6959.604130363956	983.376050112138
6961.054047891116	985.6983468191958
6962.504267484427	987.9748263700079
6963.954789206819	989.866586227292
6965.405613121237	990.8500023706126
6966.856739290638	991.031762953502
6968.30816777799	990.968939650156
6969.759898646277	990.8937440844671
6971.211931958496	990.8213240358962
6972.6642677776545	990.7890088107437
6974.116906166776	990.8871657021496
6975.569847188894	991.1370878881106
6977.023090907059	991.4520180037957
6978.47663738433	991.7733869685962
6979.930486683786	992.0951650311234
6981.3846388685115	992.4264757720904
6982.83909400161	992.801534585033
6984.293852146194	993.2442028071291
6985.748913365391	993.7265888655779
6987.204277722341	994.2157958519832
6988.659945280201	994.7061276962645
6990.115916102135	995.2880082425387
6991.572190251322	996.5033836850973
6993.028767790958	999.029354633576
6994.485648784248	1002.5751469044402
6995.942833294413	1006.3822361611884
6997.400321384683	1010.1987839722381
6998.858113118305	1013.996369931218
7000.316208558537	1017.5783176900393
7001.774607768653	1020.553548205341
7003.23331081194	1022.9033706876838
7004.692317751692	1025.0207112672051
7006.151628651223	1027.1207571814655
7007.6112435738605	1029.21029674974
7009.071162582939	1031.0677448144531
7010.5313857418105	1032.0010858139472
7011.9919131138395	1031.6734628020902
7013.452744762405	1030.7025461790633
7014.913880750897	1029.646131695046
7016.375321142722	1028.5886190185836
7017.837066001293	1027.5010136731394
7019.299115390043	1026.243543252566
7020.761469372417	1024.679025356054
7022.224128011869	1022.9032277208667
7023.687091371872	1021.0814366712085
7025.150359515908	1019.258340336677
7026.613932507475	1017.481317563543
7028.07781041008	1016.1238275151502
7029.541993287248	1015.8029216861171
7031.0064812025175	1016.4296653705923
7032.471274219435	1017.3569583935931
7033.936372401564	1018.3004604092616
7035.401775812481	1019.2578348567318
7036.867484515776	1020.4241189772875
7038.33349857505	1022.29849716048
7039.79981805392	1025.0293802362912
7041.266443016016	1028.1458001927967
7042.733373524977	1031.304641168003
7044.200609644461	1034.458913569446
7045.668151438137	1037.4453282033433
7047.135998969687	1039.6155971328117
7048.604152302806	1040.4809733252832
7050.072611501203	1040.5572121350228
7051.541376628598	1040.4943099441214
7053.010447748729	1040.4305694633556
7054.479824925345	1040.44309356364
7055.949508222204	1041.0043572864527
7057.419497703085	1042.738649444464
7058.889793431773	1045.4186620130583
7060.360395472071	1048.354936718983
7061.831303887795	1051.3018440998317
