#wavelength (Angstrom)	surface_flux (erg / (Angstrom cm2 s))
6300.0	3.786779110247845
6301.3125	5.644645678054371
6302.6252734375	6.654173379234721
6303.938320369467	6.774137526739609
6305.251640852877	6.84599584365355
6306.565234944722	6.918743955148481
6307.8791027020025	6.991737158359054
6309.193244181732	7.064754023196451
6310.5076594409375	7.137835496789988
6311.822348536654	7.2114944604246904
6313.137311525933	7.286779700148989
6314.452548465834	7.363767440916034
6315.768059413431	7.441409563135442
6317.083844425809	7.5191174599252255
6318.399903560065	7.596852753052008
6319.716236873307	7.674843823582744
6321.032844422655	7.753816115554757
6322.349726265244	7.834142574645118
6323.666882458216	7.91518393930912
6324.984313058728	7.9963398025593655
6326.302018123949	8.07751500635334
6327.619997711058	8.158806611422323
6328.938251877249	8.240698390991813
6330.256780679723	8.323686226332082
6331.575584175699	8.407448959861883
6332.894662422402	8.491397513739196
6334.214015477073	8.57536766467756
6335.533643396964	8.65940123431353
6336.853546239339	8.74387133121373
6338.173724061472	8.829402612115711
6339.494176920652	8.915915249284177
6340.814904874177	9.002756522258055
6342.135907979359	9.089633351355035
6343.457186293522	9.176562405581187
6344.778739874001	9.264037701653473
6346.100568778142	9.353339873443216
6347.422673063304	9.444866088808153
6348.745052786858	9.537411967955157
6350.067708006189	9.630087170448405
6351.39063877869	9.72278710964686
6352.713845161769	9.815690267028227
6354.037327212845	9.909530708212243
6355.3610849893485	10.004888365697509
6356.685118548721	10.101190195487117
6358.009427948419	10.197680298486144
6359.334013245908	10.294193477881983
6360.658874498668	10.390817213364405
6361.984011764189	10.488128940800356
6363.309425099973	10.58691758344782
6364.635114563535	10.686924228779663
6365.961080212403	10.787284573432123
6367.2873221041145	10.887679643766603
6368.61384029622	10.98811164016021
6369.940634846282	11.088765985689495
6371.267705811875	11.190046294094165
6372.595053250586	11.292003354237107
6373.922677220014	11.394238660562175
6375.250577777768	11.496516224281404
6376.578754981471	11.5988355781484
6377.907208888761	11.70163811888242
6379.235939557279	11.806385511315101
6380.564947044686	11.913901161202718
6381.894231408654	12.022922386968492
6383.223792706865	12.132186714999596
6384.553630997012	12.241477968116257
6385.883746336804	12.350969026376657
6387.2141387839565	12.461587024755193
6388.544808396204	12.574349652106397
6389.875755231287	12.688672891771652
6391.20697934696	12.80337429148847
6392.53848080099	12.918108504486417
6393.870259651158	13.032880799641376
6395.202315955253	13.147812416032535
6396.534649771077	13.263117155947908
6397.867261156446	13.378779881459982
6399.2001501691875	13.494579914706097
6400.533316867139	13.610411239791782
6401.866761308153	13.726298090783938
6403.200483550093	13.84275131324057
6404.534483650832	13.961185944167482
6405.868761668259	14.082125721540312
6407.2033176602745	14.204260684100207
6408.5381516847865	14.32655719699655
6409.873263799722	14.448883309346309
6411.2086540630135	14.571381111800578
6412.544322532611	14.694659497441814
6413.880269266471	14.819234743074745
6415.216494322568	14.944649454203194
6416.552997758886	15.07024816058295
6417.8897796334195	15.19587642306622
6419.226840004177	15.321648525580672
6420.5641789291785	15.448374621902786
6421.9017964664545	15.577235564096389
6423.239692674053	15.707917816351017
6424.577867610025	15.839147383267155
6425.9163213324455	15.970427430858713
6427.25505389939	16.10174874058838
6428.594065368952	16.23328024470483
6429.933355799238	16.3654080368337
6431.272925248362	16.498202643609943
6432.612773774456	16.631288492183323
6433.9529014356585	16.764426354871983
6435.293308290125	16.897603685978552
6436.63399439602	17.031105129749914
6437.974959811519	17.165937620561014
6439.316204594813	17.302737098017126
6440.657728804104	17.44065639938308
6441.999532497605	17.578776884764988
6443.341615733541	17.716929812202434
6444.683978570154	17.855282532968104
6446.026621065689	17.99477568095748
6447.369543278411	18.136506291506244
6448.7127452665945	18.27992465513875
6450.056227088525	18.42377806979988
6451.399988802502	18.567673753003355
6452.744030466836	18.711591586424056
6454.088352139851	18.85545954451714
6455.43295387988	18.999142820317836
6456.777835745272	19.142643104902742
6458.122997794385	19.286097790466833
6459.468440085592	19.429577178025532
6460.814162677278	19.573100809478483
6462.160165627836	19.716926812425367
6463.506448995675	19.86181337672785
6464.853012839217	20.008086644383702
6466.199857216891	20.15505824538872
6467.546982187145	20.302144583012733
6468.894387808435	20.44927458298503
6470.242074139227	20.59695298068635
6471.590041238007	20.747455283669836
6472.938289163264	20.902854916769627
6474.286817973508	21.061510916906677
6475.6356277272525	21.220858979625977
6476.984718483029	21.38025377601792
6478.334090299379	21.53994160686346
6479.683743234858	21.701857182991894
6481.033677348033	21.868999463424657
6482.38389269748	22.04074926751161
6483.734389341793	22.213917366089984
6485.085167339573	22.387188626120082
6486.436226749436	22.560562125959564
6487.787567630007	22.734898315461287
6489.139190039932	22.912274573526254
6490.491094037857	23.093188400712624
6491.843279682447	23.27564808520566
6493.195747032382	23.458296882509714
6494.548496146348	23.64099304317788
6495.901527083045	23.823999110136565
6497.254839901187	24.008304119450912
6498.6084346595	24.194588149880673
6499.962311416722	24.382036136186873
6501.316470231601	24.569707503184485
6502.670911162898	24.757415816720027
6504.025634269391	24.944875100396263
6505.3806396098635	25.130423386396103
6506.735927243117	25.31200737598947
6508.091497227958	25.490519852316748
6509.447349623215	25.66826963993221
6510.80348448772	25.84602857586842
6512.159901880322	26.023697297099876
6513.51660185988	26.199959405249793
6514.873584485267	26.37216198420704
6516.23084981537	26.540167180332645
6517.58839790908	26.706639548218206
6518.946228825313	26.873032067071176
6520.304342622985	27.039630785026333
6521.662739361031	27.209710821791827
6523.021419098398	27.39336264265799
6524.380381894044	27.59549852144713
6525.739627806938	27.807147306763685
6527.099156896065	28.020133285982713
6528.458969220418	28.233155341317453
6529.819064839006	28.445535791814127
6531.179443810848	28.65402287038824
6532.540106194976	28.85540552880925
6533.9010520504335	29.051918317778657
6535.262281436278	29.247420285567078
6536.6237944115765	29.442941595636043
6537.985591035413	29.638606330741737
6539.347671366879	29.835210844217602
6540.71003546508	30.03404717693167
6542.072683389135	30.234915678031225
6543.435615198176	30.43645739494881
6544.798830951341	30.638075871462433
6546.162330707791	30.839806196248308
6547.526114526688	31.042642312197383
6548.890182467215	31.249119861275098
6550.254534588562	31.459974754088265
6551.619170949934	31.672806497454708
6552.984091610549	31.885886710174923
6554.349296629635	32.09901133985654
6555.7147860664345	32.31217961455466
6557.080559980198	32.525388645511306
6558.446618430195	32.738636251401076
6559.8129614757	32.95192473690363
6561.1795891760075	33.16525702396474
6562.54650159042	33.37862824981821
6563.913698778251	33.59147476461796
6565.281180798831	33.80023982605448
6566.648947711497	34.000177289834454
6568.016999575604	34.19297288739549
6569.385336450516	34.38385853377148
6570.753958395609	34.5747086157355
6572.122865470276	34.765999421981164
6573.492057733915	34.96207360541005
6574.861535245943	35.17203699341227
6576.231298065786	35.39675638683521
6577.601346252884	35.62718267837658
6578.971679866686	35.858111166828174
6580.342298966659	36.08913093206171
6581.7132036122775	36.32114854394217
6583.08439386303	36.55712445851519
6584.455869778419	36.79867911565832
6585.827631417956	37.04323654166517
6587.199678841168	37.28827383174207
6588.572012107595	37.53334980405904
6589.944631276783	37.77761314059299
6591.3175364083	38.01669015267086
6592.690727561718	38.24593598918332
6594.064204796627	38.46817941240054
6595.437968172626	38.688871788492946
6596.812017749329	38.909570843576205
6598.18635358636	39.13037349242763
6599.5609757433585	39.3517583049071
6600.935884279972	39.57455084761382
6602.311079255864	39.79867502729127
6603.686560730708	40.02327430471107
6605.062328764195	40.24794645412025
6606.43838341602	40.472752839357426
6607.814724745898	40.69909788342074
6609.191352813554	40.930805967795195
6610.568267678725	41.169216543615
6611.9454694011565	41.41076828730071
6613.322958040616	41.65271982736786
6614.700733656875	41.894705623822155
6616.07879630972	42.136180688740076
6617.457146058951	42.37488534157597
6618.835782964381	42.60897996214269
6620.214707085831	42.840195198734705
6621.593918483141	43.070905512811855
6622.973417216159	43.301654578061196
6624.353203344746	43.532290372966735
6625.733276928776	43.76171569150004
6627.113638028136	43.98837030012276
6628.494286702727	44.212716915315596
6629.8752230124555	44.436448570458666
6631.25644701725	44.66020001925668
6632.637958777046	44.88407430919459
6634.019758351792	45.10895400481502
6635.401845801448	45.33680035983768
6636.784221185991	45.56792191010968
6638.166884565405	45.80039892711147
6639.54983599969	46.033041380412584
6640.933075548856	46.26566335243003
6642.316603272929	46.49659696753923
6643.700419231944	46.7200366892748
6645.084523485952	46.93246818204651
6646.468916095012	47.13884411760678
6647.853597119198	47.34433778694956
6649.238566618597	47.549843384513956
6650.623824653309	47.75375708883297
6652.009371283446	47.94740877223478
6653.39520656913	48.12100801848302
6654.781330570499	48.27978553620043
6656.167743347702	48.43502955530505
6657.554444960899	48.59019890962605
6658.941435470266	48.74428411551584
6660.328714935989	48.8871890316798
6661.716283418268	49.00041515528111
6663.104140977314	49.0846580902263
6664.492287673351	49.15887426170001
6665.880723566617	49.232456816799996
6667.269448717359	49.30529938431671
6668.658463185843	49.3646383085373
6670.04776703234	49.37415079429092
6671.437360317139	49.319188369667586
6672.827243100539	49.23296402007136
6674.21741544285	49.142858408827124
6675.607877404403	49.052292839992155
6676.998629045529	48.94483787191904
6678.389670426579	48.747962101633405
6679.781001607919	48.397781717096194
6681.17262264992	47.947813505568696
6682.564533612973	47.47799976264862
6683.956734557476	47.007659804995114
6685.349225543842	46.51974209582259
6686.742006632498	45.890141927714026
6688.135077883879	44.93310491116654
6689.528439358438	43.69261452160056
6690.9220911166385	42.367681076494996
6692.316033218955	41.03843508179504
6693.710265725876	39.68755458161884
6695.104788697902	38.0461989599857
6696.4996021955485	35.48235673846536
6697.894706279339	31.862806537128122
6699.290101009814	27.79826338220967
6700.685786447524	23.690449951304934
6702.081762653035	19.594358193339396
6703.478029686921	15.841758636837529
6704.874587609773	13.644238248376123
6706.27143648219	13.8037205340334
6707.668576364793	15.314323798652095
6709.066007318201	17.045085023316247
6710.46372940306	18.778642514719202
6711.861742680019	20.54762309502722
6713.260047209744	22.54951014150963
6714.658643052912	25.022121336128976
6716.0575302702155	27.855261679787986
6717.4567089223565	30.779636476249955
6718.856179070049	33.70759668358497
6720.255940774021	36.62513477524544
6721.6559940950165	39.42413295793244
6723.056339093787	41.8951604655675
6724.456975831098	44.035134907692374
6725.85790436773	46.05604337684763
6727.259124764472	48.06898177638423
6728.660637082132	50.07853164495008
6730.062441381524	52.01536171413897
6731.464537723479	53.6719106734744
6732.866926168839	54.95330110043285
6734.269606778457	56.04598675463248
6735.672579613203	57.11396327400608
6737.075844733956	58.18179225351063
6738.4794022016085	59.236204399035316
6739.883252077068	60.21356303232484
6741.2873944212515	61.05276200693853
6742.691829295089	61.798511354421855
6744.096556759525	62.52485504066182
6745.5015768755175	63.25095483315615
6746.906889704033	63.97397217680017
6748.312495306054	64.66970436740571
6749.718393742578	65.29997558735263
6751.124585074607	65.87170449852388
6752.531069363165	66.42529641528385
6753.937846669282	66.97803271513709
6755.344917054005	67.5303789240213
6756.752280578391	68.07521187149385
6758.159937303512	68.59476830166496
6759.567887290451	69.08441991469202
6760.976130600304	69.5611298285785
6762.384667294178	70.03663992379045
6763.793497433198	70.5121502225767
6765.202621078498	70.98483091282772
6766.612038291223	71.44378757993843
6768.021749132533	71.8810915022558
6769.431753663604	72.3054834028961
6770.842051945616	72.72768741211692
6772.252644039771	73.14994139160837
6773.66353000728	73.57116473629617
6775.074709909365	73.98449355347412
6776.486183807264	74.38103231573585
6777.897951762223	74.76425404267809
6779.310013835508	75.14403324737147
6780.722370088391	75.52376738372423
6782.135020582158	75.90362344068382
6783.547965378113	76.28404406873128
6784.961204537568	76.66593209055206
6786.374738121846	77.04935237942725
6787.788566192289	77.43340321792208
6789.2026888102455	77.81757758765582
6790.617106037082	78.2018393092062
6792.031817934173	78.58633875902528
6793.446824562909	78.97155578784962
6794.862125984693	79.35773842398852
6796.27772226094	79.74446370482198
6797.693613453079	80.13133382536525
6799.109799622548	80.51825911450736
6800.5262808308025	80.90391686712529
6801.9430571393095	81.28173081056185
6803.360128609546	81.64495638928825
6804.777495303007	81.99795153616955
6806.195157281196	82.34872230092468
6807.6131146056305	82.69950915594356
6809.031367337839	83.05018019394795
6810.449915539369	83.39918939959041
6811.868759271772	83.74391791832097
6813.287898596622	84.08466353654514
6814.707333575495	84.42415573530346
6816.12706426999	84.76364206830443
6817.547090741715	85.1033084897076
6818.967413052284	85.44480122505026
6820.388031263337	85.79244944483683
6821.808945436517	86.14764342963517
6823.230155633484	86.5063249408664
6824.651661915907	86.86546053855145
6826.073464345473	87.22467434864173
6827.49556298388	87.58405410571869
6828.917957892834	87.94395866189284
6830.340649134063	88.30467026550036
6831.763636769299	88.66590935402672
6833.186920860294	89.0273067329237
6834.610501468806	89.38877529206059
6836.034378656611	89.7496404877456
6837.458552485498	90.10551825848242
6838.883023017267	90.4504268785284
6840.307790313729	90.78636507048014
6841.732854436711	91.11988486328458
6843.158215448053	91.45337416937018
6844.583873409604	91.78692259154866
6846.009828383232	92.120414652647
6847.436080430813	92.45360096442474
6848.862629614236	92.78644954574072
6850.289475995406	93.11920629400997
6851.716619636238	93.45201858356617
6853.144060598662	93.78468365325416
6854.57179894462	94.1122028933431
6855.999834736067	94.41768307911795
6857.428168034971	94.6914248227982
6858.856798903312	94.9480020196524
6860.285727403084	95.20208757833734
6861.7149535962935	95.4562663289195
6863.144477544959	95.71373910408317
6864.5742993111135	95.99119506513887
6866.004418956804	96.30690133660319
6867.434836544087	96.65045447010296
6868.865552135034	97.00059445466563
6870.296565791729	97.35098883986943
6871.72787757627	97.70143481471175
6873.159487550764	98.0517413592574
6874.591395777338	98.40156569897808
6876.023602318125	98.7509294425062
6877.456107235274	99.10018561706899
6878.888910590949	99.44950352453017
6880.322012447323	99.79846610590164
6881.755412866582	100.14026531223591
6883.18911191093	100.4561984751605
6884.623109642579	100.73936585263306
6886.057406123754	101.00704664283613
6887.492001416697	101.27293374894637
6888.926895583659	101.53887001242607
6890.362088686906	101.80478491598831
6891.797580788715	102.07035163646178
6893.233371951381	102.33529044369871
6894.669462237203	102.59984759914616
6896.105851708503	102.86437626456772
6897.542540427609	103.12892151692151
6898.979528456865	103.38800727646361
6900.416815858628	103.60381860245104
6901.854402695265	103.72124136262147
6903.29228902916	103.75468608514268
6904.730474922708	103.763567611971
6906.168960438317	103.7713020825277
6907.607745638409	103.7780580532381
6909.0468305854165	103.77156436689341
6910.48621534179	103.72344258206154
6911.925899969986	103.62834489343183
6913.365884532479	103.51386499961691
6914.806169091757	103.39760699743756
6916.246753710318	103.28242064671434
6917.687638450675	103.1952330294422
6919.128823375352	103.23150396189622
6920.570308546889	103.45185927114498
6922.012094027836	103.7762658311033
6923.454179880759	104.1173778133408
6924.896566168235	104.45867794355573
6926.339252952854	104.79779926167348
6927.782240297219	105.12228642253994
6929.225528263946	105.4175168550877
6930.669116915669	105.69072674461857
6932.113006315028	105.95858654513502
6933.557196524675	106.2263413998072
6935.001687607285	106.49650915129564
6936.446479625538	106.79102440171815
6937.8915726421255	107.15107305729772
6939.33696671976	107.57620508410193
6940.782661921161	108.02449575838902
6942.228658309061	108.47447907940912
6943.67495594621	108.92485714525237
6945.121554895365	109.38093637043056
6946.568455219301	109.85824230190141
6948.015656980806	110.36344849413378
6949.463160242676	110.88246478659234
6950.910965067728	111.403324776583
6952.359071518784	111.92418343429337
6953.807479658683	112.44021344026746
6955.256189550279	112.92937309887073
6956.705201256435	113.37138959470339
6958.154514840031	113.78210130638578
6959.604130363956	114.18646467810264
6961.054047891116	114.59078114357385
6962.504267484427	114.99389950430411
6963.954789206819	115.38643363485126
6965.405613121237	115.75388142052344
6966.856739290638	116.09919767831269
6968.30816777799	116.4378109083601
6969.759898646277	116.77615238695316
6971.211931958496	117.11356607143837
6972.6642677776545	117.43670094343273
6974.116906166776	117.71323665658113
6975.569847188894	117.93555760209784
6977.023090907059	118.13469304265182
6978.47663738433	118.33159054585852
6979.930486683786	118.52852815064374
6981.3846388685115	118.7255275636497
6982.83909400161	118.92266390511094
6984.293852146194	119.11998956534606
6985.748913365391	119.31744332361991
6987.204277722341	119.51495297119243
6988.659945280201	119.71252907782541
6990.115916102135	119.91256269002324
6991.572190251322	120.12937396647386
6993.028767790958	120.3808543273992
6994.485648784248	120.65932049017472
6995.942833294413	120.94472954544823
6997.400321384683	121.23042510841971
6998.858113118305	121.51348436112181
7000.316208558537	121.76707088389169
7001.774607768653	121.93782208660305
7003.23331081194	122.02318760827835
7004.692317751692	122.0767820528725
7006.151628651223	122.12796762313907
7007.6112435738605	122.1790168782121
7009.071162582939	122.2269538722353
7010.5313857418105	122.26248465548217
7011.9919131138395	122.28108515170169
7013.452744762405	122.29105083757204
7014.913880750897	122.29987305749825
7016.375321142722	122.30880684746906
7017.837066001293	122.32301903914913
7019.299115390043	122.36719849835522
7020.761469372417	122.46557660205652
7022.224128011869	122.60123728865845
7023.687091371872	122.7449849941423
7025.150359515908	122.88895351740243
7026.613932507475	123.03646036100965
7028.07781041008	123.21571052648379
7029.541993287248	123.47330599065404
7031.0064812025175	123.80253009453214
7032.471274219435	124.15451150053357
7033.936372401564	124.50777580774101
7035.401775812481	124.85913349752495
7036.867484515776	125.18034393466546
7038.33349857505	125.39912712482062
7039.79981805392	125.49399376120519
7041.266443016016	125.53313825571527
7042.733373524977	125.5662425114825
7044.200609644461	125.59974114534498
7045.668151438137	125.6458683060106
7047.135998969687	125.7531799304586
7048.604152302806	125.95828254895312
7050.072611501203	126.2225467664097
7051.541376628598	126.49728870897019
7053.010447748729	126.77213702517734
7054.479824925345	127.04002299529064
7055.949508222204	127.25746627249403
7057.419497703085	127.36701557687458
7058.889793431773	127.3895893465605
7060.360395472071	127.38863622069793
