#wavelength (Angstrom)	surface_flux (erg / (Angstrom cm2 s))
6300.0	289.84143677189655
6301.3125	430.8984752330172
6302.6252734375	505.44533222862833
6303.938320369467	511.5279425153027
6305.251640852877	514.2098341857154
6306.565234944722	517.1996472427143
6307.8791027020025	520.2708693574281
6309.193244181732	523.3457073634214
6310.5076594409375	526.4448248681174
6311.822348536654	529.8136599953475
6313.137311525933	533.9541082771443
6314.452548465834	538.9026458078533
6315.768059413431	544.1576932236572
6317.083844425809	549.4375711204684
6318.399903560065	554.7072623864454
6319.716236873307	559.736771245652
6321.032844422655	563.7955168698631
6322.349726265244	566.5079145468707
6323.666882458216	568.5177592168047
6324.984313058728	570.4297159422715
6326.302018123949	572.3449449257439
6327.619997711058	574.4314555603927
6328.938251877249	577.5201660532355
6330.256780679723	582.4627912567111
6331.575584175699	588.7077080799367
6332.894662422402	595.2431162111783
6334.214015477073	601.7865509709336
6335.533643396964	608.2432817494448
6336.853546239339	613.8978298150511
6338.173724061472	617.5523389186735
6339.494176920652	619.3598967823044
6340.814904874177	620.5721901780742
6342.135907979359	621.7512462179542
6343.457186293522	622.9768296987158
6344.778739874001	624.9189269446601
6346.100568778142	629.3143438818136
6347.422673063304	636.7017192494877
6348.745052786858	645.4476536844975
6350.067708006189	654.3446517518693
6351.39063877869	663.2281013137745
6352.713845161769	671.5737951740813
6354.037327212845	677.2278887895044
6355.3610849893485	678.4887869170158
6356.685118548721	677.0378972718842
6358.009427948419	675.0931513460793
6359.334013245908	673.1443803963198
6360.658874498668	671.4895954537873
6361.984011764189	672.008208475538
6363.309425099973	677.2679759675552
6364.635114563535	686.4261813419955
6365.961080212403	696.6696950968676
6367.2873221041145	706.9603150885101
6368.61384029622	717.2231651531573
6369.940634846282	727.1118101155627
6371.267705811875	735.8721482059416
6372.595053250586	743.4092943083264
6373.922677220014	750.4678232774901
6375.250577777768	757.4886642319173
6376.578754981471	764.5050511207398
6377.907208888761	771.3895047958749
6379.235939557279	777.7198764973775
6380.564947044686	783.2583560941071
6381.894231408654	788.3696262225279
6383.223792706865	793.4183094597821
6384.553630997012	798.4669781520973
6385.883746336804	803.4743573733367
6387.2141387839565	808.2187079880908
6388.544808396204	812.456633321165
6389.875755231287	816.3278124897263
6391.20697934696	820.1150509182439
6392.53848080099	823.900989924289
6393.870259651158	827.7031415896396
6395.202315955253	831.653382795592
6396.534649771077	835.9842792677616
6397.867261156446	840.6793589142377
6399.2001501691875	845.4985663320715
6400.533316867139	850.3265737270324
6401.866761308153	855.151336884597
6403.200483550093	859.9037000352656
6404.534483650832	864.3921008180014
6405.868761668259	868.5456381257383
6407.2033176602745	872.5416512760293
6408.5381516847865	876.5200713883189
6409.873263799722	880.4883679310943
6411.2086540630135	884.0565140507425
6412.544322532611	885.5545993281951
6413.880269266471	883.5667189469556
6415.216494322568	879.3473189855614
6416.552997758886	874.6940799278129
6417.8897796334195	870.0344490324062
6419.226840004177	865.6380102517112
6420.5641789291785	863.3235422186157
6421.9017964664545	865.74203930498
6423.239692674053	872.1896027784064
6424.577867610025	879.8061070591918
6425.9163213324455	887.4761499407517
6427.25505389939	895.1792874067593
6428.594065368952	903.2979646533865
6429.933355799238	912.7062739982057
6431.272925248362	923.5638731459259
6432.612773774456	935.0204633753006
6433.9529014356585	946.5344276231681
6435.293308290125	958.0331845300153
6436.63399439602	969.0886366732332
6437.974959811519	978.1864869806778
6439.316204594813	984.3703691839603
6440.657728804104	988.9143217214646
6441.999532497605	993.1998759710563
6443.341615733541	997.4839229606897
6444.683978570154	1001.7378557936488
6446.026621065689	1005.7911262369576
6447.369543278411	1009.4448283849395
6448.7127452665945	1012.7986331918939
6450.056227088525	1016.0796735726642
6451.399988802502	1019.359192821368
6452.744030466836	1022.6542693833599
6454.088352139851	1026.1017710210888
6455.43295387988	1029.9578564976207
6456.777835745272	1034.2193246372437
6458.122997794385	1038.6251284843847
6459.468440085592	1043.0417010835274
6460.814162677278	1047.438215051399
6462.160165627836	1051.4373761302538
6463.506448995675	1053.9309520781119
6464.853012839217	1054.4422324053317
6466.199857216891	1053.977412687437
6467.546982187145	1053.3895420385752
6468.894387808435	1052.8004457655663
6470.242074139227	1052.1793879541622
6471.590041238007	1051.3864364504377
6472.938289163264	1050.2940861948816
6474.286817973508	1049.003248712846
6475.6356277272525	1047.6716164797476
6476.984718483029	1046.3398069445034
6478.334090299379	1045.2309434162369
6479.683743234858	1046.0071740093015
6481.033677348033	1051.2449666996426
6482.38389269748	1060.4123632993117
6483.734389341793	1070.769418412829
6485.085167339573	1081.1862652947545
6486.436226749436	1091.5906470276566
6487.787567630007	1101.7921718210914
6489.139190039932	1111.3311749199763
6490.491094037857	1120.0975752337774
6491.843279682447	1128.5320859793637
6493.195747032382	1136.934919553073
6494.548496146348	1145.3280945779422
6495.901527083045	1153.3882073092027
6497.254839901187	1159.8971452584362
6498.6084346595	1164.0173158258194
6499.962311416722	1166.7525847459742
6501.316470231601	1169.2613990775371
6502.670911162898	1171.7704479285883
6504.025634269391	1174.4001353373073
6505.3806396098635	1177.8432932962019
6506.735927243117	1182.9558888480794
6508.091497227958	1189.3657488634935
6509.447349623215	1196.1103916531401
6510.80348448772	1202.8680124001658
6512.159901880322	1209.5459933436607
6513.51660185988	1215.305879388325
6514.873584485267	1218.45795040122
6516.23084981537	1218.9143989712932
6517.58839790908	1218.3723488555274
6518.946228825313	1217.7572379857468
6520.304342622985	1217.138777552985
6521.662739361031	1216.455460793453
6523.021419098398	1215.5177884942118
6524.380381894044	1214.233508075041
6525.739627806938	1212.7710982093206
6527.099156896065	1211.2840992004212
6528.458969220418	1209.8012758174773
6529.819064839006	1208.5432440927564
6531.179443810848	1208.577049658769
6532.540106194976	1210.9563765661019
6533.9010520504335	1214.9479769602196
6535.262281436278	1219.2855364323493
6536.6237944115765	1223.631716843764
6537.985591035413	1228.1281621093522
6539.347671366879	1233.9331150107034
6540.71003546508	1242.925770336783
6542.072683389135	1254.8157340564726
6543.435615198176	1267.6264674232375
6544.798830951341	1280.4904433968634
6546.162330707791	1293.3136516119446
6547.526114526688	1305.4778012392198
6548.890182467215	1315.4055647961172
6550.254534588562	1322.6391642193119
6551.619170949934	1328.6718677305992
6552.984091610549	1334.5788463475553
6554.349296629635	1340.473738109829
6555.7147860664345	1345.9513513206946
6557.080559980198	1349.407291272116
6558.446618430195	1349.6288068473802
6559.8129614757	1347.8867003404741
6561.1795891760075	1345.793490084374
6562.54650159042	1343.6953315729318
6563.913698778251	1341.5867377060185
6565.281180798831	1339.4052285260225
6566.648947711497	1337.0674303817514
6568.016999575604	1334.6029555112316
6569.385336450516	1332.1037103752344
6570.753958395609	1329.6026212350844
6572.122865470276	1327.2193181221005
6573.492057733915	1326.2351275470612
6574.861535245943	1329.3367828257974
6576.231298065786	1336.7800368481776
6577.601346252884	1345.8948868410873
6578.971679866686	1355.1456480104837
6580.342298966659	1364.4008029277002
6581.7132036122775	1373.7120186200573
6583.08439386303	1383.248036917372
6584.455869778419	1393.1012205362397
6585.827631417956	1403.1247422814401
6587.199678841168	1413.174799814144
6588.572012107595	1423.2244594611545
6589.944631276783	1433.1218507847695
6591.3175364083	1442.0852927834428
6592.690727561718	1449.2846414469325
6594.064204796627	1455.2254606884842
6595.437968172626	1460.88203452097
6596.812017749329	1466.532375882955
6598.18635358636	1472.0687643737297
6599.5609757433585	1476.5349065315218
6600.935884279972	1478.2811149971194
6602.311079255864	1477.4594642008865
6603.686560730708	1475.7815720340466
6605.062328764195	1474.0512144694783
6606.43838341602	1472.3342556815448
6607.814724745898	1470.8517169005293
6609.191352813554	1470.205463369666
6610.568267678725	1470.6062912879684
6611.9454694011565	1471.4937312559607
6613.322958040616	1472.4363548758831
6614.700733656875	1473.372083660376
6616.07879630972	1474.0647051485912
6617.457146058951	1473.53445897335
6618.835782964381	1470.983715199038
6620.214707085831	1467.1628465433735
6621.593918483141	1463.1013712185015
6622.973417216159	1459.0356546263806
6624.353203344746	1455.009226236152
6625.733276928776	1451.2950261059798
6627.113638028136	1448.2811756546512
6628.494286702727	1445.8525731947682
6629.8752230124555	1443.5880670544607
6631.25644701725	1441.3297600865617
6632.637958777046	1439.2519735287317
6634.019758351792	1439.4502370414064
6635.401845801448	1446.5813095489762
6636.784221185991	1461.3777523859885
6638.166884565405	1479.2813573997673
6639.54983599969	1497.46650453129
6640.933075548856	1515.6141246959357
6642.316603272929	1532.7246600203828
6643.700419231944	1545.3188824110573
6645.084523485952	1551.2906665631226
6646.468916095012	1553.6081134010522
6647.853597119198	1555.371539606828
6649.238566618597	1557.1261270169382
6650.623824653309	1558.4964992226721
6652.009371283446	1557.4429221168177
6653.39520656913	1551.6621027914098
6654.781330570499	1542.3846144339764
6656.167743347702	1532.2661211860789
6657.554444960899	1522.1209013051284
6658.941435470266	1512.0657230126485
6660.328714935989	1502.9339336666876
6661.716283418268	1496.2524213180568
6663.104140977314	1491.963770127047
6664.492287673351	1488.503294831335
6665.880723566617	1485.0956742624362
6667.269448717359	1481.6534764108897
6668.658463185843	1477.6043966519203
6670.04776703234	1471.3197717492815
6671.437360317139	1462.1427845760252
6672.827243100539	1451.5626582979173
6674.21741544285	1440.807102978372
6675.607877404403	1430.030088847511
6676.998629045529	1418.5164798353633
6678.389670426579	1403.1090892773307
6679.781001607919	1381.0271475510854
6681.17262264992	1354.6001621908936
6682.564533612973	1327.3079046340554
6683.956734557476	1299.991579534929
6685.349225543842	1271.9568457391704
6686.742006632498	1238.1434724862058
6688.135077883879	1190.9775322955486
6689.528439358438	1132.2524017484045
6690.9220911166385	1070.0825032299974
6692.316033218955	1007.7350697078878
6693.710265725876	944.9822790599585
6695.104788697902	876.8851581195931
6696.4996021955485	791.8327859556751
6697.894706279339	687.3777011169933
6699.290101009814	574.7395761585201
6700.685786447524	461.2986070088394
6702.081762653035	348.1414483241948
6703.478029686921	243.37790854718008
6704.874587609773	176.62405620477008
6706.27143648219	167.48213358965404
6707.668576364793	191.3643370299301
6709.066007318201	220.62537112260227
6710.46372940306	249.96697035483058
6711.861742680019	281.29012037979334
6713.260047209744	325.7213063536635
6714.658643052912	396.6595042526607
6716.0575302702155	487.89617159998767
6717.4567089223565	584.2588677330687
6718.856179070049	680.8093303510319
6720.255940774021	777.1236127769401
6721.6559940950165	870.6899535362488
6723.056339093787	956.6429161566738
6724.456975831098	1034.9108926297063
6725.85790436773	1110.4187097789156
6727.259124764472	1185.7473181865696
6728.660637082132	1260.9165867273896
6730.062441381524	1332.739638833662
6731.464537723479	1391.675726313587
6732.866926168839	1433.3637200205776
6734.269606778457	1466.3741385699986
6735.672579613203	1498.245192260315
6737.075844733956	1530.1008970723533
6738.4794022016085	1561.092154435066
6739.883252077068	1587.1547584172404
6741.2873944212515	1604.3861173921105
6742.691829295089	1615.6416696024676
6744.096556759525	1625.6502870890342
6745.5015768755175	1635.6378827023154
6746.906889704033	1645.8722244165642
6748.312495306054	1658.184507560888
6749.718393742578	1675.4631424298375
6751.124585074607	1697.1846613343375
6752.531069363165	1720.291974435867
6753.937846669282	1743.4775637785647
6755.344917054005	1766.6481511486672
6756.752280578391	1789.5241315527212
6758.159937303512	1811.408245845067
6759.567887290451	1832.1188199247365
6760.976130600304	1852.3217053384744
6762.384667294178	1872.4778049466838
6763.793497433198	1892.601406110584
6765.202621078498	1911.6420643042375
6766.612038291223	1925.5557217629944
6768.021749132533	1931.399197997334
6769.431753663604	1932.417078160443
6770.842051945616	1932.5901961849152
6772.252644039771	1932.7517356910919
6773.66353000728	1932.762674824183
6775.074709909365	1931.6987023903027
6776.486183807264	1928.3619222519094
6777.897951762223	1923.2200173378217
6779.310013835508	1917.6027114981262
6780.722370088391	1911.9675291809097
6782.135020582158	1906.461336858411
6783.547965378113	1902.4299859729745
6784.961204537568	1902.6185054652299
6786.374738121846	1907.2240955400873
6787.788566192289	1913.504987168255
6789.2026888102455	1919.9195141553378
6790.617106037082	1926.3448717341653
6792.031817934173	1932.9762009954288
6793.446824562909	1940.4362432825053
6794.862125984693	1949.0468747866728
6796.27772226094	1958.2591422432074
6797.693613453079	1967.556742690226
6799.109799622548	1976.8472602810532
6800.5262808308025	1985.6485484376888
6801.9430571393095	1991.5646927043936
6803.360128609546	1992.1384687430827
6804.777495303007	1988.9575801729636
6806.195157281196	1984.9388353331954
6807.6131146056305	1980.8989031154513
6809.031367337839	1976.9338977725713
6810.449915539369	1973.6639458741383
6811.868759271772	1972.1394994465838
6813.287898596622	1972.2411196079277
6814.707333575495	1972.873992936162
6816.12706426999	1973.5377203729204
6817.547090741715	1974.3217907345659
6818.967413052284	1977.0356263453675
6820.388031263337	1986.4375918178268
6821.808945436517	2004.0557890288896
6823.230155633484	2025.4296142800767
6824.651661915907	2047.2248648323334
6826.073464345473	2068.982506381081
6827.49556298388	2089.3364244612335
6828.917957892834	2102.7402528662988
6830.340649134063	2104.8316547083664
6831.763636769299	2099.9319378666623
6833.186920860294	2093.7478103045446
6834.610501468806	2087.5452194406184
6836.034378656611	2081.376855550274
6837.458552485498	2075.472165613112
6838.883023017267	2070.144212757335
6840.307790313729	2065.2883913936876
6841.732854436711	2060.561791823909
6843.158215448053	2055.839494324795
6844.583873409604	2051.350630571018
6846.009828383232	2049.7082250665635
6847.436080430813	2056.5550727540967
6848.862629614236	2072.615081893955
6850.289475995406	2092.325093121177
6851.716619636238	2112.351055323166
6853.144060598662	2132.2986446774325
6854.57179894462	2150.262528368111
6855.999834736067	2159.8034838523877
6857.428168034971	2157.2243750960993
6858.856798903312	2148.080352791976
6860.285727403084	2137.9643087429963
6861.7149535962935	2127.843562030028
6863.144477544959	2117.90079368101
6864.5742993111135	2109.0633192120204
6866.004418956804	2102.3461320873766
6867.434836544087	2097.171174043196
6868.865552135034	2092.357152765632
6870.296565791729	2087.552479305907
6871.72787757627	2083.217227853231
6873.159487550764	2083.5490027790984
6874.591395777338	2096.0799037485835
6876.023602318125	2120.3354595781007
6877.456107235274	2148.5589573699554
6878.888910590949	2177.030670959404
6880.322012447323	2205.2959232938647
6881.755412866582	2229.9770421410767
6883.18911191093	2241.795097611403
6884.623109642579	2237.326925916393
6886.057406123754	2225.14522048314
6887.492001416697	2212.043412198594
6888.926895583659	2198.9291702359133
6890.362088686906	2185.510204956782
6891.797580788715	2170.5007295563155
6893.233371951381	2152.800223732391
6894.669462237203	2133.3774479928575
6896.105851708503	2113.621714719081
6897.542540427609	2093.860945285345
6898.979528456865	2074.666416526199
6900.416815858628	2059.949203023386
6901.854402695265	2055.4095775195615
6903.29228902916	2059.557107079761
6904.730474922708	2066.2467114398305
6906.168960438317	2073.056530836359
6907.607745638409	2079.9204483346325
6909.0468305854165	2087.4980190748656
6910.48621534179	2097.3145386382153
6911.925899969986	2109.6574432130747
6913.365884532479	2123.043616501343
6914.806169091757	2136.5268671229423
6916.246753710318	2150.0138799473357
6917.687638450675	2163.528076810863
6919.128823375352	2177.1524895043126
6920.570308546889	2190.9398511198337
6922.012094027836	2204.82054922358
6923.454179880759	2218.718610774327
6924.896566168235	2232.613583851907
6926.339252952854	2246.0624105409643
6927.782240297219	2256.579234801431
6929.225528263946	2261.245662870276
6930.669116915669	2261.505899497723
6932.113006315028	2260.68705283022
6933.557196524675	2259.8355640118066
6935.001687607285	2258.9740085332737
6936.446479625538	2258.010359852646
6937.8915726421255	2256.771822642565
6939.33696671976	2255.260285030773
6940.782661921161	2253.651642074801
6942.228658309061	2252.0359543246145
6943.67495594621	2250.5084550729603
6945.121554895365	2250.6297805677127
6946.568455219301	2256.966063261091
6948.015656980806	2271.4800219043823
6949.463160242676	2290.0276664842686
6950.910965067728	2309.0896144134094
6952.359071518784	2328.1511669125753
6953.807479658683	2346.9706303606818
6955.256189550279	2364.449482258895
6956.705201256435	2379.5773582173315
6958.154514840031	2393.1436169226045
6959.604130363956	2406.3920465932915
6961.054047891116	2419.6358048499183
6962.504267484427	2432.6479440982907
6963.954789206819	2443.712920550979
6965.405613121237	2450.1801198032235
6966.856739290638	2452.5896033997606
6968.30816777799	2453.7612997937335
6969.759898646277	2454.8706774510592
6971.211931958496	2456.002032502338
6972.6642677776545	2457.446199892505
6974.116906166776	2459.9072367130957
6975.569847188894	2463.55103946875
6977.023090907059	2467.701676383807
6978.47663738433	2471.902832300859
6979.930486683786	2476.0952435855797
6981.3846388685115	2480.017716462917
6982.83909400161	2482.691349728538
6984.293852146194	2483.4334715378172
6985.748913365391	2483.042059864053
6987.204277722341	2482.4582952416295
6988.659945280201	2481.8773261272845
6990.115916102135	2481.771369858466
6991.572190251322	2484.956246030013
6993.028767790958	2494.95000348633
6994.485648784248	2510.241850629712
6995.942833294413	2526.890680595704
6997.400321384683	2543.5879785005072
6998.858113118305	2560.1590714876793
7000.316208558537	2575.3129876388252
7001.774607768653	2586.4827075972926
7003.23331081194	2593.5455457986623
7004.692317751692	2599.080645038585
7006.151628651223	2604.500480859668
7007.6112435738605	2609.8874924517745
7009.071162582939	2614.554210811749
7010.5313857418105	2616.353654476238
7011.9919131138395	2614.2407231958873
7013.452744762405	2610.1317421386198
7014.913880750897	2605.757275099399
7016.375321142722	2601.372371298739
7017.837066001293	2596.5761240344264
7019.299115390043	2589.4481366771747
7020.761469372417	2578.1035978677464
7022.224128011869	2563.8583048262576
7023.687091371872	2548.983202460766
7025.150359515908	2534.0915300124143
7026.613932507475	2519.512985700729
7028.07781041008	2507.7898864770177
7029.541993287248	2503.1228000487936
7031.0064812025175	2504.9063047733143
7032.471274219435	2508.735276834426
7033.936372401564	2512.674073935974
7035.401775812481	2516.7033428459317
7036.867484515776	2522.101636802467
7038.33349857505	2532.1413249339153
7039.79981805392	2547.7953042184186
7041.266443016016	2565.976175872
7042.733373524977	2584.43466716115
7044.200609644461	2602.8444765899685
7045.668151438137	2619.570926834139
7047.135998969687	2628.123268836569
7048.604152302806	2623.608099139345
7050.072611501203	2611.1892311085917
7051.541376628598	2597.374517846078
7053.010447748729	2583.5471814029884
7054.479824925345	2570.3277154142024
7055.949508222204	2561.4991917875514
7057.419497703085	2562.0602439956265
