#wavelength (Angstrom)	surface_flux (erg / (Angstrom cm2 s))
6300.0	319.36808951079195
6301.3125	474.458030116709
6302.6252734375	555.8024201632436
6303.938320369467	561.6287170044906
6305.251640852877	563.8567926805509
6306.565234944722	566.547002020145
6307.8791027020025	569.3591154923448
6309.193244181732	572.1762905310137
6310.5076594409375	575.0358611226715
6311.822348536654	578.3719180500904
6313.137311525933	583.0721321050263
6314.452548465834	589.2010161363863
6315.768059413431	595.8714583116889
6317.083844425809	602.585269958512
6318.399903560065	609.2846898793094
6319.716236873307	615.6479442581647
6321.032844422655	620.652919686
6322.349726265244	623.7741572867014
6323.666882458216	625.912353294343
6324.984313058728	627.9134595946405
6326.302018123949	629.9213408463584
6327.619997711058	632.2877131468455
6328.938251877249	636.7537079280812
6330.256780679723	645.1040345510813
6331.575584175699	656.1828049702243
6332.894662422402	667.8698616646161
6334.214015477073	679.5732110279637
6335.533643396964	691.0481218529394
6336.853546239339	700.4188967109721
6338.173724061472	704.5452385207103
6339.494176920652	703.8284814215483
6340.814904874177	701.5500439815764
6342.135907979359	699.1833347865073
6343.457186293522	696.922718599842
6344.778739874001	696.3111603552294
6346.100568778142	701.3484892707646
6347.422673063304	713.2751794090884
6348.745052786858	728.3295443643752
6350.067708006189	743.7307459902216
6351.39063877869	759.1014598158305
6352.713845161769	773.2941654109128
6354.037327212845	781.5940489607358
6355.3610849893485	780.2762804333418
6356.685118548721	773.0214985598355
6358.009427948419	764.6848045590596
6359.334013245908	756.3388399294656
6360.658874498668	748.6783313022665
6361.984011764189	746.0903610946311
6363.309425099973	754.5688038746437
6364.635114563535	772.1465190373281
6365.961080212403	792.256861253495
6367.2873221041145	812.4763709760568
6368.61384029622	832.5784860268514
6369.940634846282	851.1548602290769
6371.267705811875	865.1398812030021
6372.595053250586	874.1478163894005
6373.922677220014	881.2055470082126
6375.250577777768	888.1055587667105
6376.578754981471	895.0005616712615
6377.907208888761	901.7517565361157
6379.235939557279	907.8994948943048
6380.564947044686	913.1848417955439
6381.894231408654	918.0048747756745
6383.223792706865	922.7566059760436
6384.553630997012	927.5093315095878
6385.883746336804	932.2924874849557
6387.2141387839565	937.2602515805443
6388.544808396204	942.5818601668992
6389.875755231287	948.1601933904113
6391.20697934696	953.7986143217331
6392.53848080099	959.4398299355382
6393.870259651158	965.1428692646484
6395.202315955253	971.4262854940685
6396.534649771077	979.2045507895552
6397.867261156446	988.4128947731931
6399.2001501691875	998.1073942863788
6400.533316867139	1007.8345680720081
6401.866761308153	1017.5290970820423
6403.200483550093	1026.626820592689
6404.534483650832	1033.5650085120062
6405.868761668259	1037.76526199275
6407.2033176602745	1040.6742797063696
6408.5381516847865	1043.433591456598
6409.873263799722	1046.1746109579299
6411.2086540630135	1048.2297456115853
6412.544322532611	1046.7401793631755
6413.880269266471	1039.2819429869078
6415.216494322568	1028.0025948389334
6416.552997758886	1015.9796875588328
6417.8897796334195	1003.9452650478382
6419.226840004177	992.4018493226149
6420.5641789291785	984.7473160891958
6421.9017964664545	985.9343018751881
6423.239692674053	994.6477699171172
6424.577867610025	1005.5443806113117
6425.9163213324455	1016.5403187996868
6427.25505389939	1027.6204891950285
6428.594065368952	1039.7798569314618
6429.933355799238	1055.2924512811624
6431.272925248362	1074.5736357118285
6432.612773774456	1095.411281351145
6433.9529014356585	1116.3963223845342
6435.293308290125	1137.3469475997829
6436.63399439602	1157.3198010298058
6437.974959811519	1172.9780072389724
6439.316204594813	1182.214136137465
6440.657728804104	1187.835633579918
6441.999532497605	1192.8868147477033
6443.341615733541	1197.9334268465452
6444.683978570154	1202.8886103692619
6446.026621065689	1207.2436907344459
6447.369543278411	1210.4054142505222
6448.7127452665945	1212.6710574671167
6450.056227088525	1214.7180627987798
6451.399988802502	1216.758989421165
6452.744030466836	1218.882177007805
6454.088352139851	1221.8406582492787
6455.43295387988	1227.0437935521607
6456.777835745272	1234.473969656474
6458.122997794385	1242.6949303980573
6459.468440085592	1250.9718024218312
6460.814162677278	1259.2154009382398
6462.160165627836	1266.7963038506673
6463.506448995675	1271.8656998512438
6464.853012839217	1273.6283154534883
6466.199857216891	1273.7627391074984
6467.546982187145	1273.6920722770967
6468.894387808435	1273.6102645254416
6470.242074139227	1273.099818667889
6471.590041238007	1270.2769376121578
6472.938289163264	1263.4251205453543
6474.286817973508	1253.9028609578675
6475.6356277272525	1243.8330499759272
6476.984718483029	1233.7514752185486
6478.334090299379	1223.8477614483024
6479.683743234858	1215.4619213302483
6481.033677348033	1210.6710862872371
6482.38389269748	1209.0463946791742
6483.734389341793	1208.3789198628572
6485.085167339573	1207.7577701863986
6486.436226749436	1207.2167614273321
6487.787567630007	1207.8001372982815
6489.139190039932	1212.0290220923248
6490.491094037857	1220.5071796708453
6491.843279682447	1230.8174340905525
6493.195747032382	1241.3132138182295
6494.548496146348	1251.7927010919504
6495.901527083045	1261.7293830096944
6497.254839901187	1269.1404761543977
6498.6084346595	1272.662588568642
6499.962311416722	1273.929763120954
6501.316470231601	1274.827662515794
6502.670911162898	1275.7267177127096
6504.025634269391	1276.936356459286
6505.3806396098635	1280.246953965437
6506.735927243117	1287.8704493882544
6508.091497227958	1298.8450946990513
6509.447349623215	1310.6837014068842
6510.80348448772	1322.5547196800599
6512.159901880322	1334.3228182483788
6513.51660185988	1344.897685955449
6514.873584485267	1352.0820425454142
6516.23084981537	1355.7617050406413
6517.58839790908	1358.1435814987099
6518.946228825313	1360.4310941946235
6520.304342622985	1362.7323626747138
6521.662739361031	1365.3009282503308
6523.021419098398	1368.917938837013
6524.380381894044	1373.963675221032
6525.739627806938	1379.7436396979479
6527.099156896065	1385.6249130604924
6528.458969220418	1391.4923733315954
6529.819064839006	1396.602319620467
6531.179443810848	1397.3581093863666
6532.540106194976	1390.2081373700016
6533.9010520504335	1377.6239290753088
6535.262281436278	1363.8737933934156
6536.6237944115765	1350.0986953093648
6537.985591035413	1336.8421362222055
6539.347671366879	1328.1475027682045
6540.71003546508	1330.575001601229
6542.072683389135	1343.1108753450706
6543.435615198176	1358.8550902393838
6544.798830951341	1374.7791363351312
6546.162330707791	1390.6630193176193
6547.526114526688	1405.8879807374594
6548.890182467215	1418.8754999564144
6550.254534588562	1429.167452722499
6551.619170949934	1438.2582370856558
6552.984091610549	1447.2238375898153
6554.349296629635	1456.1720266453958
6555.7147860664345	1464.515789971209
6557.080559980198	1469.9308434772038
6558.446618430195	1470.6602765324255
6559.8129614757	1468.5450984531149
6561.1795891760075	1465.9213620475548
6562.54650159042	1463.290464837009
6563.913698778251	1460.6365196564204
6565.281180798831	1457.8189227676403
6566.648947711497	1454.6500516215633
6568.016999575604	1451.196545183208
6569.385336450516	1447.6652282722464
6570.753958395609	1444.1301976753593
6572.122865470276	1440.8458113692998
6573.492057733915	1440.5346521040813
6574.861535245943	1448.9055330582255
6576.231298065786	1466.5018820618745
6577.601346252884	1487.650435410516
6578.971679866686	1509.088146037816
6580.342298966659	1530.5016277928476
6581.7132036122775	1551.287521746972
6583.08439386303	1569.4756148654699
6584.455869778419	1583.9874916800886
6585.827631417956	1596.5375026221452
6587.199678841168	1608.8046800966924
6588.572012107595	1621.068083466869
6589.944631276783	1633.0521056078326
6591.3175364083	1643.3290367546515
6592.690727561718	1650.3826513702213
6594.064204796627	1655.1363417252287
6595.437968172626	1659.3695988539803
6596.812017749329	1663.5902510074357
6598.18635358636	1667.6173218715114
6599.5609757433585	1669.8355819014391
6600.935884279972	1667.4586232537854
6602.311079255864	1660.7433073070124
6603.686560730708	1652.5806453266955
6605.062328764195	1644.328256436589
6606.43838341602	1636.1267350907722
6607.814724745898	1628.820806217357
6609.191352813554	1624.7107492995217
6610.568267678725	1624.6022100350976
6611.9454694011565	1626.3531203151438
6613.322958040616	1628.3145961470443
6614.700733656875	1630.2745331408878
6616.07879630972	1632.1619457976547
6617.457146058951	1633.683139700833
6618.835782964381	1634.599016134974
6620.214707085831	1635.134508064057
6621.593918483141	1635.5982255395631
6622.973417216159	1636.0603465546392
6624.353203344746	1636.4189717320219
6625.733276928776	1635.969621304385
6627.113638028136	1633.7105235330089
6628.494286702727	1629.9387643134628
6629.8752230124555	1625.7413681404307
6631.25644701725	1621.5258792877687
6632.637958777046	1617.5509328350224
6634.019758351792	1616.6117195934216
6635.401845801448	1624.9198099048353
6636.784221185991	1643.452354643392
6638.166884565405	1666.1292385371466
6639.54983599969	1689.1814156827143
6640.933075548856	1712.1795640334283
6642.316603272929	1733.7003760822101
6643.700419231944	1748.7896482501362
6645.084523485952	1754.4483895504575
6646.468916095012	1754.9029901572628
6647.853597119198	1754.568107223321
6649.238566618597	1754.2223554143939
6650.623824653309	1753.4766909557968
6652.009371283446	1750.2104445312602
6653.39520656913	1742.0289302092442
6654.781330570499	1730.211549301269
6656.167743347702	1717.5193406097028
6657.554444960899	1704.799086535282
6658.941435470266	1692.296005244621
6660.328714935989	1681.9979267743126
6661.716283418268	1677.54702213173
6663.104140977314	1678.8063346376555
6664.492287673351	1682.0435345041924
6665.880723566617	1685.4092057699925
6667.269448717359	1688.7228950387425
6668.658463185843	1691.094340655891
6670.04776703234	1689.9900372800082
6671.437360317139	1684.388257829998
6672.827243100539	1676.6055990927598
6674.21741544285	1668.5518549474666
6675.607877404403	1660.4539282004714
6676.998629045529	1650.7179139895154
6678.389670426579	1632.3084431759585
6679.781001607919	1599.0289418485609
6681.17262264992	1556.070407862216
6682.564533612973	1511.1870489228177
6683.956734557476	1466.2589913318945
6685.349225543842	1420.7601639678471
6686.742006632498	1370.7046081815427
6688.135077883879	1310.1263195295544
6689.528439358438	1240.4379446417995
6690.9220911166385	1168.0312352436906
6692.316033218955	1095.4797984862337
6693.710265725876	1022.5502602318165
6695.104788697902	944.673488827215
6696.4996021955485	851.1080163086266
6697.894706279339	739.5896523637714
6699.290101009814	620.497912908494
6700.685786447524	500.6603464477396
6702.081762653035	381.1215644442016
6703.478029686921	270.4215139411375
6704.874587609773	199.7470791904559
6706.27143648219	189.74019180904003
6707.668576364793	214.50892804888446
6709.066007318201	244.94170518915163
6710.46372940306	275.46013631408806
6711.861742680019	308.1321736834089
6713.260047209744	355.0520090747351
6714.658643052912	430.78397101959195
6716.0575302702155	528.5795398051627
6717.4567089223565	631.9466780898753
6718.856179070049	735.5176308772437
6720.255940774021	838.9890741080211
6721.6559940950165	941.174325391193
6723.056339093787	1039.774705594978
6724.456975831098	1134.7563859340435
6725.85790436773	1228.446109627219
6727.259124764472	1322.0632525805584
6728.660637082132	1415.5005130993466
6730.062441381524	1505.1276194958557
6731.464537723479	1580.0764036892724
6732.866926168839	1635.3789656896636
6734.269606778457	1680.7982550192507
6735.672579613203	1724.9212861033318
6737.075844733956	1769.0242022512123
6738.4794022016085	1811.9352078062439
6739.883252077068	1848.0503516570388
6741.2873944212515	1871.9885254019327
6742.691829295089	1887.6869646629743
6744.096556759525	1901.6660988290114
6745.5015768755175	1915.6168811225089
6746.906889704033	1930.0341705937828
6748.312495306054	1948.3877822183445
6749.718393742578	1976.1507801538419
6751.124585074607	2012.3312786597455
6752.531069363165	2051.1365930404586
6753.937846669282	2090.0891909934385
6755.344917054005	2129.0515798142455
6756.752280578391	2168.047386660872
6758.159937303512	2207.1355286047683
6759.567887290451	2246.3313580766926
6760.976130600304	2285.57861535618
6762.384667294178	2324.8383579784845
6763.793497433198	2364.021739347916
6765.202621078498	2400.7088492128632
6766.612038291223	2425.5833879762913
6768.021749132533	2431.865147948954
6769.431753663604	2427.0286823751167
6770.842051945616	2420.2446414329975
6772.252644039771	2413.434125298569
6773.66353000728	2406.455470040582
6775.074709909365	2398.2856567784956
6776.486183807264	2387.5988654954112
6777.897951762223	2374.9127227732197
6779.310013835508	2361.6989536443684
6780.722370088391	2348.4639615774327
6782.135020582158	2335.5147720427326
6783.547965378113	2325.8349955280983
6784.961204537568	2325.5100712759568
6786.374738121846	2334.9771712831803
6787.788566192289	2348.1580831221063
6789.2026888102455	2361.63509561398
6790.617106037082	2375.112415107717
6792.031817934173	2388.5386435705104
6793.446824562909	2401.7497562890767
6794.862125984693	2414.660974161493
6796.27772226094	2427.4168879964514
6797.693613453079	2440.1534887569655
6799.109799622548	2452.8742851697652
6800.5262808308025	2464.63387185143
6801.9430571393095	2470.730516853712
6803.360128609546	2466.342173991454
6804.777495303007	2454.5845454387013
6806.195157281196	2441.1815624701053
6807.6131146056305	2427.7359569213268
6809.031367337839	2414.4730179215944
6810.449915539369	2402.9107035369807
6811.868759271772	2395.620331093456
6813.287898596622	2392.309535552719
6814.707333575495	2390.2984105681685
6816.12706426999	2388.3620691615515
6817.547090741715	2386.6780659183732
6818.967413052284	2389.05088114926
6820.388031263337	2405.4854234179825
6821.808945436517	2439.194670359777
6823.230155633484	2480.7997834228936
6824.651661915907	2523.2902879125636
6826.073464345473	2565.704571228654
6827.49556298388	2605.2834269627806
6828.917957892834	2630.8248252698154
6830.340649134063	2633.518127567053
6831.763636769299	2622.091105764244
6833.186920860294	2608.069632801653
6834.610501468806	2594.010030655274
6836.034378656611	2579.95192407214
6837.458552485498	2565.9238948323655
6838.883023017267	2551.96494083703
6840.307790313729	2538.0620307233876
6841.732854436711	2524.1724474317853
6843.158215448053	2510.280761489591
6844.583873409604	2496.9816394358336
6846.009828383232	2490.912580258784
6847.436080430813	2506.4071831703113
6848.862629614236	2545.3042905473285
6850.289475995406	2593.4725900841463
6851.716619636238	2642.443060023793
6853.144060598662	2691.1921959174915
6854.57179894462	2734.3755916048062
6855.999834736067	2753.9314056438834
6857.428168034971	2739.489273405808
6858.856798903312	2706.6312386201957
6860.285727403084	2671.045207788127
6861.7149535962935	2635.4651460928026
6863.144477544959	2601.5982516241947
6864.5742993111135	2578.3042536837042
6866.004418956804	2575.2805712711906
6867.434836544087	2587.004342258814
6868.865552135034	2602.1893060895563
6870.296565791729	2617.4741221462823
6871.72787757627	2633.38369409035
6873.159487550764	2655.4643323850228
6874.591395777338	2693.6682279361894
6876.023602318125	2747.3684612276893
6877.456107235274	2806.316060974005
6878.888910590949	2865.59614075791
6880.322012447323	2924.3563528588247
6881.755412866582	2974.132867372709
6883.18911191093	2991.6743810980447
6884.623109642579	2968.4030706028852
6886.057406123754	2925.800538523205
6887.492001416697	2880.889880711285
6888.926895583659	2835.942052342576
6890.362088686906	2790.0884990689106
6891.797580788715	2739.5127884888793
6893.233371951381	2680.948390433773
6894.669462237203	2617.270749252715
6896.105851708503	2552.603578199469
6897.542540427609	2487.912025376493
6898.979528456865	2423.6911714904336
6900.416815858628	2363.2611247189657
6901.854402695265	2311.4608431378565
6903.29228902916	2267.0250964992347
6904.730474922708	2224.737325582651
6906.168960438317	2182.5416858634703
6907.607745638409	2140.9572156639183
6909.0468305854165	2107.745920447858
6910.48621534179	2100.8583194519283
6911.925899969986	2123.6771158810093
6913.365884532479	2158.748169077244
6914.806169091757	2194.9361686725274
6916.246753710318	2231.1502676295695
6917.687638450675	2267.8465171745906
6919.128823375352	2306.641670765003
6920.570308546889	2348.56251722529
6922.012094027836	2392.2535800077967
6923.454179880759	2436.2355312417026
6924.896566168235	2480.200018636689
6926.339252952854	2522.033769481959
6927.782240297219	2549.890490676167
6929.225528263946	2549.862640134955
6930.669116915669	2528.8325427803534
6932.113006315028	2502.655458145348
6933.557196524675	2476.3184764117477
6935.001687607285	2450.298140344507
6936.446479625538	2427.592116219771
6937.8915726421255	2413.8290292431593
6939.33696671976	2408.9473732749816
6940.782661921161	2407.217547936662
6942.228658309061	2405.7059224081722
6943.67495594621	2404.3780518891076
6945.121554895365	2406.4789619691496
6946.568455219301	2421.502996015917
6948.015656980806	2453.531228365878
6949.463160242676	2493.9470751132394
6950.910965067728	2535.4326963952767
6952.359071518784	2576.898161316272
6953.807479658683	2617.0094451312966
6955.256189550279	2649.682309965991
6956.705201256435	2669.320787107698
6958.154514840031	2680.296785887665
6959.604130363956	2689.499101822384
6961.054047891116	2698.6671251660046
6962.504267484427	2707.4814926634226
6963.954789206819	2713.339619713055
6965.405613121237	2712.220362790619
6966.856739290638	2704.9430275878885
6968.30816777799	2695.785616375535
6969.759898646277	2686.531385740741
6971.211931958496	2677.315725871325
6972.6642677776545	2668.680266816952
6974.116906166776	2661.936194482558
6975.569847188894	2657.392462355073
6977.023090907059	2653.7902621561293
6978.47663738433	2650.2797841477854
6979.930486683786	2646.761917131389
6981.3846388685115	2643.0547089787615
6982.83909400161	2638.4763987841375
6984.293852146194	2632.5515360588324
6985.748913365391	2625.8358762621824
6987.204277722341	2618.9849089910317
6988.659945280201	2612.141926217969
6990.115916102135	2606.337335387212
6991.572190251322	2607.7334807865673
6993.028767790958	2624.029516299795
6994.485648784248	2651.919115401041
6995.942833294413	2682.777272762401
6997.400321384683	2713.7404112095187
6998.858113118305	2744.507861922261
7000.316208558537	2773.0673803818822
7001.774607768653	2795.417740203006
7003.23331081194	2811.367710963868
7004.692317751692	2824.937416347121
7006.151628651223	2838.3284896396713
7007.6112435738605	2851.6256126470435
7009.071162582939	2862.8700450590104
7010.5313857418105	2865.944596154599
7011.9919131138395	2857.871560837078
7013.452744762405	2844.1109425457375
7014.913880750897	2829.59347246023
7016.375321142722	2815.0599446368865
7017.837066001293	2800.0130584521826
7019.299115390043	2782.0649832111376
7020.761469372417	2758.872135111767
7022.224128011869	2732.0705822809246
7023.687091371872	2704.484028023084
7025.150359515908	2676.875139783262
7026.613932507475	2649.7236199836025
7028.07781041008	2626.752696540347
7029.541993287248	2614.114108863688
7031.0064812025175	2610.9212155163045
7032.471274219435	2610.7227037612474
7033.936372401564	2610.6838214001828
7035.401775812481	2610.832939285606
7036.867484515776	2613.8513219263127
7038.33349857505	2626.6014820884166
7039.79981805392	2651.123689937685
7041.266443016016	2680.9433348694115
7042.733373524977	2711.343447546322
7044.200609644461	2741.6810627306895
7045.668151438137	2769.804744222629
7047.135998969687	2787.1730282069166
7048.604152302806	2787.3464686693264
7050.072611501203	2777.1203565262717
7051.541376628598	2765.0586640939737
7053.010447748729	2752.9833611640374
7054.479824925345	2741.887282822397
7055.949508222204	2737.8514562324362
7057.419497703085	2748.9108397909035
