#wavelength (Angstrom)	surface_flux (erg / (Angstrom cm2 s))
6300.0	103.7233923752515
6301.3125	154.5014596503389
6302.6252734375	181.89270854521044
6303.938320369467	184.89904180231102
6305.251640852877	186.65148346648198
6306.565234944722	188.48038338018222
6307.8791027020025	190.32966438736955
6309.193244181732	192.18006755524323
6310.5076594409375	194.03684217770785
6311.822348536654	195.9621392829974
6313.137311525933	198.08305123515913
6314.452548465834	200.40881472670418
6315.768059413431	202.81241754817995
6317.083844425809	205.22253157923
6318.399903560065	207.63045160687636
6319.716236873307	209.98123697833253
6321.032844422655	212.10036878387072
6322.349726265244	213.89812852234772
6323.666882458216	215.52830405071063
6324.984313058728	217.13533599797296
6326.302018123949	218.74319553551402
6327.619997711058	220.38234672557314
6328.938251877249	222.2033167307615
6330.256780679723	224.3604001831847
6331.575584175699	226.75366644900035
6332.894662422402	229.19982031571516
6334.214015477073	231.6477085574691
6335.533643396964	234.08756330464598
6336.853546239339	236.4499754527579
6338.173724061472	238.61874005595152
6339.494176920652	240.60870835936237
6340.814904874177	242.54130760979046
6342.135907979359	244.47106060080444
6343.457186293522	246.41092568085443
6344.778739874001	248.50146800277636
6346.100568778142	251.1070745752364
6347.422673063304	254.34075344568691
6348.745052786858	257.85981274927616
6350.067708006189	261.41091650436067
6351.39063877869	264.9592324556902
6352.713845161769	268.3848099255189
6354.037327212845	271.1947864218316
6355.3610849893485	272.99978730535116
6356.685118548721	274.18456785060135
6358.009427948419	275.25665564699835
6359.334013245908	276.3281204134886
6360.658874498668	277.4651954862039
6361.984011764189	279.08531505828745
6363.309425099973	281.7588007754635
6364.635114563535	285.29847784634103
6365.961080212403	289.07952522899427
6367.2873221041145	292.87134904950454
6368.61384029622	296.66524873995235
6369.940634846282	300.4761167144814
6371.267705811875	304.3363697764567
6372.595053250586	308.2500869422794
6373.922677220014	312.1852613106378
6375.250577777768	316.12293881764816
6376.578754981471	320.0595384294684
6377.907208888761	323.95415048107304
6379.235939557279	327.671303577604
6380.564947044686	331.13468230671367
6381.894231408654	334.46131679535085
6383.223792706865	337.76821789704036
6384.553630997012	341.0752641765738
6385.883746336804	344.35634728589986
6387.2141387839565	347.47189132530104
6388.544808396204	350.268687841122
6389.875755231287	352.8346592492235
6391.20697934696	355.34782024386163
6392.53848080099	357.8601758882632
6393.870259651158	360.37666719586014
6395.202315955253	362.9281795734674
6396.534649771077	365.5691795813229
6397.867261156446	368.29580955495584
6399.2001501691875	371.05184900611704
6400.533316867139	373.8102884361184
6401.866761308153	376.56880169161127
6403.200483550093	379.31923921230464
6404.534483650832	382.0390264436414
6405.868761668259	384.7198081458914
6407.2033176602745	387.38248295033753
6408.5381516847865	390.0435411224851
6409.873263799722	392.70120428196924
6411.2086540630135	395.21466850752813
6412.544322532611	396.9810967650322
6413.880269266471	397.4893479555887
6415.216494322568	397.19227673551535
6416.552997758886	396.7388451946947
6417.8897796334195	396.2833957669098
6419.226840004177	395.9283749485421
6420.5641789291785	396.3658936275312
6421.9017964664545	398.60475077918454
6423.239692674053	402.37708761981054
6424.577867610025	406.59452332546124
6425.9163213324455	410.83260720722575
6427.25505389939	415.0872966581425
6428.594065368952	419.54950230208453
6429.933355799238	424.6555572466641
6431.272925248362	430.48516011609837
6432.612773774456	436.6138552260805
6433.9529014356585	442.77127590419286
6435.293308290125	448.923717104621
6436.63399439602	454.91883030809674
6437.974959811519	460.21772822175745
6439.316204594813	464.48007235527524
6440.657728804104	468.1592502157277
6441.999532497605	471.7469024312122
6443.341615733541	475.33433101071347
6444.683978570154	478.9029797412883
6446.026621065689	482.3454416123181
6447.369543278411	485.53645065391555
6448.7127452665945	488.5387772008788
6450.056227088525	491.4954639710678
6451.399988802502	494.4513566553265
6452.744030466836	497.40574367367316
6454.088352139851	500.3391038467755
6455.43295387988	503.21490162551083
6456.777835745272	506.0335937397059
6458.122997794385	508.8324132340677
6459.468440085592	511.6304107940633
6460.814162677278	514.4177357988317
6462.160165627836	516.9919632126429
6463.506448995675	518.758506820191
6464.853012839217	519.4616030158443
6466.199857216891	519.6410935726387
6467.546982187145	519.7546544735744
6468.894387808435	519.8687122695519
6470.242074139227	520.0087825901953
6471.590041238007	520.2890865080464
6472.938289163264	520.813701349423
6474.286817973508	521.5002570072825
6475.6356277272525	522.2200353285988
6476.984718483029	522.941135922676
6478.334090299379	523.8018512995382
6479.683743234858	525.840650946683
6481.033677348033	530.6672490006252
6482.38389269748	537.9492910855878
6483.734389341793	545.9749265133462
6485.085167339573	554.0382422900391
6486.436226749436	562.0903604940268
6487.787567630007	569.9637578479559
6489.139190039932	577.2539813386118
6490.491094037857	583.8641720161457
6491.843279682447	590.1821075891133
6493.195747032382	596.4719409441186
6494.548496146348	602.7563414030881
6495.901527083045	608.844273849481
6497.254839901187	614.0161829917406
6498.6084346595	617.7772917291334
6499.962311416722	620.72059704355
6501.316470231601	623.5304091737676
6502.670911162898	626.340097381001
6504.025634269391	629.1782522380499
6505.3806396098635	632.205694058819
6506.735927243117	635.6211100780546
6508.091497227958	639.3381115360631
6509.447349623215	643.1332872032973
6510.80348448772	646.9319280076087
6512.159901880322	650.6813492745307
6513.51660185988	653.8641773686012
6514.873584485267	655.4377605852196
6516.23084981537	655.347916831834
6517.58839790908	654.6418662303187
6518.946228825313	653.890655651732
6520.304342622985	653.1335184510489
6521.662739361031	652.2602852258389
6523.021419098398	650.9315296153165
6524.380381894044	648.9820110593188
6525.739627806938	646.7135044704545
6527.099156896065	644.4010275167658
6528.458969220418	642.0955817271456
6529.819064839006	640.167301537101
6531.179443810848	640.4063440900426
6532.540106194976	644.5804501204744
6533.9010520504335	651.4594671115576
6535.262281436278	658.9189294386106
6536.6237944115765	666.3920934706412
6537.985591035413	673.9080889492069
6539.347671366879	681.786989305519
6540.71003546508	690.5480985553588
6542.072683389135	700.1111683938105
6543.435615198176	709.9299949554221
6544.798830951341	719.7648428331609
6546.162330707791	729.5694406269021
6547.526114526688	738.8841516481554
6548.890182467215	746.5363924495039
6550.254534588562	752.1858513503194
6551.619170949934	756.9426222626721
6552.984091610549	761.6059861117747
6554.349296629635	766.2604863979915
6555.7147860664345	770.6068894762693
6557.080559980198	773.4603508966575
6558.446618430195	773.9252547502571
6559.8129614757	772.9400877292917
6561.1795891760075	771.6956936016821
6562.54650159042	770.4476846681337
6563.913698778251	769.1896174012616
6565.281180798831	767.8602611207057
6566.648947711497	766.3779092070303
6568.016999575604	764.7715818577148
6569.385336450516	763.1313479645745
6570.753958395609	761.4894754869581
6572.122865470276	759.9060985597052
6573.492057733915	759.018458665874
6574.861535245943	760.1627475822692
6576.231298065786	763.4661587539198
6577.601346252884	767.6008209622936
6578.971679866686	771.802992806483
6580.342298966659	776.0186804581375
6581.7132036122775	780.5134308085335
6583.08439386303	786.154396588984
6584.455869778419	793.4162226372277
6585.827631417956	801.5443705101851
6587.199678841168	809.7998463285495
6588.572012107595	818.0564291861282
6589.944631276783	826.238834829819
6591.3175364083	833.9627233211357
6592.690727561718	840.8199262327519
6594.064204796627	847.0590214223662
6595.437968172626	853.1590489458657
6596.812017749329	859.2565947841147
6598.18635358636	865.2636081860671
6599.5609757433585	870.4175567957766
6600.935884279972	873.4030075514778
6602.311079255864	874.3412221316229
6603.686560730708	874.5970161074861
6605.062328764195	874.8113070765685
6606.43838341602	875.0226827508761
6607.814724745898	875.1835963131443
6609.191352813554	875.1645725356062
6610.568267678725	874.9202642431783
6611.9454694011565	874.571241440501
6613.322958040616	874.210314409634
6614.700733656875	873.8446035513153
6616.07879630972	873.3187767374909
6617.457146058951	871.988365466127
6618.835782964381	869.3287033037063
6620.214707085831	865.8333716646323
6621.593918483141	862.1795687664337
6622.973417216159	858.5230966329364
6624.353203344746	854.9479439888389
6625.733276928776	852.0123055325627
6627.113638028136	850.5099353816701
6628.494286702727	850.2054372592411
6629.8752230124555	850.2375067039676
6631.25644701725	850.2832256953775
6632.637958777046	850.4412795745145
6634.019758351792	852.012182086168
6635.401845801448	857.8859800480329
6636.784221185991	868.5173108668309
6638.166884565405	881.0772897749202
6639.54983599969	893.8122993053339
6640.933075548856	906.5217887868399
6642.316603272929	918.5241670936985
6643.700419231944	927.4469728838441
6645.084523485952	931.854054024449
6646.468916095012	933.7693378369858
6647.853597119198	935.3069086453263
6649.238566618597	936.8378330759983
6650.623824653309	938.0627492682534
6652.009371283446	937.3569632988119
6653.39520656913	932.8858507529262
6654.781330570499	925.6295907587519
6656.167743347702	917.7034793271866
6657.554444960899	909.756031077231
6658.941435470266	901.8316505342955
6660.328714935989	894.153908212255
6661.716283418268	887.13243798005
6663.104140977314	880.7518360678627
6664.492287673351	874.5923279022685
6665.880723566617	868.4459098036668
6667.269448717359	862.2686073049597
6668.658463185843	855.5601614314422
6670.04776703234	846.8969365517592
6671.437360317139	835.7048002253797
6672.827243100539	823.2855014481449
6674.21741544285	810.7121972477904
6675.607877404403	798.1251802726964
6676.998629045529	785.1171844888046
6678.389670426579	769.8895710960331
6679.781001607919	750.8581448043932
6681.17262264992	729.3500178649866
6682.564533612973	707.3476039677967
6683.956734557476	685.3301702068452
6685.349225543842	662.9086908623974
6686.742006632498	637.2470462169028
6688.135077883879	604.1002590443226
6689.528439358438	564.47346704059
6690.9220911166385	522.9145792981197
6692.316033218955	481.25478981206817
6693.710265725876	439.5190449283046
6695.104788697902	396.86049633493366
6696.4996021955485	351.28830919814993
6697.894706279339	302.38283516589223
6699.290101009814	252.06782209977246
6700.685786447524	201.60869292638273
6702.081762653035	151.2746787626869
6703.478029686921	104.64337957917634
6704.874587609773	74.77977058775303
6706.27143648219	70.33127942513262
6707.668576364793	80.45112383960983
6709.066007318201	92.9437249388956
6710.46372940306	105.47291835410257
6711.861742680019	118.96141926476653
6713.260047209744	138.7977429214792
6714.658643052912	171.47096341568826
6716.0575302702155	213.9743066747163
6717.4567089223565	258.95981611852955
6718.856179070049	304.0359148992516
6720.255940774021	349.197973321953
6721.6559940950165	395.19639014744166
6723.056339093787	443.4847309360652
6724.456975831098	494.0843919753081
6725.85790436773	545.5240711046647
6727.259124764472	597.0327055492238
6728.660637082132	648.4626737356998
6730.062441381524	698.186298106595
6731.464537723479	741.3306992223112
6732.866926168839	775.6684570506179
6734.269606778457	805.5769132185854
6735.672579613203	834.9061640621889
6737.075844733956	864.2260031447745
6738.4794022016085	892.8966514589349
6739.883252077068	917.8606886061131
6741.2873944212515	936.182273390616
6742.691829295089	950.009494980221
6744.096556759525	962.8997892244404
6745.5015768755175	975.7749985368233
6746.906889704033	988.7550128763049
6748.312495306054	1002.604168867628
6749.718393742578	1018.5280819603558
6751.124585074607	1036.3082584577612
6752.531069363165	1054.6686772571063
6753.937846669282	1073.063584102573
6755.344917054005	1091.456599039241
6756.752280578391	1109.7670204159654
6758.159937303512	1127.7935994044103
6759.567887290451	1145.4839000660234
6760.976130600304	1163.0301070946718
6762.384667294178	1180.565251013707
6763.793497433198	1198.0771909486716
6765.202621078498	1214.7971598361614
6766.612038291223	1227.7655165949484
6768.021749132533	1234.8282965044377
6769.431753663604	1238.3600473458007
6770.842051945616	1241.2741401194114
6772.252644039771	1244.1795586868186
6773.66353000728	1246.8922317518786
6775.074709909365	1248.2257322331686
6776.486183807264	1246.642464935777
6777.897951762223	1242.7427383477898
6779.310013835508	1238.2333592898356
6780.722370088391	1233.7015886404306
6782.135020582158	1229.2759247637314
6783.547965378113	1226.0632375112996
6784.961204537568	1226.3211235793278
6786.374738121846	1230.2117665192818
6787.788566192289	1235.4802506957828
6789.2026888102455	1240.858662158474
6790.617106037082	1246.2556953149467
6792.031817934173	1252.0310631926684
6793.446824562909	1259.3326956960004
6794.862125984693	1268.753922985496
6796.27772226094	1279.2828318427255
6797.693613453079	1289.9676949822208
6799.109799622548	1300.6462594089799
6800.5262808308025	1310.846808592846
6801.9430571393095	1318.2267206320432
6803.360128609546	1320.3834274624232
6804.777495303007	1318.8693173750319
6806.195157281196	1316.5363200161464
6807.6131146056305	1314.1828478708053
6809.031367337839	1311.8709207634479
6810.449915539369	1309.9445764445773
6811.868759271772	1308.9865913537096
6813.287898596622	1308.9307024247407
6814.707333575495	1309.1695221117186
6816.12706426999	1309.4254358432042
6817.547090741715	1309.7746625146121
6818.967413052284	1311.6210250863442
6820.388031263337	1318.65625513522
6821.808945436517	1332.0659158482204
6823.230155633484	1348.389290577997
6824.651661915907	1365.0395700679226
6826.073464345473	1381.6632382391838
6827.49556298388	1397.283970941287
6828.917957892834	1407.9381034511273
6830.340649134063	1410.5081278125003
6831.763636769299	1408.0822310330664
6833.186920860294	1404.738664840516
6834.610501468806	1401.3817306053213
6836.034378656611	1397.9979908298221
6837.458552485498	1394.4188043422685
6838.883023017267	1390.4140730886422
6840.307790313729	1386.060680601122
6841.732854436711	1381.6106611247899
6843.158215448053	1377.155910702135
6844.583873409604	1372.8779545545417
6846.009828383232	1370.7578424256592
6847.436080430813	1375.0736274190597
6848.862629614236	1386.3741364590774
6850.289475995406	1400.4416916300188
6851.716619636238	1414.7486008580468
6853.144060598662	1428.9941389984783
6854.57179894462	1441.6929161156895
6855.999834736067	1447.8249398898301
6857.428168034971	1444.5079377283644
6858.856798903312	1436.0726829424962
6860.285727403084	1426.87937166295
6861.7149535962935	1417.6807736437488
6863.144477544959	1408.5413417723616
6864.5742993111135	1399.7756060925337
6866.004418956804	1391.7278355775445
6867.434836544087	1384.2019620448887
6868.865552135034	1376.7973101640941
6870.296565791729	1369.3947739623068
6871.72787757627	1362.4094704112704
6873.159487550764	1359.5781452307667
6874.591395777338	1367.6059423900035
6876.023602318125	1386.0704831601856
6877.456107235274	1408.066670543657
6878.888910590949	1430.2831701055268
6880.322012447323	1452.3375389234213
6881.755412866582	1471.577814721213
6883.18911191093	1480.718692619464
6884.623109642579	1477.07249287677
6886.057406123754	1467.3700223739093
6887.492001416697	1456.9451090071273
6888.926895583659	1446.518394465529
6890.362088686906	1436.1713792274056
6891.797580788715	1426.2526468376427
6893.233371951381	1417.060554031829
6894.669462237203	1408.332463692913
6896.105851708503	1399.6917246870821
6897.542540427609	1391.0531141174229
6898.979528456865	1382.801884810279
6900.416815858628	1377.6067417922006
6901.854402695265	1379.3572417107036
6903.29228902916	1387.0363943139093
6904.730474922708	1396.4511308862964
6906.168960438317	1405.9489002461182
6907.607745638409	1415.4388445879044
6909.0468305854165	1424.798220095563
6910.48621534179	1433.743167250147
6911.925899969986	1442.22019417748
6913.365884532479	1450.5053116981564
6914.806169091757	1458.7746080331383
6916.246753710318	1467.051086508155
6917.687638450675	1475.4688917499536
6919.128823375352	1484.5035819768211
6920.570308546889	1494.4571808532692
6922.012094027836	1504.930982988645
6923.454179880759	1515.4898528691842
6924.896566168235	1526.047494198286
6926.339252952854	1536.3014178314713
6927.782240297219	1544.558090630012
6929.225528263946	1548.8293055175677
6930.669116915669	1550.0989524500371
6932.113006315028	1550.6336824668579
6933.557196524675	1551.1463615786004
6935.001687607285	1551.6024020857888
6936.446479625538	1551.4737484647071
6937.8915726421255	1549.7688873549746
6939.33696671976	1546.4986532210391
6940.782661921161	1542.672346395083
6942.228658309061	1538.806741846848
6943.67495594621	1535.0191529523495
6945.121554895365	1532.6991390570834
6946.568455219301	1535.9122935053958
6948.015656980806	1546.406181901474
6949.463160242676	1560.491077915343
6950.910965067728	1575.0333932366993
6952.359071518784	1589.583434476801
6953.807479658683	1604.287955800349
6955.256189550279	1619.823093441177
6956.705201256435	1636.8107227590224
6958.154514840031	1654.7649985791397
6959.604130363956	1672.9203766284722
6961.054047891116	1691.0822540352149
6962.504267484427	1709.0385687008175
6963.954789206819	1725.256997739991
6965.405613121237	1737.370013492333
6966.856739290638	1745.8599990315015
6968.30816777799	1753.245713821773
6969.759898646277	1760.5770861939718
6971.211931958496	1767.8986019559059
6972.6642677776545	1775.0580119614976
6974.116906166776	1781.6867489710407
6975.569847188894	1787.6979679939598
6977.023090907059	1793.4455136060456
6978.47663738433	1799.1682630493765
6979.930486683786	1804.8842794218751
6981.3846388685115	1810.379745067143
6982.83909400161	1814.853132739953
6984.293852146194	1817.745468713514
6985.748913365391	1819.710139928483
6987.204277722341	1821.5177880271413
6988.659945280201	1823.327835190535
6990.115916102135	1825.4921362525306
6991.572190251322	1830.1078965052393
6993.028767790958	1839.7953372866618
6994.485648784248	1853.42923036178
6995.942833294413	1868.0742635641868
6997.400321384683	1882.7558103958077
6998.858113118305	1897.2842493021165
7000.316208558537	1910.1049748948549
7001.774607768653	1918.1267488852377
7003.23331081194	1921.2018314877332
7004.692317751692	1922.4360597223708
7006.151628651223	1923.5303547487479
7007.6112435738605	1924.6043251971282
7009.071162582939	1925.2418341107352
7010.5313857418105	1924.1432764322003
7011.9919131138395	1920.6760348346666
7013.452744762405	1916.0000939462564
7014.913880750897	1911.1629938275382
7016.375321142722	1906.3180829858757
7017.837066001293	1901.175268703431
7019.299115390043	1894.3453871552435
7020.761469372417	1884.4650159523485
7022.224128011869	1872.4859676716394
7023.687091371872	1860.05098327749
7025.150359515908	1847.6037587933095
7026.613932507475	1835.423453266016
7028.07781041008	1825.6767935253083
7029.541993287248	1821.9437748699738
7031.0064812025175	1823.70841785754
7032.471274219435	1827.2163912739477
7033.936372401564	1830.8180156621008
7035.401775812481	1834.4973119928027
7036.867484515776	1839.3512911115981
7038.33349857505	1848.1876768567265
7039.79981805392	1861.8412240962139
7041.266443016016	1877.6629153254235
7042.733373524977	1893.7228531606484
7044.200609644461	1909.743834934737
7045.668151438137	1924.408777210249
7047.135998969687	1932.488066039224
7048.604152302806	1930.0390731257633
7050.072611501203	1921.2222968604165
7051.541376628598	1911.2811320693038
7053.010447748729	1901.3288437736037
7054.479824925345	1891.7427424842742
7055.949508222204	1884.803880855394
7057.419497703085	1883.5262502972205
7058.889793431773	1886.8124343950194
7060.360395472071	1891.3338105279242
