#wavelength (Angstrom)	surface_flux (erg / (Angstrom cm2 s))
6300.0	0.33198086352725353
6301.3125	0.49548744644168774
6302.6252734375	0.5855106050167613
6303.938320369467	0.5978971132054159
6305.251640852877	0.6062099329598215
6306.565234944722	0.6147046484830851
6307.8791027020025	0.6232484874278178
6309.193244181732	0.6317958445897015
6310.5076594409375	0.6403518332534335
6311.822348536654	0.6489875842855791
6313.137311525933	0.6578485525888342
6314.452548465834	0.6669453096487051
6315.768059413431	0.6761324928557704
6317.083844425809	0.6853284689073001
6318.399903560065	0.694528551235607
6319.716236873307	0.703777376719774
6321.032844422655	0.7132167333144313
6322.349726265244	0.7229195130840335
6323.666882458216	0.7327607719407501
6324.984313058728	0.7426231599295688
6326.302018123949	0.7524880979197943
6327.619997711058	0.7623755441250468
6328.938251877249	0.7723849519252247
6330.256780679723	0.7826182638607609
6331.575584175699	0.793009456341602
6332.894662422402	0.8034374269654572
6334.214015477073	0.8138684091585168
6335.533643396964	0.8243086971775725
6336.853546239339	0.8348162392649069
6338.173724061472	0.8454880521913195
6339.494176920652	0.8563117376130734
6340.814904874177	0.8671859198908277
6342.135907979359	0.8780650800268139
6343.457186293522	0.8889530721728568
6344.778739874001	0.8999449407870324
6346.100568778142	0.9112870689314635
6347.422673063304	0.9230558681483509
6348.745052786858	0.935019625519772
6350.067708006189	0.9470070466902345
6351.39063877869	0.9589981693320233
6352.713845161769	0.9710327010252747
6354.037327212845	0.9832739385990255
6355.3610849893485	0.995850891065188
6356.685118548721	1.0086360810512152
6358.009427948419	1.02146135399633
6359.334013245908	1.0342899510990609
6360.658874498668	1.0471403089460682
6361.984011764189	1.0601342875272157
6363.309425099973	1.0734383784910033
6364.635114563535	1.0869979413939381
6365.961080212403	1.1006305759429813
6367.2873221041145	1.114268966580495
6368.61384029622	1.1279112148365278
6369.940634846282	1.1415690910545355
6371.267705811875	1.155268215581419
6372.595053250586	1.169011812637758
6373.922677220014	1.1827745867582344
6375.250577777768	1.196541558489705
6376.578754981471	1.210316160719252
6377.907208888761	1.2242010256637301
6379.235939557279	1.2385360157635152
6380.564947044686	1.2535125869570924
6381.894231408654	1.2688371430541217
6383.223792706865	1.28421613621853
6384.553630997012	1.29959911778591
6385.883746336804	1.315014592368107
6387.2141387839565	1.330615941754627
6388.544808396204	1.3465715286463273
6389.875755231287	1.3627847352910647
6391.20697934696	1.3790599408825663
6392.53848080099	1.3953400219786405
6393.870259651158	1.4116299272771347
6395.202315955253	1.427984656427174
6396.534649771077	1.4445012011861726
6397.867261156446	1.4611726925387851
6399.2001501691875	1.4778990164500598
6400.533316867139	1.494632076309724
6401.866761308153	1.5113745545397916
6403.200483550093	1.5282229808482821
6404.534483650832	1.5454447419433575
6405.868761668259	1.5631388036989744
6407.2033176602745	1.5810576341870277
6408.5381516847865	1.59900591641801
6409.873263799722	1.616958918954244
6411.2086540630135	1.6349507100450096
6412.544322532611	1.6531272529010823
6413.880269266471	1.671612308781117
6415.216494322568	1.6902962306924791
6416.552997758886	1.70902188897164
6417.8897796334195	1.7277522578247448
6419.226840004177	1.7465142538489613
6420.5641789291785	1.7654987663859085
6421.9017964664545	1.7849840293387726
6423.239692674053	1.8048961663937269
6424.577867610025	1.824934996112117
6425.9163213324455	1.844983453151259
6427.25505389939	1.8650415224517074
6428.594065368952	1.8851752048628516
6429.933355799238	1.9055353466667775
6431.272925248362	1.9261495014200085
6432.612773774456	1.9468709306184087
6433.9529014356585	1.967606166130304
6435.293308290125	1.9883483241786901
6436.63399439602	2.0091605136584048
6437.974959811519	2.030265990221034
6439.316204594813	2.0518057530944778
6440.657728804104	2.073591970201068
6441.999532497605	2.095420961649814
6443.341615733541	2.1172553003064594
6444.683978570154	2.1391311216430595
6446.026621065689	2.1612515768341103
6447.369543278411	2.183853595541864
6448.7127452665945	2.206818455015572
6450.056227088525	2.2298756050890223
6451.399988802502	2.252940228611311
6452.744030466836	2.276015201037079
6454.088352139851	2.299151535805539
6455.43295387988	2.3224447077479144
6456.777835745272	2.345893524692517
6458.122997794385	2.369400691806636
6459.468440085592	2.3929164278038324
6460.814162677278	2.4164416997578555
6462.160165627836	2.4400599004970154
6463.506448995675	2.4640159790027343
6464.853012839217	2.4884153016558463
6466.199857216891	2.5130354743378196
6467.546982187145	2.5376879522493123
6468.894387808435	2.562347699166708
6470.242074139227	2.5870960189841976
6471.590041238007	2.6122996130461877
6472.938289163264	2.638292616777456
6474.286817973508	2.6648105866674867
6475.6356277272525	2.6914402814195086
6476.984718483029	2.718077684672026
6478.334090299379	2.744757193001721
6479.683743234858	2.771751004995682
6481.033677348033	2.799481050484818
6482.38389269748	2.827860215865893
6483.734389341793	2.8564398021803825
6485.085167339573	2.8850347808674033
6486.436226749436	2.9136471488409468
6487.787567630007	2.9424256272345546
6489.139190039932	2.9717292726691498
6490.491094037857	3.0016440736837486
6491.843279682447	3.031825780342606
6493.195747032382	3.062039891228733
6494.548496146348	3.0922633102732524
6495.901527083045	3.1225812642135926
6497.254839901187	3.153314784156528
6498.6084346595	3.1846846163956446
6499.962311416722	3.2164261966940586
6501.316470231601	3.2482342213952182
6502.670911162898	3.280049189942043
6504.025634269391	3.311858404936982
6505.3806396098635	3.3435904499058022
6506.735927243117	3.375157092237742
6508.091497227958	3.406596697331872
6509.447349623215	3.4380084802284765
6510.80348448772	3.4694256106942136
6512.159901880322	3.500848122885099
6513.51660185988	3.5322639814183896
6514.873584485267	3.5636489302682115
6516.23084981537	3.5950017102436007
6517.58839790908	3.626346686375761
6518.946228825313	3.6576971454865688
6520.304342622985	3.689072829979227
6521.662739361031	3.720830667961373
6523.021419098398	3.75407033428325
6524.380381894044	3.789327176601951
6525.739627806938	3.825623505748124
6527.099156896065	3.8620683206830613
6528.458969220418	3.8985206993473858
6529.819064839006	3.9349488091982034
6531.179443810848	3.971201611158025
6532.540106194976	4.007129957485894
6533.9010520504335	4.042837641229082
6535.262281436278	4.0785039111658445
6536.6237944115765	4.114176703909147
6537.985591035413	4.14988414707657
6539.347671366879	4.185837315191439
6540.71003546508	4.222378665861959
6542.072683389135	4.259455280484776
6543.435615198176	4.296706964953268
6544.798830951341	4.333975626516054
6546.162330707791	4.371267272960983
6547.526114526688	4.4087985051858585
6548.890182467215	4.447121892938851
6550.254534588562	4.486397806424244
6551.619170949934	4.526103127093174
6552.984091610549	4.56586120382101
6554.349296629635	4.605628828973809
6555.7147860664345	4.645444261260758
6557.080559980198	4.685459015504181
6558.446618430195	4.7257876211632714
6559.8129614757	4.7663100701413175
6561.1795891760075	4.806874083954206
6562.54650159042	4.847446630459811
6563.913698778251	4.887992932223773
6565.281180798831	4.9282961642140934
6566.648947711497	4.968066993040669
6568.016999575604	5.007408185507138
6569.385336450516	5.046638690969287
6570.753958395609	5.0858727770462835
6572.122865470276	5.125158919417201
6573.492057733915	5.164972390090569
6574.861535245943	5.206309755259371
6576.231298065786	5.24926588065614
6577.601346252884	5.292850409273287
6578.971679866686	5.33649372589055
6580.342298966659	5.380154492148983
6581.7132036122775	5.424008271614459
6583.08439386303	5.468628370314216
6584.455869778419	5.514328593915924
6585.827631417956	5.560610093090898
6587.199678841168	5.606984295552063
6588.572012107595	5.653367792488376
6589.944631276783	5.699713031959708
6591.3175364083	5.745777348019137
6592.690727561718	5.791303029686819
6594.064204796627	5.836447027899977
6595.437968172626	5.881511804730512
6596.812017749329	5.926583827375512
6598.18635358636	5.971680656366703
6599.5609757433585	6.016930344947152
6600.935884279972	6.0625537943879575
6602.311079255864	6.108530643346388
6603.686560730708	6.154631701802313
6605.062328764195	6.200749343154865
6606.43838341602	6.246890965352363
6607.814724745898	6.293287450369015
6609.191352813554	6.3405675117660465
6610.568267678725	6.388951350401241
6611.9454694011565	6.4378534991893
6613.322958040616	6.4868232879184
6614.700733656875	6.535804055555532
6616.07879630972	6.584819692919153
6617.457146058951	6.6339695279047834
6618.835782964381	6.683334424460356
6620.214707085831	6.732838313715407
6621.593918483141	6.7823768277116505
6622.973417216159	6.831926115482432
6624.353203344746	6.881500329253173
6625.733276928776	6.931198780681054
6627.113638028136	6.981162690246339
6628.494286702727	7.031350180318084
6629.8752230124555	7.081608016777937
6631.25644701725	7.131878750848502
6632.637958777046	7.18217301514505
6634.019758351792	7.232641988848709
6635.401845801448	7.283621624921595
6636.784221185991	7.335164774451105
6638.166884565405	7.3869425985591155
6639.54983599969	7.43875125181276
6640.933075548856	7.4905668999754695
6642.316603272929	7.542297648876468
6643.700419231944	7.59362363047108
6645.084523485952	7.644351215840561
6646.468916095012	7.694753285816085
6647.853597119198	7.745114876772366
6649.238566618597	7.795484850771968
6650.623824653309	7.845749187708064
6652.009371283446	7.895291956740555
6653.39520656913	7.943417640879964
6654.781330570499	7.990497835156987
6656.167743347702	8.037334465474721
6657.554444960899	8.084173202917748
6658.941435470266	8.130911344974077
6660.328714935989	8.17655098110687
6661.716283418268	8.21926370363315
6663.104140977314	8.25911826805138
6664.492287673351	8.29798834625069
6665.880723566617	8.336802366908147
6667.269448717359	8.375551778103993
6668.658463185843	8.413008139781207
6670.04776703234	8.445675556254193
6671.437360317139	8.472144182831675
6672.827243100539	8.49561061349219
6674.21741544285	8.518710108827232
6675.607877404403	8.54176084794356
6676.998629045529	8.562757506030415
6678.389670426579	8.572848336599959
6679.781001607919	8.564236947018529
6681.17262264992	8.543454538955134
6682.564533612973	8.520257288781691
6683.956734557476	8.49699964387462
6685.349225543842	8.471002521293144
6686.742006632498	8.422850286651826
6688.135077883879	8.323482483491027
6689.528439358438	8.179780135606796
6690.9220911166385	8.022877535562863
6692.316033218955	7.865310746181741
6693.710265725876	7.70292094480613
6695.104788697902	7.47541120836167
6696.4996021955485	7.041030821193679
6697.894706279339	6.369900226449922
6699.290101009814	5.598993676264602
6700.685786447524	4.818411564870029
6702.081762653035	4.040164433100904
6703.478029686921	3.330134414680023
6704.874587609773	2.9289153126859895
6706.27143648219	2.9957510213280556
6707.668576364793	3.330896160550669
6709.066007318201	3.7097670250252084
6710.46372940306	4.089169678652106
6711.861742680019	4.473305685064552
6713.260047209744	4.888390063455831
6714.658643052912	5.36599202700367
6716.0575302702155	5.891483701411199
6717.4567089223565	6.429117457149734
6718.856179070049	6.967258260005652
6720.255940774021	7.5028150190641325
6721.6559940950165	8.009364625653522
6723.056339093787	8.435723912368838
6724.456975831098	8.781139560607752
6725.85790436773	9.097419467543947
6727.259124764472	9.411714552085384
6728.660637082132	9.725445279643045
6730.062441381524	10.027144082796326
6731.464537723479	10.282479796621027
6732.866926168839	10.47575945539419
6734.269606778457	10.637822980283923
6735.672579613203	10.795795662503993
6737.075844733956	10.953750950954433
6738.4794022016085	11.110017570353588
6739.883252077068	11.25656318743187
6741.2873944212515	11.385674877137975
6742.691829295089	11.502996019870226
6744.096556759525	11.617872577189193
6745.5015768755175	11.732723484473748
6746.906889704033	11.847254040669107
6748.312495306054	11.95888750351877
6749.718393742578	12.063559481530998
6751.124585074607	12.16200657252592
6752.531069363165	12.258530534905917
6753.937846669282	12.35497123431313
6755.344917054005	12.45138211808387
6756.752280578391	12.547059569547079
6758.159937303512	12.64024895676213
6759.567887290451	12.730493103471554
6760.976130600304	12.819467608555495
6762.384667294178	12.908332323126505
6763.793497433198	12.99720802259805
6765.202621078498	13.085879209906343
6766.612038291223	13.17351624243256
6768.021749132533	13.259515324667683
6769.431753663604	13.344542093231102
6770.842051945616	13.429413227614422
6772.252644039771	13.51429899140581
6773.66353000728	13.599100327326626
6775.074709909365	13.683190663238108
6776.486183807264	13.7657579681319
6777.897951762223	13.847119280488407
6779.310013835508	13.928176002566223
6780.722370088391	14.00923827450193
6782.135020582158	14.090319248726987
6783.547965378113	14.171437688176276
6784.961204537568	14.252631858494315
6786.374738121846	14.333904511917886
6787.788566192289	14.415217435281084
6789.2026888102455	14.496549143296754
6790.617106037082	14.577900561641957
6792.031817934173	14.659328549750848
6793.446824562909	14.741014551960177
6794.862125984693	14.82305235303457
6796.27772226094	14.905282014318566
6797.693613453079	14.987553110083217
6799.109799622548	15.069839850404284
6800.5262808308025	15.152060069437184
6801.9430571393095	15.233805653933244
6803.360128609546	15.314658047212625
6804.777495303007	15.39488770001079
6806.195157281196	15.474991460923855
6807.6131146056305	15.55510843127863
6809.031367337839	15.63525063465724
6810.449915539369	15.7154879863533
6811.868759271772	15.795938915680546
6813.287898596622	15.876589960834332
6814.707333575495	15.957317698294155
6816.12706426999	16.038065717597153
6817.547090741715	16.11883807530824
6818.967413052284	16.199747910692725
6820.388031263337	16.281092748263944
6821.808945436517	16.3629681375022
6823.230155633484	16.44509517864403
6824.651661915907	16.527265401162612
6826.073464345473	16.609448658452
6827.49556298388	16.69151335819075
6828.917957892834	16.772925136803117
6830.340649134063	16.853263706542453
6831.763636769299	16.932945409158755
6833.186920860294	17.012520063371596
6834.610501468806	17.0921097289213
6836.034378656611	17.171730797131175
6837.458552485498	17.251479015442268
6838.883023017267	17.33148502270479
6840.307790313729	17.41170517256251
6841.732854436711	17.491996378884085
6843.158215448053	17.57230649387235
6844.583873409604	17.65262536873844
6846.009828383232	17.732864150633876
6847.436080430813	17.812830958892235
6848.862629614236	17.892501180377383
6850.289475995406	17.97206399469542
6851.716619636238	18.05163278027325
6853.144060598662	18.131215660318958
6854.57179894462	18.210755339233362
6855.999834736067	18.290058173893353
6857.428168034971	18.369012983863858
6858.856798903312	18.44778683245876
6860.285727403084	18.526547917967207
6861.7149535962935	18.60532562782001
6863.144477544959	18.684142450794422
6864.5742993111135	18.76311528441306
6866.004418956804	18.842372078565088
6867.434836544087	18.92183996878747
6868.865552135034	19.001370049108235
6870.296565791729	19.080917935385497
6871.72787757627	19.160422931351334
6873.159487550764	19.239354451434405
6874.591395777338	19.31676042048111
6876.023602318125	19.392700816411082
6877.456107235274	19.468156112983227
6878.888910590949	19.543596497475317
6880.322012447323	19.619063661452515
6881.755412866582	19.694733538383712
6883.18911191093	19.771089435858052
6884.623109642579	19.848309656834584
6886.057406123754	19.9259476855811
6887.492001416697	20.003649681395945
6888.926895583659	20.081362503775416
6890.362088686906	20.15887302536812
6891.797580788715	20.235250981769
6893.233371951381	20.309700149104067
6894.669462237203	20.382921430465
6896.105851708503	20.45591999869489
6897.542540427609	20.52892986060006
6898.979528456865	20.60188742762575
6900.416815858628	20.674329803456203
6901.854402695265	20.745582329304497
6903.29228902916	20.815821410029894
6904.730474922708	20.88577435620384
6906.168960438317	20.95572775029338
6907.607745638409	21.025202676470713
6909.0468305854165	21.088026174543725
6910.48621534179	21.129922570875376
6911.925899969986	21.148201673427472
6913.365884532479	21.15674439942075
6914.806169091757	21.164406431553623
6916.246753710318	21.172189910681144
6917.687638450675	21.183039735468338
6919.128823375352	21.207395931501086
6920.570308546889	21.25188888254614
6922.012094027836	21.307765714764084
6923.454179880759	21.36547379588279
6924.896566168235	21.42322599256464
6926.339252952854	21.482161148998312
6927.782240297219	21.548761433209986
6929.225528263946	21.630636906565115
6930.669116915669	21.724021638259032
6932.113006315028	21.820239803939213
6933.557196524675	21.916562534758828
6935.001687607285	22.012741218815997
6936.446479625538	22.107248665224144
6937.8915726421255	22.19721731177728
6939.33696671976	22.2826784970631
6940.782661921161	22.366551233413805
6942.228658309061	22.45033009531949
6943.67495594621	22.534079398093212
6945.121554895365	22.616970338155404
6946.568455219301	22.696577982804417
6948.015656980806	22.771859994447258
6949.463160242676	22.84501712577023
6950.910965067728	22.91791841914853
6952.359071518784	22.99084539997642
6953.807479658683	23.064271364133987
6955.256189550279	23.14035617165202
6956.705201256435	23.221086350879133
6958.154514840031	23.304909912456733
6959.604130363956	23.389381392381804
6961.054047891116	23.47388170867687
6962.504267484427	23.558218142559184
6963.954789206819	23.641062295602875
6965.405613121237	23.720361713629604
6966.856739290638	23.79653458717963
6968.30816777799	23.871764482286082
6969.759898646277	23.946961605834677
6971.211931958496	24.022009393405206
6972.6642677776545	24.094701109132586
6974.116906166776	24.159694652414785
6975.569847188894	24.21573127041825
6977.023090907059	24.267939667333856
6978.47663738433	24.31978218409319
6979.930486683786	24.371637562242654
6981.3846388685115	24.423569235855343
6982.83909400161	24.475813941538465
6984.293852146194	24.528536776729386
6985.748913365391	24.581544763309015
6987.204277722341	24.63461029151592
6988.659945280201	24.68768794412015
6990.115916102135	24.740832206085074
6991.572190251322	24.794372298607247
6993.028767790958	24.84871954584959
6994.485648784248	24.903697311979858
6995.942833294413	24.95884481452004
6997.400321384683	25.01400880136946
6998.858113118305	25.068868540662272
7000.316208558537	25.120280907835628
7001.774607768653	25.161995989719582
7003.23331081194	25.19371508479289
7004.692317751692	25.221717624384528
7006.151628651223	25.249442558802034
7007.6112435738605	25.277165202685804
7009.071162582939	25.304722229876656
7010.5313857418105	25.331603566586594
7011.9919131138395	25.35756092144151
7013.452744762405	25.38304957172937
7014.913880750897	25.40848066197729
7016.375321142722	25.433935019278486
7017.837066001293	25.460242418765564
7019.299115390043	25.491369422359462
7020.761469372417	25.53120909094167
7022.224128011869	25.57704365841733
7023.687091371872	25.624182510108177
7025.150359515908	25.67136119135871
7026.613932507475	25.7188321308627
7028.07781041008	25.768865905676453
7029.541993287248	25.825214096881336
7031.0064812025175	25.887335997620834
7032.471274219435	25.95129734050021
7033.936372401564	26.015369382310183
7035.401775812481	26.079143653468588
7036.867484515776	26.138183160493043
7038.33349857505	26.181131718311036
7039.79981805392	26.20461306038777
7041.266443016016	26.2193414711075
7042.733373524977	26.23312266403246
7044.200609644461	26.246957459237887
7045.668151438137	26.26245452137065
7047.135998969687	26.28599761441408
7048.604152302806	26.32239948566304
7050.072611501203	26.366581437832068
7051.541376628598	26.412142887594435
7053.010447748729	26.45771926594305
7054.479824925345	26.502276724168006
7055.949508222204	26.539445125962462
7057.419497703085	26.56080750793803
7058.889793431773	26.569428549353653
