#wavelength (Angstrom)	surface_flux (erg / (Angstrom cm2 s))
6300.0	7.409465489042593
6301.3125	11.041830039138564
6302.6252734375	13.010260452707703
6303.938320369467	13.236652442035457
6305.251640852877	13.3685370474334
6306.565234944722	13.501905944541871
6307.8791027020025	13.635685531448484
6309.193244181732	13.769507069827116
6310.5076594409375	13.90344030225089
6311.822348536654	14.038355464128104
6313.137311525933	14.17603209109301
6314.452548465834	14.316599518808978
6315.768059413431	14.458279343320918
6317.083844425809	14.600072842137344
6318.399903560065	14.741914493696767
6319.716236873307	14.884183584174151
6321.032844422655	15.028084900939112
6322.349726265244	15.174237816971672
6323.666882458216	15.321580674256664
6324.984313058728	15.46911634278648
6326.302018123949	15.6166866465358
6327.619997711058	15.7644456865673
6328.938251877249	15.913161708724152
6330.256780679723	16.06362218675572
6331.575584175699	16.215317114501406
6332.894662422402	16.36731102114234
6334.214015477073	16.519343115477678
6335.533643396964	16.671479399435608
6336.853546239339	16.82430901898208
6338.173724061472	16.978818319162603
6339.494176920652	17.13488125139432
6340.814904874177	17.291467159196547
6342.135907979359	17.448113265337202
6343.457186293522	17.60485036935885
6344.778739874001	17.76252335854158
6346.100568778142	17.923322423937385
6347.422673063304	18.087926818076664
6348.745052786858	18.254276763348702
6350.067708006189	18.42084956467398
6351.39063877869	18.587465619370487
6352.713845161769	18.754405440539347
6354.037327212845	18.922822800786797
6355.3610849893485	19.093629213133486
6356.685118548721	19.26592399341263
6358.009427948419	19.438519053943065
6359.334013245908	19.611154776003044
6360.658874498668	19.783971846499504
6361.984011764189	19.957898402503716
6363.309425099973	20.134202513429834
6364.635114563535	20.31246801933292
6365.961080212403	20.491305690789908
6367.2873221041145	20.67020282916999
6368.61384029622	20.849161903142328
6369.940634846282	21.02846857310874
6371.267705811875	21.20874463995716
6372.595053250586	21.390068349120238
6373.922677220014	21.571825771388525
6375.250577777768	21.753653347865377
6376.578754981471	21.935552451050164
6377.907208888761	22.11824815811257
6379.235939557279	22.304141526952037
6380.564947044686	22.494585155808508
6381.894231408654	22.68750485511738
6383.223792706865	22.880826776935052
6384.553630997012	23.074195631091353
6385.883746336804	23.267883956769445
6387.2141387839565	23.463353848635926
6388.544808396204	23.662210205011174
6389.875755231287	23.863532031340235
6391.20697934696	24.06545459889582
6392.53848080099	24.267433279349333
6393.870259651158	24.46946931023935
6395.202315955253	24.67169327414213
6396.534649771077	24.874335447843997
6397.867261156446	25.077379530627102
6399.2001501691875	25.280587847264826
6400.533316867139	25.48384621792572
6401.866761308153	25.687198208122904
6403.200483550093	25.89147814348067
6404.534483650832	26.098997096415793
6405.868761668259	26.310610448751227
6407.2033176602745	26.524178741479876
6408.5381516847865	26.7380138184009
6409.873263799722	26.951899199819206
6411.2086540630135	27.166032171602495
6412.544322532611	27.381258286038335
6413.880269266471	27.598294482147917
6415.216494322568	27.816505592711597
6416.552997758886	28.034981389043995
6417.8897796334195	28.25350769811385
6419.226840004177	28.472286830826807
6420.5641789291785	28.692746052426696
6421.9017964664545	28.916965695317792
6423.239692674053	29.144393396585386
6424.577867610025	29.37278473096091
6425.9163213324455	29.6012644151839
6427.25505389939	29.82981888450443
6428.594065368952	30.05877824182087
6429.933355799238	30.288896936861786
6431.272925248362	30.520312781838236
6432.612773774456	30.752291882835635
6433.9529014356585	30.98436677288505
6435.293308290125	31.216505279110606
6436.63399439602	31.44907768152193
6437.974959811519	31.683393868481254
6439.316204594813	31.920281114195763
6440.657728804104	32.158637376770535
6441.999532497605	32.3972676321754
6443.341615733541	32.635952579360826
6444.683978570154	32.87492474234063
6446.026621065689	33.11549041519733
6447.369543278411	33.35917309230708
6448.7127452665945	33.605209374425854
6450.056227088525	33.85185959128956
6451.399988802502	34.09857828611573
6452.744030466836	34.345344062879036
6454.088352139851	34.59211720103583
6455.43295387988	34.838823351111124
6456.777835745272	35.08546345314944
6458.122997794385	35.33211329710336
6459.468440085592	35.57881166683419
6460.814162677278	35.82559012127199
6462.160165627836	36.072964635160645
6463.506448995675	36.322450767822644
6464.853012839217	36.57470044935862
6466.199857216891	36.828337681289604
6467.546982187145	37.08219589855516
6468.894387808435	37.33612710088684
6470.242074139227	37.59090647018229
6471.590041238007	37.850029219414004
6472.938289163264	38.116680159646336
6474.286817973508	38.38833874961482
6475.6356277272525	38.661066182644134
6476.984718483029	38.93387098699101
6478.334090299379	39.20707051326174
6479.683743234858	39.48318072401841
6481.033677348033	39.76610156413685
6482.38389269748	40.0550278341768
6483.734389341793	40.34581216158836
6485.085167339573	40.63674430823715
6486.436226749436	40.927845521409466
6487.787567630007	41.2205267230266
6489.139190039932	41.51819429297205
6490.491094037857	41.82166400749091
6491.843279682447	42.12766995979418
6493.195747032382	42.43398743000102
6494.548496146348	42.74038015586431
6495.901527083045	43.0471699757325
6497.254839901187	43.35556938122818
6498.6084346595	43.66641210424167
6499.962311416722	43.978698936192366
6501.316470231601	44.291276802210646
6502.670911162898	44.603916924999716
6504.025634269391	44.91625090359743
6505.3806396098635	45.22613721118624
6506.735927243117	45.53093007120401
6508.091497227958	45.8317798831156
6509.447349623215	46.1316616876231
6510.80348448772	46.43157002264338
6512.159901880322	46.73133373706541
6513.51660185988	47.02881033423549
6514.873584485267	47.31968207523279
6516.23084981537	47.60372459756707
6517.58839790908	47.88527458322603
6518.946228825313	48.166696821183606
6520.304342622985	48.448414310139796
6521.662739361031	48.73494489324939
6523.021419098398	49.04020779431617
6524.380381894044	49.37097921725354
6525.739627806938	49.714883972463376
6527.099156896065	50.060644132786315
6528.458969220418	50.40646687376478
6529.819064839006	50.751512979009796
6531.179443810848	51.091759450245
6532.540106194976	51.423233665504256
6533.9010520504335	51.748700156509166
6535.262281436278	52.07293324119186
6536.6237944115765	52.39720789124697
6537.985591035413	52.72180192886335
6539.347671366879	53.04866824572972
6540.71003546508	53.38097530878941
6542.072683389135	53.718233507239766
6543.435615198176	54.057110272993576
6544.798830951341	54.39614290885771
6546.162330707791	54.73532488721566
6547.526114526688	55.075776330066525
6548.890182467215	55.42035476663214
6550.254534588562	55.769889531175885
6551.619170949934	56.12167540920325
6552.984091610549	56.473764618195275
6554.349296629635	56.82591020664047
6555.7147860664345	57.177592814614094
6557.080559980198	57.526756318467044
6558.446618430195	57.87184651189494
6559.8129614757	58.21449202755771
6561.1795891760075	58.55675943000668
6562.54650159042	58.89908589980727
6563.913698778251	59.240802500880754
6565.281180798831	59.577652452859795
6566.648947711497	59.903955474021586
6568.016999575604	60.22172908703985
6569.385336450516	60.537234961853144
6570.753958395609	60.85271640782695
6572.122865470276	61.168890148844746
6573.492057733915	61.492542271037
6574.861535245943	61.83790207773131
6576.231298065786	62.20632408377025
6577.601346252884	62.58366762147491
6578.971679866686	62.9617995187197
6580.342298966659	63.34006085128815
6581.7132036122775	63.71951530222
6583.08439386303	64.10363641151005
6584.455869778419	64.49432546357704
6585.827631417956	64.88856004505804
6587.199678841168	65.2833800089243
6588.572012107595	65.6782617059909
6589.944631276783	66.07185863516621
6591.3175364083	66.45724821756689
6592.690727561718	66.8270786843099
6594.064204796627	67.18582733901832
6595.437968172626	67.54212248565693
6596.812017749329	67.8984291424023
6598.18635358636	68.2547337802879
6599.5609757433585	68.61040307128607
6600.935884279972	68.96434445975102
6602.311079255864	69.31665867832058
6603.686560730708	69.66847932921156
6605.062328764195	70.02033876032623
6606.43838341602	70.37240296833373
6607.814724745898	70.72678387563953
6609.191352813554	71.08923245291778
6610.568267678725	71.46176292017597
6611.9454694011565	71.83901988516348
6613.322958040616	72.21688097068335
6614.700733656875	72.59479136742867
6616.07879630972	72.97176211240777
6617.457146058951	73.34369226741805
6618.835782964381	73.70724323230363
6620.214707085831	74.06555583647544
6621.593918483141	74.42293932062935
6622.973417216159	74.78037948074363
6624.353203344746	75.13745122429454
6625.733276928776	75.49114273222742
6627.113638028136	75.83717118487968
6628.494286702727	76.1768067171773
6629.8752230124555	76.51469665747477
6631.25644701725	76.85258337912602
6632.637958777046	77.19068988546609
6634.019758351792	77.53074586157503
6635.401845801448	77.8765950558051
6636.784221185991	78.22884214612127
6638.166884565405	78.58372475838837
6639.54983599969	78.93891061339464
6640.933075548856	79.29398544459889
6642.316603272929	79.64447360258264
6643.700419231944	79.97479628236928
6645.084523485952	80.27552297291824
6646.468916095012	80.55994384685822
6647.853597119198	80.84194109468886
6649.238566618597	81.12392607323041
6650.623824653309	81.40234151886679
6652.009371283446	81.65794382224801
6653.39520656913	81.86900286084308
6654.781330570499	82.04712833776205
6656.167743347702	82.21737480167754
6657.554444960899	82.38742004151976
6658.941435470266	82.55554203737037
6660.328714935989	82.70402878654085
6661.716283418268	82.80042774251926
6663.104140977314	82.84595922206151
6664.492287673351	82.87387911128006
6665.880723566617	82.90066611777026
6667.269448717359	82.92586335333979
6668.658463185843	82.92251191904519
6670.04776703234	82.81389222488974
6671.437360317139	82.5690643370234
6672.827243100539	82.25817941594573
6674.21741544285	81.93906982004012
6675.607877404403	81.61906501950855
6676.998629045529	81.2674011358437
6678.389670426579	80.74825302694688
6679.781001607919	79.94198936694477
6681.17262264992	78.94882777350216
6682.564533612973	77.91847130238293
6683.956734557476	76.88711556692068
6685.349225543842	75.82601537696283
6686.742006632498	74.52551337440919
6688.135077883879	72.67180378397866
6689.528439358438	70.33919045538853
6690.9220911166385	67.86387315852019
6692.316033218955	65.38122105368309
6693.710265725876	62.86636437376164
6695.104788697902	59.92043540719175
6696.4996021955485	55.60574487246885
6697.894706279339	49.724637702639434
6699.290101009814	43.183206470722126
6700.685786447524	36.577470456133604
6702.081762653035	29.990236382182943
6703.478029686921	23.945853014307648
6704.874587609773	20.359180413480463
6706.27143648219	20.497623507358085
6707.668576364793	22.771430385296753
6709.066007318201	25.393163589921148
6710.46372940306	28.019414350983578
6711.861742680019	30.71075372361364
6713.260047209744	33.830706117209274
6714.658643052912	37.817042723265835
6716.0575302702155	42.46691821839868
6717.4567089223565	47.28461894715436
6718.856179070049	52.108801965423424
6720.255940774021	56.91825444803217
6721.6559940950165	61.55876331991599
6723.056339093787	65.73160841389942
6724.456975831098	69.43239321068488
6725.85790436773	72.96348413322315
6727.259124764472	76.48334212052488
6728.660637082132	79.99756927418818
6730.062441381524	83.39029215038609
6731.464537723479	86.31461323324368
6732.866926168839	88.61196375406604
6734.269606778457	90.59396416155394
6735.672579613203	92.53470061269498
6737.075844733956	94.47518144349146
6738.4794022016085	96.39123650094885
6739.883252077068	98.16701662337407
6741.2873944212515	99.69127942612366
6742.691829295089	101.04541852997566
6744.096556759525	102.36422933266061
6745.5015768755175	103.68259413684949
6746.906889704033	104.99507814192478
6748.312495306054	106.25561095047274
6749.718393742578	107.39152402771354
6751.124585074607	108.41598720020434
6752.531069363165	109.40591289464011
6753.937846669282	110.39419660077091
6755.344917054005	111.38168041285138
6756.752280578391	112.35418427956938
6758.159937303512	113.27634700466241
6759.567887290451	114.13895505857958
6760.976130600304	114.97577679887458
6762.384667294178	115.81018670141533
6763.793497433198	116.64454359503499
6765.202621078498	117.47235424546244
6766.612038291223	118.26862056307719
6768.021749132533	119.01514947053509
6769.431753663604	119.73199722316348
6770.842051945616	120.44377115764179
6772.252644039771	121.15560382732049
6773.66353000728	121.86476459396043
6775.074709909365	122.55394834236033
6776.486183807264	123.2007278432421
6777.897951762223	123.8138591842204
6779.310013835508	124.4182377617825
6780.722370088391	125.02242917610812
6782.135020582158	125.62704896816258
6783.547965378113	126.23522495868356
6784.961204537568	126.85333669350915
6786.374738121846	127.48184249787553
6787.788566192289	128.11437045561908
6789.2026888102455	128.74733772103073
6790.617106037082	129.38052411491694
6792.031817934173	130.01572317946417
6793.446824562909	130.65865847711888
6794.862125984693	131.31228835648028
6796.27772226094	131.97156748197878
6797.693613453079	132.63175060279596
6799.109799622548	133.29198996996124
6800.5262808308025	133.94793705998032
6801.9430571393095	134.57798309538617
6803.360128609546	135.15996634366968
6804.777495303007	135.70820636190527
6806.195157281196	136.24900993039805
6807.6131146056305	136.78973898778307
6809.031367337839	137.32998566292903
6810.449915539369	137.86487992852497
6811.868759271772	138.38617227588887
6813.287898596622	138.89480071825173
6814.707333575495	139.39936319257544
6816.12706426999	139.9037895124911
6817.547090741715	140.40880895305474
6818.967413052284	140.92176780511127
6820.388031263337	141.46198508854448
6821.808945436517	142.03566493112373
6823.230155633484	142.6246972680454
6824.651661915907	143.2155452313908
6826.073464345473	143.80654630244976
6827.49556298388	144.39856615547063
6828.917957892834	144.9951323281333
6830.340649134063	145.59901931075515
6831.763636769299	146.20747876020584
6833.186920860294	146.8168812132695
6834.610501468806	147.42640253188384
6836.034378656611	148.03356517222142
6837.458552485498	148.62231225062544
6838.883023017267	149.1707353554699
6840.307790313729	149.68615488088858
6841.732854436711	150.19256794162484
6843.158215448053	150.69872042423737
6844.583873409604	151.2052162384736
6846.009828383232	151.71470706119763
6847.436080430813	152.23291913109205
6848.862629614236	152.76058708066768
6850.289475995406	153.29206552850138
6851.716619636238	153.8239711559829
6853.144060598662	154.35514415682715
6854.57179894462	154.86611593942854
6855.999834736067	155.29109082910443
6857.428168034971	155.59229166888187
6858.856798903312	155.82648075511202
6860.285727403084	156.05080602107807
6861.7149535962935	156.27531605259077
6863.144477544959	156.51139241856916
6864.5742993111135	156.8183524695288
6866.004418956804	157.26112202493388
6867.434836544087	157.80272464356213
6868.865552135034	158.36759699316306
6870.296565791729	158.93323297724248
6871.72787757627	159.50069911385117
6873.159487550764	160.08527445880526
6874.591395777338	160.71437543267146
6876.023602318125	161.38627501385227
6877.456107235274	162.07273925364169
6878.888910590949	162.7602285951447
6880.322012447323	163.44579872628498
6881.755412866582	164.09665083557667
6883.18911191093	164.62268204844466
6884.623109642579	164.99065180845352
6886.057406123754	165.28380512859226
6887.492001416697	165.56810952289933
6888.926895583659	165.8525254481844
6890.362088686906	166.1399181768944
6891.797580788715	166.4427097587861
6893.233371951381	166.77153237579608
6894.669462237203	167.1170267968618
6896.105851708503	167.46577082076354
6897.542540427609	167.81455670579447
6898.979528456865	168.15203900495445
6900.416815858628	168.4002081161325
6901.854402695265	168.4453674079549
6903.29228902916	168.31724478949496
6904.730474922708	168.1384089401555
6906.168960438317	167.95716624617134
6907.607745638409	167.77797803073483
6909.0468305854165	167.62703945181173
6910.48621534179	167.5649297896332
6911.925899969986	167.60306496471398
6913.365884532479	167.68254086827224
6914.806169091757	167.7657781340838
6916.246753710318	167.85050900404397
6917.687638450675	167.97300730597019
6919.128823375352	168.26186819277055
6920.570308546889	168.7987615038044
6922.012094027836	169.4758735991718
6923.454179880759	170.17553980388786
6924.896566168235	170.87530851218207
6926.339252952854	171.55742696966027
6927.782240297219	172.1233777504188
6929.225528263946	172.45750144401129
6930.669116915669	172.61703360937076
6932.113006315028	172.73383150716276
6933.557196524675	172.849372887336
6935.001687607285	172.97200186007868
6936.446479625538	173.16744941169665
6937.8915726421255	173.55913655494948
6939.33696671976	174.1457146516622
6940.782661921161	174.80154862865072
6942.228658309061	175.46231168916935
6943.67495594621	176.12472832041473
6945.121554895365	176.8155230320069
6946.568455219301	177.6128867283846
6948.015656980806	178.55042921691967
6949.463160242676	179.55718845913734
6950.910965067728	180.5728982519212
6952.359071518784	181.5884340788853
6953.807479658683	182.58655251438933
6955.256189550279	183.48854999776663
6956.705201256435	184.22203904812207
6958.154514840031	184.84357318224676
6959.604130363956	185.44226347979455
6961.054047891116	186.04061997036604
6962.504267484427	186.63637954713687
6963.954789206819	187.20962153534586
6965.405613121237	187.72956732945943
6966.856739290638	188.20248808037383
6968.30816777799	188.66112848720164
6969.759898646277	189.11913797172377
6971.211931958496	189.5764671727716
6972.6642677776545	190.02274186177598
6974.116906166776	190.43284793796042
6975.569847188894	190.80086779899963
6977.023090907059	191.15091234264855
6978.47663738433	191.49925861523562
6979.930486683786	191.84752173299287
6981.3846388685115	192.1915260727405
6982.83909400161	192.5156152147754
6984.293852146194	192.8088705972036
6985.748913365391	193.0840549990835
6987.204277722341	193.35622156458433
6988.659945280201	193.6284993014924
6990.115916102135	193.90918357006493
6991.572190251322	194.24775843642632
6993.028767790958	194.70604865433413
6994.485648784248	195.25750420673046
6995.942833294413	195.83286571698812
6997.400321384683	196.40913505088238
6998.858113118305	196.98003054696534
7000.316208558537	197.49086165211037
7001.774607768653	197.8328795242559
7003.23331081194	198.00088672422908
7004.692317751692	198.1041456783145
7006.151628651223	198.20249429019836
7007.6112435738605	198.30043831881028
7009.071162582939	198.38937112976205
7010.5313857418105	198.4424140036499
7011.9919131138395	198.44648301060747
7013.452744762405	198.42556921563894
7014.913880750897	198.40133808003506
7016.375321142722	198.37713379327778
7017.837066001293	198.35484791827295
7019.299115390043	198.34348027208068
7020.761469372417	198.35186390360795
7022.224128011869	198.37383240932684
7023.687091371872	198.39874314565728
7025.150359515908	198.4237448299701
7026.613932507475	198.4569604276925
7028.07781041008	198.56438335475093
7029.541993287248	198.85505185722312
7031.0064812025175	199.31325043359203
7032.471274219435	199.82463101132856
7033.936372401564	200.338948255513
7035.401775812481	200.85150621419172
7036.867484515776	201.33568691128573
7038.33349857505	201.72336342646295
7039.79981805392	201.99428119406258
7041.266443016016	202.2127163172411
7042.733373524977	202.42549608269326
7044.200609644461	202.63852338239892
7045.668151438137	202.85832432092263
7047.135998969687	203.1107868117484
7048.604152302806	203.41542786656802
7050.072611501203	203.75165198746362
7051.541376628598	204.09350306756133
7053.010447748729	204.435419612077
7054.479824925345	204.77036997335247
7055.949508222204	205.05476349190906
7057.419497703085	205.23100312901744
7058.889793431773	205.32006039860838
