#wavelength	surface flux
0.6450077295303345	12532.583561276724
0.6472567915916443	18853.437190766726
0.6494921445846558	22672.833113663113
0.6517150402069092	23753.771225853987
0.6539263725280762	24740.667465059818
0.6561272740364075	25671.24058010637
0.6583186388015747	26688.36106408207
0.6605015397071838	27918.29733671453
0.6626768708229065	29141.429068862366
0.6648455858230591	30286.787898924627
0.6670085787773132	31374.87685877554
0.6691668033599854	32058.778816398644
0.6713210344314575	32802.61079224652
0.6734722256660461	34492.88285726226
0.6756211519241333	36278.57710998985
0.6777685880661011	37511.46426175117
0.6799154281616211	38664.323561812096
0.6820623278617859	39658.06384777349
0.6842101216316223	40409.24778393988
0.6863595843315125	40712.23796519859
0.688511312007904	40414.19874506171
0.6906660795211792	40956.81356714788
0.6928245425224304	43178.31245741823
0.6949873566627502	45805.79199553682
0.6971551775932312	47816.337340074846
0.6993286609649658	49772.96010774261
0.7015084028244019	52814.47002850081
0.7036949396133423	56374.47995382698
0.7058889269828796	59302.688145866996
0.7080909013748169	61640.39806498867
0.710301399230957	63820.38676240245
0.712520956993103	66053.51847595179
0.7147500514984131	68329.40287151955
0.7169892191886902	70700.9046367852
0.7192389369010925	73225.38458899129
0.7214996814727783	75835.07788614824
0.723771870136261	78504.34060412733
0.7260559797286987	81249.80608539926
0.7283523678779602	84058.2330674758
0.7306615710258484	86673.71273243467
0.7329838871955872	87810.34089384625
0.7353196740150452	87668.51957184737
0.7376693487167358	88206.91787716067
0.7400332689285278	89002.49147099332
0.7424117922782898	89942.67777442766
0.7448052167892456	92114.69696155335
0.7472138404846191	96395.96858981154
0.7496379613876343	102422.83143305601
0.7520779371261597	108450.3540287438
0.7545340061187744	114597.35840034104
0.7570064663887024	120631.0456712321
0.7594954967498779	125436.9801413158
0.7620013952255249	125101.53076549893
0.7645244002342224	108474.07531934098
0.7670646905899048	85285.64101252181
0.7696225643157959	86571.52315940688
0.7721980810165405	116766.37159963981
0.7747915983200073	147861.5363553974
0.7774031162261963	161539.7634473389
0.7800329327583313	166290.0946669181
0.7826811671257019	173500.7434311188
0.7853479981422424	182153.8796831615
0.7880334854125977	188781.66391797192
0.7907378077507019	193569.2316355189
0.7934610247612	195774.50892838708
0.7962033748626709	200421.36842469382
0.7989648580551147	209647.91845703026
0.801745593547821	218641.4828557173
0.8045456409454346	227134.853464882
0.8073651194572449	236598.28384789085
0.8102040886878967	246664.04519260573
0.8130625486373901	256675.8948991402
0.8159406185150146	266506.5208795275
0.8188382983207703	276309.5346218036
0.8217556476593018	286113.31082555087
0.8246926665306091	296136.5519567935
0.8276493549346924	306530.88904671883
0.8306257724761963	317268.17499477055
0.8336219191551208	328329.55982996215
0.8366377949714661	339709.03150340717
0.8396733403205872	351428.2982181402
0.8427285552024841	363528.91808749497
0.8458034992218018	375987.9876508419
0.8488980531692505	388501.0887300089
0.8520121574401855	399824.71557827457
0.8551458716392517	410541.6186931491
0.8582990765571594	421883.67362445086
0.8614717125892639	433696.5830684905
0.8646637797355652	446288.6122035716
0.8678751587867737	460657.3452029528
0.8711057901382446	478557.1106275186
0.8743556141853333	498791.5351566625
0.87762451171875	519186.4348308175
0.8809124231338501	539462.0344515352
0.8842192888259888	559562.2186633968
0.8875449895858765	579737.4443193803
0.8908893465995789	599595.6976947594
0.894252359867096	619288.0888459105
0.8976338505744934	639665.4211372489
0.9010337591171265	661504.4286406252
0.9044519662857056	684510.1522835146
0.9078882932662964	707607.3001828128
0.9113426208496094	730924.5734502845
0.914814829826355	754672.4861909081
0.9183048605918884	779030.8839357366
0.9218124747276306	803844.1128239399
0.925337553024292	826253.9622047521
0.9288799166679382	845299.2603970108
0.9324395060539246	863946.1109275451
0.9360161423683167	889242.1407126382
0.9396095871925354	927593.0860624014
0.943219780921936	966486.8238233124
0.9468464851379395	994747.9556782218
0.9504896402359009	1023007.1252819953
0.9541489481925964	1056181.915865041
0.9578243494033813	1089294.2739575773
0.9615156054496765	1123565.6037282245
0.9652225375175476	1163042.7245077533
0.9689450263977051	1204066.5279152528
0.9726828336715698	1242376.387960893
0.9764357805252075	1280961.897996786
0.9802037477493286	1321356.4641808944
0.983986496925354	1362085.166680633
0.9877838492393494	1403029.0092372138
0.9915955662727356	1445754.4270450464
0.9954215884208679	1490100.8445743234
0.9992615580558777	1534567.5523363433
1.0031154155731201	1579493.3240400085
1.0069829225540161	1625973.1365873443
1.0108637809753418	1673899.692121402
1.0147579908370972	1722915.8163094798
1.018665075302124	1772974.9888000563
1.022585153579712	1823986.7867474891
1.0265177488327026	1876179.2446525865
1.0304628610610962	1929696.741294878
1.0344202518463135	1984339.5940467245
1.0383895635604858	2039977.8562670043
1.0423706769943237	2096506.0985404672
1.0463634729385376	2153533.190683336
1.0503677129745483	2211459.320703791
1.0543830394744873	2271353.7745781103
1.058409333229065	2333703.9517853106
1.0624464750289917	2399452.573328635
1.0664942264556885	2467103.4192572488
1.0705522298812866	2534220.100582975
1.0746204853057861	2601609.841971982
1.0786986351013184	2670103.8615471288
1.0827864408493042	2739607.2744781654
1.086883783340454	2809595.250453522
1.0909905433654785	2878647.9256362105
1.0951062440872192	2943184.472130119
1.0992310047149658	3004399.740255017
1.10336434841156	3075795.573629743
1.1075061559677124	3157905.7992111286
1.1116561889648438	3219538.8445741115
1.115814208984375	3251199.7435186403
1.1199802160263062	3286314.011708665
1.124153733253479	3362149.9636096363
1.1283347606658936	3484302.4271354126
1.1325229406356812	3592360.932552196
1.1367181539535522	3677954.217732477
1.1409201622009277	3774375.3380125808
1.145128846168518	3853238.793577805
1.1493438482284546	3934553.548578037
1.1535650491714478	4048354.524946688
1.1577922105789185	4149015.423218853
1.1620250940322876	4225458.066415809
1.1662636995315552	4319342.007546244
1.170507550239563	4422550.962864893
1.174756646156311	4526504.544563686
1.1790107488632202	4646368.316391571
1.1832695007324219	4763605.637361532
1.1875330209732056	4875894.797458827
1.191800832748413	4993391.675678142
1.1960728168487549	5103489.2381384075
1.2003488540649414	5209794.908733456
1.2046287059783936	5322195.296356843
1.2089121341705322	5434352.587391705
1.2131990194320679	5544688.026402064
1.2174891233444214	5657968.926436321
1.2217823266983032	5774365.791133123
1.2260783910751343	5890811.327084762
1.230377197265625	6007485.158372417
1.2346785068511963	6126272.715170026
1.238982081413269	6246646.474217504
1.2432878017425537	6367311.312059114
1.2475954294204712	6487762.223314093
1.2519049644470215	6608274.065912165
1.256216049194336	6731254.514336243
1.2605286836624146	6857201.95686653
1.2648425102233887	6983617.927187523
1.2691574096679688	7109327.002652895
1.2734732627868652	7235626.903175426
1.2777899503707886	7363145.637916185
1.2821072340011597	7490660.286784846
1.2864248752593994	7618644.810541853
1.2907428741455078	7741971.244213043
1.2950609922409058	7861929.467079074
1.2993791103363037	7997241.196454454
1.303696870803833	8144752.682051573
1.3080145120620728	8285000.385419928
1.3123314380645752	8416273.188477844
1.3166478872299194	8542568.621100808
1.3209635019302368	8660013.762501648
1.3252781629562378	8780721.689827355
1.3295916318893433	8865348.418947145
1.3339040279388428	8783064.154779349
1.3382149934768677	8603917.948461913
1.3425244092941284	8462227.211797988
1.3468321561813354	8361743.207396338
1.3511382341384888	8224933.2464852715
1.3554422855377197	8160009.648369492
1.3597444295883179	8356494.6742173815
1.3640443086624146	8608616.974316677
1.3683418035507202	8855615.246497031
1.3726370334625244	9211901.913404634
1.3769296407699585	9626559.392381413
1.381219506263733	9891145.121423477
1.3855066299438477	9814312.25423076
1.3897908926010132	9626395.595042551
1.3940720558166504	9633545.401959736
1.3983501195907593	9873504.204076273
1.4026249647140503	10063989.560768979
1.4068963527679443	10224741.720997883
1.4111642837524414	10449236.188231029
1.4154287576675415	10295148.169057647
1.419689416885376	9983787.26290036
1.4239463806152344	10024569.80828489
1.4281994104385376	10385296.83642034
1.4324485063552856	11030734.677058164
1.436693549156189	11466199.792117782
1.440934419631958	11579944.182351692
1.4451709985733032	11849717.937606541
1.449403166770935	12119634.764738206
1.453631043434143	12304985.081650008
1.4578542709350586	12611417.18761199
1.4620729684829712	12842518.137930967
1.4662868976593018	12933461.710790394
1.4704961776733398	13148599.116651239
1.4747005701065063	13424954.738951033
1.4788999557495117	13681667.714155423
1.4830944538116455	13880868.137468625
1.4872838258743286	13985724.244360067
1.491468071937561	14118337.647964932
1.4956470727920532	14313473.625512237
1.4998208284378052	14524850.767514369
1.5039892196655273	14815600.331262505
1.5081522464752197	15105535.299077412
1.5123097896575928	15322598.93582271
1.5164618492126465	15544127.789428595
1.5206083059310913	15761065.95758968
1.5247491598129272	15918980.166908322
1.5288842916488647	16027036.886350296
1.5330137014389038	16208614.97086502
1.5371372699737549	16469746.762274757
1.541254997253418	16699842.989100927
1.545366883277893	16881693.152560506
1.5494728088378906	17055992.315576866
1.5535727739334106	17227484.031470835
1.5576666593551636	17381626.809053637
1.561754584312439	17537915.699516363
1.5658363103866577	17720895.383640714
1.5699119567871094	17898800.30276355
1.5739814043045044	18067334.536402196
1.5780447721481323	18250818.051272087
1.582101821899414	18433017.594631314
1.5861525535583496	18606277.930740993
1.5901970863342285	18775887.11641029
1.5942351818084717	18944136.094695628
1.5982669591903687	19110403.157985833
1.6022924184799194	19274400.83199745
1.606311559677124	19437332.273108464
1.6103241443634033	19599271.266030286
1.6143304109573364	19763895.473505545
1.6183301210403442	19929800.994023465
1.6223233938217163	20086451.29735539
1.6263102293014526	20233872.32322597
1.6302905082702637	20377115.252722103
1.634264349937439	20524430.35436575
1.638231635093689	20701109.111234456
1.6421923637390137	20881103.9828386
1.646146535873413	21046911.094818898
1.6500942707061768	21219726.885921188
1.6540353298187256	21382771.7533168
1.6579699516296387	21533671.90950983
1.661897897720337	21671318.721477356
1.6658192873001099	21796111.502886243
1.6697341203689575	21958584.001343384
1.6736423969268799	22141453.560419966
1.677544116973877	22288865.01918215
1.6814392805099487	22442095.368796818
1.6853278875350952	22622614.1782771
1.6892099380493164	22790575.31219475
1.6930854320526123	22928696.04371729
1.696954369544983	23062808.457870446
1.7008168697357178	23215007.145769674
1.7046726942062378	23366497.82204669
1.708522081375122	23524564.624174636
1.712364912033081	23688743.9543714
1.7162011861801147	23823456.51914205
1.7200311422348022	23932274.238108557
1.723854422569275	23992162.181796264
1.7276713848114014	23963048.985904023
1.731481909751892	23930188.554274753
1.7352858781814575	23981165.07980139
1.7390835285186768	24116847.827696703
1.7428747415542603	24323996.94525048
1.7466596364974976	24640419.293271
1.7504380941390991	24817485.119357295
1.7542102336883545	24722051.993127115
1.7579760551452637	24784227.48922089
1.7617355585098267	24901137.22980825
1.7654887437820435	24623773.73676789
1.7692357301712036	24344785.747663684
1.7729763984680176	24442191.036004122
1.776710867881775	24650441.247557566
1.7804391384124756	24833827.718254626
1.7841613292694092	24925620.016040977
1.7878772020339966	24418003.640387658
1.7915871143341064	23693738.379533794
1.7952908277511597	23568227.052965533
1.7989884614944458	23324378.7378661
1.8026801347732544	23142834.107470427
1.806365728378296	23057744.16353102
1.8100452423095703	23039059.79029447
1.8137187957763672	23811040.39445378
1.817386507987976	24504159.775757965
1.8210482597351074	25036328.998999435
1.8247040510177612	25408949.61834402
1.828354001045227	25186835.959367737
1.8319982290267944	25605780.083842624
1.8356364965438843	26519365.821494196
1.8392690420150757	26350014.751386195
1.8428958654403687	25440443.085207097
1.8465168476104736	24826567.363125943
1.8501322269439697	25121293.696886126
1.8537418842315674	25235238.30140056
1.8573459386825562	24425271.321154434
1.860944390296936	23964600.275122367
1.864537239074707	24248648.88444748
1.8681244850158691	24513639.76226343
1.871706247329712	24494652.853217926
1.8752825260162354	25079425.639194537
1.8788533210754395	26373174.91305587
1.8824186325073242	26939001.836367853
1.8859784603118896	27094938.65187893
1.8895330429077148	27925808.003418144
1.8930821418762207	28501739.34410331
1.8966259956359863	28415091.931872055
1.9001644849777222	27959854.477804206
1.9036977291107178	28046180.207782373
1.9072256088256836	28587638.596353598
1.9107483625411987	28454164.028203335
1.9142658710479736	28629845.7135654
1.9177782535552979	28540953.127933312
1.9212853908538818	27404384.22976262
1.9247875213623047	27512858.899899364
1.9282845258712769	28751103.15954477
1.9317764043807983	29133408.581709012
1.9352631568908691	28788317.15461033
1.9387450218200684	27963873.728305914
1.942221760749817	26818790.43797658
1.9456936120986938	26133802.999954347
1.9491604566574097	26622524.90080171
1.952622413635254	27402099.1303993
1.956079363822937	26905478.600666616
1.959531545639038	26730107.630718283
1.962978720664978	28588718.803048488
1.966421127319336	30434119.398723535
1.9698586463928223	30709718.107000973
1.9732913970947266	30334950.249485917
1.9767193794250488	30308206.930725947
1.9801424741744995	31057043.529303413
1.9835609197616577	31653468.44126894
1.9869745969772339	31188271.42646469
1.990383505821228	30579710.714648847
1.9937876462936401	31172898.566838223
1.9971871376037598	31679456.499554228
2.000581979751587	31179044.32458552
2.003972291946411	31324722.757027254
2.007357597351074	32287245.162048202
2.0107386112213135	33114246.812681865
2.0141148567199707	33308780.692699432
2.017486572265625	33310402.579653725
2.0208535194396973	33726893.067829184
2.0242159366607666	33852887.416384734
2.027573823928833	33302688.311084893
2.0309269428253174	33125245.02777716
2.034275770187378	33709828.84151329
2.0376198291778564	34130326.8636171
2.040959596633911	34185299.31252749
2.044294595718384	34512390.901044846
2.0476250648498535	34940232.14405728
2.0509510040283203	35164489.35729182
2.054272413253784	35389605.88968714
2.057589530944824	35600247.6427829
2.0609018802642822	35714436.40528308
2.0642096996307373	35831708.29541749
2.0675129890441895	36041747.80518597
2.0708119869232178	36250699.84027387
2.074106216430664	36413699.11910821
2.0773961544036865	36459383.42439943
2.080681324005127	36395992.63450629
2.0839622020721436	36470805.83573682
2.087238311767578	36684983.276851125
2.090510129928589	36897752.986963466
2.0937774181365967	37079632.53747723
2.0970399379730225	37190477.49481797
2.1002981662750244	37284006.08417702
2.1035518646240234	37401382.99456842
2.1068007946014404	37504794.30358917
2.1100454330444336	37559785.41006323
2.1132853031158447	37616601.59837568
2.116520881652832	37730191.65203327
2.1197516918182373	37873209.178881355
2.1229779720306396	37978008.44430316
2.12619948387146	38051380.8254056
2.1294167041778564	38154686.7680213
2.132629156112671	38274875.84033455
2.1358368396759033	38372235.815383814
2.139039993286133	38445288.558192834
2.1422386169433594	38521097.92103992
2.145432472229004	38590168.07561375
2.1486217975616455	38651346.65661517
2.151806354522705	38738523.12458738
2.1549863815307617	38821686.1479045
2.1581614017486572	38918288.060835145
2.16133189201355	39031857.357054554
2.1644976139068604	39111445.4810446
2.167658567428589	39180991.94439841
2.1708147525787354	39240843.63889355
2.173966407775879	39293967.68064008
2.1771130561828613	39385000.8185971
2.1802549362182617	39489293.05297782
2.183391809463501	39544286.70920846
2.1865241527557373	39592926.03314047
2.1896514892578125	39688071.71653241
2.1927738189697266	39770931.04675075
2.1958916187286377	39810718.28620632
2.1990041732788086	39835236.92175745
2.2021119594573975	39897063.22219697
2.2052149772644043	40017568.85706611
2.208312749862671	40134808.56491286
2.2114057540893555	40213177.32612937
2.214493751525879	40245927.656872556
2.217576742172241	40163144.96889918
2.2206547260284424	40032245.339100234
2.2237277030944824	40088574.329006165
2.2267956733703613	40252113.6541754
2.2298583984375	40367999.781068124
2.2329163551330566	40444361.81355156
2.235969066619873	40480764.24870451
2.2390167713165283	40581660.21887671
2.2420592308044434	40682620.61991026
2.2450966835021973	40718540.648592025
2.248128890991211	40827556.95714769
2.2511560916900635	40896608.167550124
2.254178285598755	40795759.749915965
2.257194995880127	40790158.24192596
2.260206699371338	40961922.95456881
2.2632133960723877	41049084.09712061
2.266214609146118	41039406.97367999
2.2692108154296875	41005256.33099137
2.2722020149230957	41111501.129173145
2.2751877307891846	41325115.611540355
2.278168201446533	41309968.53040245
2.2811436653137207	41276276.557271674
2.284113883972168	41367228.40098622
2.287078857421875	41375216.6516854
2.290038824081421	41172686.3617808
2.2929933071136475	40088485.85103086
2.295942783355713	39104210.55474702
2.298887014389038	39436302.43143805
2.301826238632202	39322633.58856631
2.304760217666626	38369552.907865
2.3076889514923096	39022260.432864524
2.310612440109253	40780725.60546383
2.3135311603546143	40971798.29585739
2.3164443969726562	40455611.334830455
2.319352865219116	40082113.03385892
2.322256088256836	38820643.13347118
2.3251543045043945	37833460.35022267
2.328047275543213	38465963.26992293
2.330935478210449	39570088.314320095
2.3338186740875244	40114332.28973315
2.3366971015930176	40033514.735171616
2.3395702838897705	40230284.47028271
2.3424389362335205	40704394.6937667
2.3453025817871094	40263308.73765174
2.348161458969116	39897354.646870606
2.351015567779541	39450630.31715327
2.353865146636963	39006322.648897514
2.3567099571228027	39596014.472373165
2.3595502376556396	39899626.71301875
2.3623859882354736	39927265.09190037
2.3652172088623047	39967809.14438262
2.368043899536133	39543950.77594821
2.370866537094116	39596894.56922024
2.3736846446990967	40141623.58960158
2.3764986991882324	39843914.084380485
2.3793084621429443	38916591.7749248
2.3821144104003906	39040242.83120692
2.384916305541992	39923197.58350373
2.387714147567749	40475569.5826367
2.3905084133148193	40073304.99086624
2.393299102783203	38918976.59728083
2.3960859775543213	39451801.716761015
2.398869514465332	40611125.301793806
2.4016497135162354	40131492.47769894
2.4044265747070312	40052750.67710455
2.407200336456299	40786743.111583464
2.409970998764038	40999802.53277461
2.4127390384674072	40720060.05233583
2.415503978729248	40613924.5795357
2.418266534805298	40943016.05839218
2.4210267066955566	40981576.264494844
2.4237842559814453	40856940.142724134
2.426539897918701	40826424.448871724
2.429293394088745	40337099.57278712
2.4320452213287354	39130311.08975861
2.4347951412200928	37324196.46412764
2.4375438690185547	37328053.789281964
2.440291166305542	38933570.47282743
2.443037271499634	38659606.50054029
2.445782423019409	38288627.00742334
2.4485268592834473	39524721.055571906
2.451270818710327	39417732.93763465
2.454014539718628	38029172.030063726
2.4567582607269287	38112277.76967802
2.4595019817352295	38245267.714550294
2.4622461795806885	38252167.79728033
2.4649908542633057	37966431.776434354
2.4677364826202393	35996504.22056948
2.4704833030700684	35156468.56816839
2.473231554031372	34149886.995562784
2.4759814739227295	34092743.69037173
2.4787333011627197	36341075.09955737
2.481487512588501	36429569.65838156
