#wavelength	surface flux
0.6450077295303345	10193.616801301723
0.6472567915916443	15459.941657797315
0.6494921445846558	18827.854851210763
0.6517150402069092	19946.986557183296
0.6539263725280762	20925.33015421584
0.6561272740364075	21784.507835244785
0.6583186388015747	22787.62965177257
0.6605015397071838	24132.211529311975
0.6626768708229065	25473.351125139012
0.6648455858230591	26711.19236920977
0.6670085787773132	27948.626875799404
0.6691668033599854	29062.110035516216
0.6713210344314575	30241.41762067641
0.6734722256660461	31824.886882992192
0.6756211519241333	33477.10202873622
0.6777685880661011	34950.04339922788
0.6799154281616211	36439.86514924003
0.6820623278617859	37935.51655234141
0.6842101216316223	39394.77800467669
0.6863595843315125	40733.214709371074
0.688511312007904	41899.52160373471
0.6906660795211792	43380.10530153725
0.6928245425224304	45500.75197332641
0.6949873566627502	47896.55947461018
0.6971551775932312	50118.67793502684
0.6993286609649658	52291.71091645769
0.7015084028244019	54920.41948534018
0.7036949396133423	57826.720310854646
0.7058889269828796	60569.89290369559
0.7080909013748169	63159.11703771757
0.710301399230957	65761.73925001151
0.712520956993103	68473.52147937087
0.7147500514984131	71263.3307133626
0.7169892191886902	74134.40240161288
0.7192389369010925	77143.26354830351
0.7214996814727783	80294.08597128745
0.723771870136261	83561.16608840764
0.7260559797286987	86917.58742990144
0.7283523678779602	90356.02700584104
0.7306615710258484	93845.28878942392
0.7329838871955872	97167.93655912208
0.7353196740150452	100381.88185089809
0.7376693487167358	103777.6008606858
0.7400332689285278	107207.24300211517
0.7424117922782898	110676.72634408268
0.7448052167892456	114344.76030050067
0.7472138404846191	118310.91156389256
0.7496379613876343	122321.63813876902
0.7520779371261597	125608.18199010778
0.7545340061187744	127464.57075635274
0.7570064663887024	126267.95330548339
0.7594954967498779	117918.03043043948
0.7620013952255249	95096.936009713
0.7645244002342224	58080.94657518563
0.7670646905899048	28614.619694558318
0.7696225643157959	28007.307031814205
0.7721980810165405	61716.50414574531
0.7747915983200073	113834.0430857551
0.7774031162261963	150232.58118797943
0.7800329327583313	165743.43706614358
0.7826811671257019	186178.10392182448
0.7853479981422424	210238.80857301073
0.7880334854125977	225168.63531038014
0.7907378077507019	233581.32105799296
0.7934610247612	234310.43046450667
0.7962033748626709	241304.7641660445
0.7989648580551147	262243.8766183761
0.801745593547821	280640.24964004045
0.8045456409454346	293162.39648865385
0.8073651194572449	305680.4170910101
0.8102040886878967	318500.3089826509
0.8130625486373901	331611.77923567087
0.8159406185150146	345248.0035262285
0.8188382983207703	359399.2954252843
0.8217556476593018	373819.1365265627
0.8246926665306091	388746.923699
0.8276493549346924	404365.3774869406
0.8306257724761963	420481.3444742455
0.8336219191551208	437157.46176660433
0.8366377949714661	454449.124562908
0.8396733403205872	472336.65848694846
0.8427285552024841	490902.0834670121
0.8458034992218018	510123.0878120498
0.8488980531692505	529914.5159556877
0.8520121574401855	549990.0249478592
0.8551458716392517	570494.8895046386
0.8582990765571594	591360.9845541046
0.8614717125892639	612064.7262931142
0.8646637797355652	634078.1606958974
0.8678751587867737	658650.4953972895
0.8711057901382446	685055.5700454684
0.8743556141853333	712584.5702192114
0.87762451171875	740853.1871196404
0.8809124231338501	769803.2425597671
0.8842192888259888	799565.5425788461
0.8875449895858765	829999.0561361626
0.8908893465995789	860732.0005275338
0.894252359867096	891930.6224345326
0.8976338505744934	924389.5275653143
0.9010337591171265	959179.9579469009
0.9044519662857056	995770.7697715656
0.9078882932662964	1032659.8064375656
0.9113426208496094	1069974.9816297623
0.914814829826355	1108313.756147806
0.9183048605918884	1148155.2057277584
0.9218124747276306	1188738.6239825033
0.925337553024292	1224801.4448659976
0.9288799166679382	1253775.4851324114
0.9324395060539246	1284767.1506633074
0.9360161423683167	1331292.9748945069
0.9396095871925354	1393580.7072103666
0.943219780921936	1452310.405377922
0.9468464851379395	1499141.0102699401
0.9504896402359009	1547439.7871669075
0.9541489481925964	1601966.8048837574
0.9578243494033813	1657580.7998058517
0.9615156054496765	1715642.3693006001
0.9652225375175476	1779623.1933362233
0.9689450263977051	1845751.2183367435
0.9726828336715698	1910042.2392416936
0.9764357805252075	1974962.0978521924
0.9802037477493286	2043047.2036329382
0.983986496925354	2113476.7683884124
0.9877838492393494	2185005.857523504
0.9915955662727356	2258189.3340920215
0.9954215884208679	2332562.607449453
0.9992615580558777	2406770.4483648357
1.0031154155731201	2481994.860953158
1.0069829225540161	2559935.540269976
1.0108637809753418	2640419.3305673595
1.0147579908370972	2723007.8070987235
1.018665075302124	2807537.4701543474
1.022585153579712	2893781.8549807537
1.0265177488327026	2981912.2248067567
1.0304628610610962	3071975.4289435367
1.0344202518463135	3163937.6504673283
1.0383895635604858	3257886.9760988657
1.0423706769943237	3353729.9357775585
1.0463634729385376	3451292.5017995415
1.0503677129745483	3550771.6643321775
1.0543830394744873	3652785.408369099
1.058409333229065	3758584.5957123083
1.0624464750289917	3869716.931371937
1.0664942264556885	3983390.4201065074
1.0705522298812866	4096578.534447903
1.0746204853057861	4210759.714186924
1.0786986351013184	4326776.082791618
1.0827864408493042	4444794.713316397
1.086883783340454	4563325.4205751605
1.0909905433654785	4679360.996243745
1.0951062440872192	4789807.025153083
1.0992310047149658	4892440.335639844
1.10336434841156	4992053.086021438
1.1075061559677124	5090465.171335328
1.1116561889648438	5173066.494635984
1.115814208984375	5240190.903393404
1.1199802160263062	5317775.904918143
1.124153733253479	5456624.508644825
1.1283347606658936	5659579.241934906
1.1325229406356812	5817469.257318431
1.1367181539535522	5970275.208202086
1.1409201622009277	6174662.416350531
1.145128846168518	6322949.214098839
1.1493438482284546	6432079.155895481
1.1535650491714478	6576216.285641324
1.1577922105789185	6739308.5711822985
1.1620250940322876	6910801.609576864
1.1662636995315552	7097833.755021983
1.170507550239563	7281350.12203735
1.174756646156311	7474056.850441515
1.1790107488632202	7690183.377438949
1.1832695007324219	7898796.367126727
1.1875330209732056	8092755.098727907
1.191800832748413	8288135.677364128
1.1960728168487549	8483029.216464482
1.2003488540649414	8676708.355148237
1.2046287059783936	8871804.625595536
1.2089121341705322	9065692.212634493
1.2131990194320679	9259479.352102118
1.2174891233444214	9456586.374016277
1.2217823266983032	9656774.338777887
1.2260783910751343	9858490.851555474
1.230377197265625	10061794.748931104
1.2346785068511963	10267891.369831132
1.238982081413269	10475892.792190548
1.2432878017425537	10684313.813318025
1.2475954294204712	10893827.557450118
1.2519049644470215	11104409.550858293
1.256216049194336	11317603.65571953
1.2605286836624146	11533946.319312245
1.2648425102233887	11750936.27329348
1.2691574096679688	11967860.818249492
1.2734732627868652	12185841.15887989
1.2777899503707886	12403193.392577842
1.2821072340011597	12619002.98089057
1.2864248752593994	12836338.461832883
1.2907428741455078	13049562.734140782
1.2950609922409058	13261116.325103674
1.2993791103363037	13488118.919853576
1.303696870803833	13729054.256967636
1.3080145120620728	13968249.903174615
1.3123314380645752	14192533.971114896
1.3166478872299194	14407767.137010513
1.3209635019302368	14612919.24728741
1.3252781629562378	14781840.474823048
1.3295916318893433	14776366.75904445
1.3339040279388428	14289403.067045707
1.3382149934768677	13343485.901031468
1.3425244092941284	12393181.846652688
1.3468321561813354	11587666.919853322
1.3511382341384888	10923576.683918167
1.3554422855377197	10655932.237874404
1.3597444295883179	10925235.27659237
1.3640443086624146	11655999.016170295
1.3683418035507202	12682334.341864016
1.3726370334625244	13734867.503686
1.3769296407699585	14415480.142485745
1.381219506263733	14315891.737545164
1.3855066299438477	13860467.425901154
1.3897908926010132	13546704.519285508
1.3940720558166504	13381129.82645206
1.3983501195907593	13737021.127189456
1.4026249647140503	14376636.034232393
1.4068963527679443	14722443.35300192
1.4111642837524414	14820920.939214408
1.4154287576675415	14637969.97840463
1.419689416885376	14344173.635370651
1.4239463806152344	14487825.718073022
1.4281994104385376	15132747.542575255
1.4324485063552856	16004059.706365192
1.436693549156189	16675660.424330149
1.440934419631958	17158361.355351046
1.4451709985733032	17735671.31957651
1.449403166770935	18365030.31079363
1.453631043434143	19144905.6182937
1.4578542709350586	20016609.551648118
1.4620729684829712	20535472.1623395
1.4662868976593018	20763909.97366332
1.4704961776733398	21138011.1053507
1.4747005701065063	21643023.377835624
1.4788999557495117	22130358.943489924
1.4830944538116455	22571831.566906583
1.4872838258743286	22939347.73254955
1.491468071937561	23259612.49750394
1.4956470727920532	23641064.248409603
1.4998208284378052	24057405.428022612
1.5039892196655273	24513899.1655391
1.5081522464752197	25015768.066258032
1.5123097896575928	25509430.717414875
1.5164618492126465	25978757.727668755
1.5206083059310913	26390987.10472391
1.5247491598129272	26729367.088938832
1.5288842916488647	27021169.49166462
1.5330137014389038	27376285.054954
1.5371372699737549	27786076.488028754
1.541254997253418	28128815.057403862
1.545366883277893	28436749.509410415
1.5494728088378906	28763528.78783451
1.5535727739334106	29092612.6675173
1.5576666593551636	29400824.64640839
1.561754584312439	29695551.1678719
1.5658363103866577	29997468.327551555
1.5699119567871094	30268237.608966086
1.5739814043045044	30549031.95009021
1.5780447721481323	30893958.791383833
1.582101821899414	31213313.55436745
1.5861525535583496	31481676.688211806
1.5901970863342285	31756963.415691596
1.5942351818084717	32038793.59801347
1.5982669591903687	32310725.72590894
1.6022924184799194	32576715.299119655
1.606311559677124	32842016.9391687
1.6103241443634033	33100573.44226121
1.6143304109573364	33357875.82455454
1.6183301210403442	33592259.00165162
1.6223233938217163	33688236.74965518
1.6263102293014526	33635029.564709164
1.6302905082702637	33567864.67981051
1.634264349937439	33648632.797143616
1.638231635093689	34190657.07170147
1.6421923637390137	34854665.23016452
1.646146535873413	35191402.5480314
1.6500942707061768	35433530.17937137
1.6540353298187256	35640355.839999706
1.6579699516296387	35839013.25100447
1.661897897720337	35821685.93898813
1.6658192873001099	35355791.970684886
1.6697341203689575	35561112.41206966
1.6736423969268799	36489713.6009834
1.677544116973877	36923204.39013377
1.6814392805099487	37100910.17437601
1.6853278875350952	37402467.14395285
1.6892099380493164	37615016.07751589
1.6930854320526123	37710162.895737596
1.696954369544983	37778216.116927706
1.7008168697357178	37825847.66309334
1.7046726942062378	38000247.966017514
1.708522081375122	38414772.70921288
1.712364912033081	38872997.47540283
1.7162011861801147	39135006.3737684
1.7200311422348022	39193837.1927857
1.723854422569275	38974196.44506616
1.7276713848114014	38539811.51966151
1.731481909751892	38368932.67200271
1.7352858781814575	38509464.06372842
1.7390835285186768	38713240.75624005
1.7428747415542603	38841331.99905393
1.7466596364974976	38955998.66488338
1.7504380941390991	38845120.9783208
1.7542102336883545	38211234.63783743
1.7579760551452637	37716767.086128555
1.7617355585098267	37480779.00060032
1.7654887437820435	36780482.516870625
1.7692357301712036	35963032.92249142
1.7729763984680176	35400550.71833924
1.776710867881775	34909857.24377355
1.7804391384124756	34383942.52490359
1.7841613292694092	33298338.0349362
1.7878772020339966	32088318.89815643
1.7915871143341064	30979718.608533137
1.7952908277511597	30201708.996099055
1.7989884614944458	29563858.323330622
1.8026801347732544	28569511.420560405
1.806365728378296	27854133.134256665
1.8100452423095703	27841792.645540822
1.8137187957763672	28854818.395402446
1.817386507987976	28943228.177069873
1.8210482597351074	28757604.670904133
1.8247040510177612	30456452.216597427
1.828354001045227	31094917.805346936
1.8319982290267944	30855490.727597922
1.8356364965438843	30622847.538834225
1.8392690420150757	29733457.163984735
1.8428958654403687	29882989.47169359
1.8465168476104736	29736610.11405048
1.8501322269439697	29164699.69684287
1.8537418842315674	28377549.92410028
1.8573459386825562	26573827.48623257
1.860944390296936	25281672.655571382
1.864537239074707	24883886.70308857
1.8681244850158691	25013786.39959469
1.871706247329712	26169607.558483645
1.8752825260162354	29203243.903177854
1.8788533210754395	32715714.436975114
1.8824186325073242	34446852.5973264
1.8859784603118896	34944957.34656671
1.8895330429077148	35782166.96924327
1.8930821418762207	37121321.870764695
1.8966259956359863	37264971.69334709
1.9001644849777222	35767523.11441256
1.9036977291107178	34995438.49832722
1.9072256088256836	35710316.45713405
1.9107483625411987	35813621.62254597
1.9142658710479736	35360839.7204774
1.9177782535552979	35140288.300641984
1.9212853908538818	33862313.729397625
1.9247875213623047	33460547.207292832
1.9282845258712769	33931692.36393791
1.9317764043807983	33140384.861868333
1.9352631568908691	31597803.338070937
1.9387450218200684	29481856.199236583
1.942221760749817	29072831.27751293
1.9456936120986938	30479725.057108857
1.9491604566574097	31998098.748717606
1.952622413635254	32141373.557484847
1.956079363822937	30527713.00233046
1.959531545639038	30861613.260508765
1.962978720664978	33618354.96200691
1.966421127319336	36180679.65124315
1.9698586463928223	36667347.76746254
1.9732913970947266	36011854.21114966
1.9767193794250488	36588792.838438265
1.9801424741744995	37986318.13372317
1.9835609197616577	39857213.1328736
1.9869745969772339	40177009.25726994
1.990383505821228	38731208.28618382
1.9937876462936401	40355653.228600845
1.9971871376037598	42213630.403905116
2.000581979751587	41640706.666986115
2.003972291946411	42400322.554064415
2.007357597351074	44093780.38891533
2.0107386112213135	45521380.91052975
2.0141148567199707	46196086.485949494
2.017486572265625	46203891.58699261
2.0208535194396973	47015757.142610654
2.0242159366607666	47461716.98839649
2.027573823928833	46406102.20894808
2.0309269428253174	46010883.86795415
2.034275770187378	46964207.50017981
2.0376198291778564	47527206.310507216
2.040959596633911	47505681.4466917
2.044294595718384	48024859.360119276
2.0476250648498535	48708387.64709139
2.0509510040283203	49041922.9972416
2.054272413253784	49415098.73775797
2.057589530944824	49748912.603432134
2.0609018802642822	49826727.397199504
2.0642096996307373	49858125.12886216
2.0675129890441895	50156429.57007875
2.0708119869232178	50503983.73268555
2.074106216430664	50713636.84355546
2.0773961544036865	50595838.58893084
2.080681324005127	50212000.603817314
2.0839622020721436	50196188.37645951
2.087238311767578	50532097.97657883
2.090510129928589	50855977.57131905
2.0937774181365967	51087781.596329786
2.0970399379730225	51148042.332143284
2.1002981662750244	51179767.436513126
2.1035518646240234	51274353.52101029
2.1068007946014404	51324960.016109005
2.1100454330444336	51233218.089018576
2.1132853031158447	51148572.01415205
2.116520881652832	51221556.74992394
2.1197516918182373	51363946.02584606
2.1229779720306396	51411263.86820818
2.12619948387146	51386038.582658775
2.1294167041778564	51424772.22051743
2.132629156112671	51493849.46510219
2.1358368396759033	51511504.780126
2.139039993286133	51478790.93901943
2.1422386169433594	51448647.52664591
2.145432472229004	51384550.991693534
2.1486217975616455	51291411.26332811
2.151806354522705	51268208.46710432
2.1549863815307617	51232289.612251595
2.1581614017486572	51255977.667014085
2.16133189201355	51342888.21718627
2.1644976139068604	51346776.72959773
2.167658567428589	51324191.76733604
2.1708147525787354	51267829.38623177
2.173966407775879	51189734.344660416
2.1771130561828613	51191126.68387189
2.1802549362182617	51218031.02742717
2.183391809463501	51133586.89908726
2.1865241527557373	51044393.07844921
2.1896514892578125	51058060.402810834
2.1927738189697266	51033146.25143335
2.1958916187286377	50780332.452812895
2.1990041732788086	50235503.30045
2.2021119594573975	49897060.04003716
2.2052149772644043	50178699.929525115
2.208312749862671	50634587.88281508
2.2114057540893555	50808056.30702386
2.214493751525879	50655903.12253399
2.217576742172241	49899089.871534124
2.2206547260284424	48721719.95924851
2.2237277030944824	48272340.07690914
2.2267956733703613	48308162.66232279
2.2298583984375	48203131.95658622
2.2329163551330566	48198652.821573876
2.235969066619873	48110344.49371257
2.2390167713165283	48258421.85726663
2.2420592308044434	48175328.95194359
2.2450966835021973	47380981.82500277
2.248128890991211	47190193.51993386
2.2511560916900635	47322431.747490935
2.254178285598755	46755759.31557973
2.257194995880127	46974978.08756656
2.260206699371338	48217101.857374094
2.2632133960723877	48533977.874873295
2.266214609146118	47947844.63037135
2.2692108154296875	47680973.005787484
2.2722020149230957	48059656.30389361
2.2751877307891846	48303657.00676417
2.278168201446533	47811861.90801536
2.2811436653137207	47148458.28038007
2.284113883972168	46497827.4613386
2.287078857421875	45848483.34825949
2.290038824081421	45530545.182377286
2.2929933071136475	44875160.23300583
2.295942783355713	44506789.309854746
2.298887014389038	45562048.30697448
2.301826238632202	46591428.02479869
2.304760217666626	46933948.602809064
2.3076889514923096	47463226.72611621
2.310612440109253	48110015.2729731
2.3135311603546143	47564207.55196204
2.3164443969726562	45107695.86106223
2.319352865219116	43518259.49239093
2.322256088256836	44468755.40858066
2.3251543045043945	45739044.47473099
2.328047275543213	46257683.56233505
2.330935478210449	46176190.71731473
2.3338186740875244	45326424.42120822
2.3366971015930176	43703408.93847938
2.3395702838897705	42756639.541188836
2.3424389362335205	43228153.26262653
2.3453025817871094	43091918.55908177
2.348161458969116	42001482.100410074
2.351015567779541	41136668.649780355
2.353865146636963	42013543.6976449
2.3567099571228027	44367875.86077161
2.3595502376556396	45598357.28064571
2.3623859882354736	45993217.30549303
2.3652172088623047	46168463.088015325
2.368043899536133	43852761.449852
2.370866537094116	40022256.86966216
2.3736846446990967	39270875.90686907
2.3764986991882324	40460460.48273396
2.3793084621429443	41371233.20580147
2.3821144104003906	42752300.63397381
2.384916305541992	43458940.450757824
2.387714147567749	43727650.2129027
2.3905084133148193	43902706.52912686
2.393299102783203	42697756.951335855
2.3960859775543213	41376941.94243527
2.398869514465332	41620684.69113513
2.4016497135162354	42049379.06163222
2.4044265747070312	42124108.24641496
2.407200336456299	43043909.279576406
2.409970998764038	43559633.51324393
2.4127390384674072	43269852.426652506
2.415503978729248	42312128.16214475
2.418266534805298	40907922.014378995
2.4210267066955566	41745501.12569689
2.4237842559814453	43587889.18051471
2.426539897918701	43727592.32013039
2.429293394088745	43942289.04706801
2.4320452213287354	43470737.12977184
2.4347951412200928	39521944.258986644
2.4375438690185547	37754888.279007085
2.440291166305542	40318790.88866017
2.443037271499634	40323869.35130171
2.445782423019409	39501153.80023708
2.4485268592834473	40810910.25617629
2.451270818710327	38391867.79147835
2.454014539718628	35682766.42656132
2.4567582607269287	37867403.23523845
2.4595019817352295	37778933.528921805
2.4622461795806885	36929040.439247645
2.4649908542633057	36404234.33070109
2.4677364826202393	31500343.083269704
2.4704833030700684	28443191.181033187
2.473231554031372	27479232.225672446
2.4759814739227295	27226164.42726233
2.4787333011627197	28935440.24752024
2.481487512588501	29116336.46506355
