#wavelength	surface flux
0.6450077295303345	25.88560020338794
0.6472567915916443	39.69402415772674
0.6494921445846558	49.34979256157298
0.6517150402069092	53.629632774982525
0.6539263725280762	57.85680098408825
0.6561272740364075	62.36421397620253
0.6583186388015747	67.17576239504872
0.6605015397071838	72.29894999347546
0.6626768708229065	77.73393233721393
0.6648455858230591	83.51782591148294
0.6670085787773132	89.68369361243015
0.6691668033599854	96.2387564400867
0.6713210344314575	103.20154006985824
0.6734722256660461	110.60554374734332
0.6756211519241333	118.47614367532104
0.6777685880661011	126.83733005931593
0.6799154281616211	135.71780819237176
0.6820623278617859	145.1507292132982
0.6842101216316223	155.17250674554523
0.6863595843315125	165.8151226319833
0.688511312007904	177.093717890935
0.6906660795211792	188.94393391898788
0.6928245425224304	201.48375719552564
0.6949873566627502	215.0758894150893
0.6971551775932312	229.59741348143297
0.6993286609649658	244.82410430646988
0.7015084028244019	261.0287779049199
0.7036949396133423	278.32919537710467
0.7058889269828796	296.5992674225195
0.7080909013748169	315.8225179561929
0.710301399230957	336.3107479197968
0.712520956993103	358.12311068739143
0.7147500514984131	380.4776656770616
0.7169892191886902	403.78189872874316
0.7192389369010925	430.2471785478134
0.7214996814727783	459.10863823859387
0.723771870136261	488.89727005816894
0.7260559797286987	520.3197514491224
0.7283523678779602	553.1713962917574
0.7306615710258484	587.9519994698151
0.7329838871955872	625.5907409579402
0.7353196740150452	665.3795045276539
0.7376693487167358	708.2155003859166
0.7400332689285278	754.3713265160778
0.7424117922782898	802.7355404911902
0.7448052167892456	854.1127919389472
0.7472138404846191	908.8257719268881
0.7496379613876343	966.8402381503811
0.7520779371261597	1028.3367891591843
0.7545340061187744	1093.4639532966485
0.7570064663887024	1162.301116002383
0.7594954967498779	1234.3148597931183
0.7620013952255249	1302.5459919193834
0.7645244002342224	1345.6594954482532
0.7670646905899048	1380.2992559877332
0.7696225643157959	1464.998822405108
0.7721980810165405	1610.0850458822015
0.7747915983200073	1763.2261112790522
0.7774031162261963	1889.8062925288118
0.7800329327583313	2006.5917347617287
0.7826811671257019	2135.5529022606715
0.7853479981422424	2274.9155975313497
0.7880334854125977	2417.9422340418932
0.7907378077507019	2566.8135222396886
0.7934610247612	2720.3776790902716
0.7962033748626709	2888.2660480329073
0.7989648580551147	3076.4242480316825
0.801745593547821	3273.3831222187287
0.8045456409454346	3477.6249090142587
0.8073651194572449	3689.5859499016933
0.8102040886878967	3904.088228931641
0.8130625486373901	4131.499189551268
0.8159406185150146	4386.508595381922
0.8188382983207703	4663.111900827154
0.8217556476593018	4949.182395557499
0.8246926665306091	5255.249010580459
0.8276493549346924	5591.8287316180595
0.8306257724761963	5945.72459506829
0.8336219191551208	6317.125002999404
0.8366377949714661	6709.2463281889195
0.8396733403205872	7120.9502355295635
0.8427285552024841	7557.342442692877
0.8458034992218018	8015.473957745366
0.8488980531692505	8505.034082678036
0.8520121574401855	9030.16721968984
0.8551458716392517	9582.047676064742
0.8582990765571594	10158.578215566742
0.8614717125892639	10756.266951426367
0.8646637797355652	11391.551215524729
0.8678751587867737	12080.150343944224
0.8711057901382446	12807.468404814888
0.8743556141853333	13572.23933816263
0.87762451171875	14382.505694461099
0.8809124231338501	15233.311383787737
0.8842192888259888	16126.378499415372
0.8875449895858765	17045.38003124458
0.8908893465995789	17947.92660458974
0.894252359867096	18810.268504514526
0.8976338505744934	19699.91173654612
0.9010337591171265	20911.88506747965
0.9044519662857056	22408.11048847853
0.9078882932662964	23813.83877043763
0.9113426208496094	25133.16903518489
0.914814829826355	26460.464950648406
0.9183048605918884	27861.847907844814
0.9218124747276306	29346.501849082262
0.925337553024292	30338.131949266135
0.9288799166679382	30337.346205711572
0.9324395060539246	29789.16372288871
0.9360161423683167	30854.561855893895
0.9396095871925354	34989.73610597513
0.943219780921936	38852.92337030913
0.9468464851379395	40016.63396017779
0.9504896402359009	41331.38861571916
0.9541489481925964	44143.34851234485
0.9578243494033813	46909.39929337563
0.9615156054496765	49647.216883907655
0.9652225375175476	53390.55777132538
0.9689450263977051	57414.11229324859
0.9726828336715698	60659.043846829234
0.9764357805252075	63854.51505810235
0.9802037477493286	67647.73777346572
0.983986496925354	71646.05279776333
0.9877838492393494	75545.85704749421
0.9915955662727356	79653.003118654
0.9954215884208679	84045.24379810052
0.9992615580558777	88440.05020359729
1.0031154155731201	92832.50985175489
1.0069829225540161	97348.60870956788
1.0108637809753418	102051.00043076502
1.0147579908370972	106945.958930015
1.018665075302124	112028.5773119682
1.022585153579712	117293.41549608768
1.0265177488327026	122755.27944702272
1.0304628610610962	128414.33436651916
1.0344202518463135	134290.4791483905
1.0383895635604858	140401.76781847715
1.0423706769943237	146734.84977727506
1.0463634729385376	153288.30424270537
1.0503677129745483	160082.46585195183
1.0543830394744873	167114.24212713455
1.058409333229065	174399.32103950647
1.0624464750289917	182110.4729885339
1.0664942264556885	190138.99142469553
1.0705522298812866	198316.45409100028
1.0746204853057861	206737.04775513473
1.0786986351013184	215425.90777519104
1.0827864408493042	224425.97431732074
1.086883783340454	233340.78660965728
1.0909905433654785	241503.74861322524
1.0951062440872192	247902.04741663949
1.0992310047149658	252274.46379850814
1.10336434841156	258511.00584989137
1.1075061559677124	268550.2693551981
1.1116561889648438	272623.13823097484
1.115814208984375	264797.03499697335
1.1199802160263062	259799.24100579237
1.124153733253479	270731.6752508698
1.1283347606658936	295227.7562603192
1.1325229406356812	314716.03760880284
1.1367181539535522	328833.1811742122
1.1409201622009277	345651.5140670064
1.145128846168518	352546.43615929084
1.1493438482284546	359450.86169539246
1.1535650491714478	377650.9140719849
1.1577922105789185	395754.3340541844
1.1620250940322876	410944.7639445365
1.1662636995315552	428969.04413259623
1.170507550239563	447821.35786893574
1.174756646156311	470807.0183161885
1.1790107488632202	499076.2384628079
1.1832695007324219	524064.0805746831
1.1875330209732056	548453.7423189471
1.191800832748413	573831.68477218
1.1960728168487549	594123.506333567
1.2003488540649414	613569.5434471079
1.2046287059783936	637470.8674114832
1.2089121341705322	660622.3582111413
1.2131990194320679	680930.9104058498
1.2174891233444214	703523.7574081015
1.2217823266983032	728121.9034418055
1.2260783910751343	751606.197455714
1.230377197265625	775378.6316876066
1.2346785068511963	800913.7044018747
1.238982081413269	827057.3551928768
1.2432878017425537	852763.3837984059
1.2475954294204712	878314.7525725918
1.2519049644470215	903722.9951590513
1.256216049194336	930245.3464495039
1.2605286836624146	958301.9475562123
1.2648425102233887	986074.7154820863
1.2691574096679688	1012826.1821133646
1.2734732627868652	1040166.5205095856
1.2777899503707886	1068492.6412719968
1.2821072340011597	1095897.59047556
1.2864248752593994	1123325.1321358904
1.2907428741455078	1146578.5442465858
1.2950609922409058	1166445.386195617
1.2993791103363037	1197980.8322699908
1.303696870803833	1238475.2934800365
1.3080145120620728	1274140.9319435242
1.3123314380645752	1301391.0030587167
1.3166478872299194	1322451.1319162922
1.3209635019302368	1339242.739935028
1.3252781629562378	1359795.2145731421
1.3295916318893433	1358770.9289441954
1.3339040279388428	1268493.6900025636
1.3382149934768677	1127784.4044887405
1.3425244092941284	1052709.2616127024
1.3468321561813354	1002012.2597856292
1.3511382341384888	899983.4273165087
1.3554422855377197	833730.8880955839
1.3597444295883179	824695.5273302309
1.3640443086624146	823831.9078752778
1.3683418035507202	878611.512942787
1.3726370334625244	985481.6104203591
1.3769296407699585	1110134.5686036327
1.381219506263733	1194384.1857610873
1.3855066299438477	1190605.9603193826
1.3897908926010132	1159064.905363931
1.3940720558166504	1130546.202190822
1.3983501195907593	1130053.892401084
1.4026249647140503	1150001.8611795644
1.4068963527679443	1182907.9305814835
1.4111642837524414	1264413.8092481715
1.4154287576675415	1267955.9267849815
1.419689416885376	1162972.6204549267
1.4239463806152344	1118086.3085856107
1.4281994104385376	1203285.358330874
1.4324485063552856	1353477.970200961
1.436693549156189	1427556.9365725694
1.440934419631958	1473237.1339167294
1.4451709985733032	1589064.8478500417
1.449403166770935	1725182.9027100706
1.453631043434143	1890610.6350408855
1.4578542709350586	2077491.1583662727
1.4620729684829712	2109002.0847730823
1.4662868976593018	2045359.66927816
1.4704961776733398	2097693.758970604
1.4747005701065063	2209414.207355181
1.4788999557495117	2332427.7092135823
1.4830944538116455	2439112.2429642263
1.4872838258743286	2495611.5444369214
1.491468071937561	2547612.1680077123
1.4956470727920532	2621728.960833535
1.4998208284378052	2699069.7859048513
1.5039892196655273	2831188.1226517777
1.5081522464752197	2995806.690328356
1.5123097896575928	3118367.1927004918
1.5164618492126465	3227614.839528173
1.5206083059310913	3334179.001189886
1.5247491598129272	3408173.100964201
1.5288842916488647	3448738.8906454286
1.5330137014389038	3540165.5003872984
1.5371372699737549	3681760.2298016353
1.541254997253418	3788642.992951004
1.545366883277893	3863514.4011853104
1.5494728088378906	3935818.3497833307
1.5535727739334106	4005135.774795483
1.5576666593551636	4073073.7042555013
1.561754584312439	4142531.0151723064
1.5658363103866577	4215589.84171928
1.5699119567871094	4283394.352046878
1.5739814043045044	4349854.969502285
1.5780447721481323	4426255.681556988
1.582101821899414	4498566.60759644
1.5861525535583496	4563336.749519099
1.5901970863342285	4628517.99844414
1.5942351818084717	4695040.017789928
1.5982669591903687	4761094.228773056
1.6022924184799194	4825441.129557193
1.606311559677124	4889201.367011528
1.6103241443634033	4952531.40077371
1.6143304109573364	5014901.542620443
1.6183301210403442	5046153.066408961
1.6223233938217163	4972374.65936586
1.6263102293014526	4841299.121934904
1.6302905082702637	4756520.375425609
1.634264349937439	4798850.542993088
1.638231635093689	5065084.10607027
1.6421923637390137	5318177.948932353
1.646146535873413	5361902.138472493
1.6500942707061768	5367741.725782352
1.6540353298187256	5371082.667227229
1.6579699516296387	5397593.755067297
1.661897897720337	5366825.72214466
1.6658192873001099	5050190.055059816
1.6697341203689575	5053297.62428564
1.6736423969268799	5500346.140001059
1.677544116973877	5650470.728223607
1.6814392805099487	5638347.01676514
1.6853278875350952	5744402.819827403
1.6892099380493164	5782742.965832771
1.6930854320526123	5718142.767601294
1.696954369544983	5592227.618642999
1.7008168697357178	5387312.993154912
1.7046726942062378	5342072.655885692
1.708522081375122	5678171.724507358
1.712364912033081	6133810.285517024
1.7162011861801147	6361710.608523338
1.7200311422348022	6350467.99404649
1.723854422569275	6103075.360778197
1.7276713848114014	5771101.959811296
1.731481909751892	5691132.819567586
1.7352858781814575	5873495.4795595165
1.7390835285186768	6061289.854748173
1.7428747415542603	6130899.0563074425
1.7466596364974976	6214478.979604393
1.7504380941390991	6269266.6436314285
1.7542102336883545	6164246.017414881
1.7579760551452637	6032484.110810307
1.7617355585098267	5993317.803076263
1.7654887437820435	5925809.121504239
1.7692357301712036	5764121.3608222585
1.7729763984680176	5655869.985033389
1.776710867881775	5615761.4472434325
1.7804391384124756	5539928.363767641
1.7841613292694092	5385360.305983685
1.7878772020339966	5118894.264618078
1.7915871143341064	4785466.375515148
1.7952908277511597	4785201.235915155
1.7989884614944458	4931941.23221314
1.8026801347732544	4871767.408110486
1.806365728378296	4682329.153290764
1.8100452423095703	4511167.234872717
1.8137187957763672	4784489.639760368
1.817386507987976	5045665.069649004
1.8210482597351074	5097309.090071191
1.8247040510177612	5420674.511004229
1.828354001045227	5467973.06616304
1.8319982290267944	5279838.735619012
1.8356364965438843	5202790.944018631
1.8392690420150757	5011441.417624877
1.8428958654403687	4883862.732451038
1.8465168476104736	4647546.903681886
1.8501322269439697	4668664.726093173
1.8537418842315674	4880971.763359267
1.8573459386825562	4624615.812923283
1.860944390296936	4243431.372537773
1.864537239074707	4027198.20129778
1.8681244850158691	4019406.077342792
1.871706247329712	4203732.464730127
1.8752825260162354	4699391.50608757
1.8788533210754395	5350940.107627938
1.8824186325073242	5732596.393428193
1.8859784603118896	6037041.297621606
1.8895330429077148	6418869.106855081
1.8930821418762207	6602883.835662035
1.8966259956359863	6598191.171273577
1.9001644849777222	6511078.754959066
1.9036977291107178	6627741.001033853
1.9072256088256836	6919093.401105141
1.9107483625411987	6767389.410348624
1.9142658710479736	6584090.343003096
1.9177782535552979	6817071.822064097
1.9212853908538818	6694233.446507535
1.9247875213623047	6511098.36917465
1.9282845258712769	6457653.49512428
1.9317764043807983	6088953.906304376
1.9352631568908691	5774625.87620325
1.9387450218200684	5344874.642679796
1.942221760749817	5200223.508199802
1.9456936120986938	5510777.475872912
1.9491604566574097	5793452.245708634
1.952622413635254	5781027.6657535415
1.956079363822937	5201097.220496477
1.959531545639038	5076340.188108957
1.962978720664978	6052319.679187879
1.966421127319336	7071211.7313099895
1.9698586463928223	7296039.426945435
1.9732913970947266	7264078.621305107
1.9767193794250488	7498147.18551703
1.9801424741744995	7917055.768497144
1.9835609197616577	8401331.272924671
1.9869745969772339	8441871.640918717
1.990383505821228	8112992.653206801
1.9937876462936401	8319858.358787589
1.9971871376037598	8546165.59637574
2.000581979751587	8399633.917576281
2.003972291946411	8653096.303239817
2.007357597351074	9300582.743330764
2.0107386112213135	9965646.165038316
2.0141148567199707	10170034.457185175
2.017486572265625	10055962.837814726
2.0208535194396973	10457610.270725539
2.0242159366607666	10905882.282944286
2.027573823928833	10650827.979035735
2.0309269428253174	10476910.26205319
2.034275770187378	10833286.874326363
2.0376198291778564	11070557.948591111
2.040959596633911	11115313.045724181
2.044294595718384	11498708.059544915
2.0476250648498535	11848169.787700268
2.0509510040283203	11915665.188793778
2.054272413253784	12096194.161088783
2.057589530944824	12313156.580171933
2.0609018802642822	12419173.072293615
2.0642096996307373	12458243.752693892
2.0675129890441895	12532480.1727527
2.0708119869232178	12662934.623247217
2.074106216430664	12833842.710914029
2.0773961544036865	12891581.54830746
2.080681324005127	12814910.485232893
2.0839622020721436	12842667.04713543
2.087238311767578	12973558.756096695
2.090510129928589	13165034.675587138
2.0937774181365967	13378412.594863938
2.0970399379730225	13468192.04569856
2.1002981662750244	13492070.3808995
2.1035518646240234	13565920.191080125
2.1068007946014404	13652340.542994697
2.1100454330444336	13649845.502188265
2.1132853031158447	13619309.85675224
2.116520881652832	13685206.905791137
2.1197516918182373	13835586.186536925
2.1229779720306396	13943167.241038099
2.12619948387146	13977859.158264492
2.1294167041778564	14058029.24825875
2.132629156112671	14172153.65443535
2.1358368396759033	14237606.690635372
2.139039993286133	14263662.074299436
2.1422386169433594	14289546.371538827
2.145432472229004	14279849.744092373
2.1486217975616455	14219439.856001014
2.151806354522705	14172312.489599347
2.1549863815307617	14143633.211774297
2.1581614017486572	14234050.68828612
2.16133189201355	14376101.407441013
2.1644976139068604	14494128.708367776
2.167658567428589	14611599.396956174
2.1708147525787354	14623191.480456345
2.173966407775879	14593940.61815974
2.1771130561828613	14682536.379685206
2.1802549362182617	14809763.387158198
2.183391809463501	14810176.163741732
2.1865241527557373	14812767.50308779
2.1896514892578125	14902982.389639562
2.1927738189697266	14943639.822559714
2.1958916187286377	14475941.38672677
2.1990041732788086	13240491.336777842
2.2021119594573975	12530318.700885944
2.2052149772644043	13328037.388811119
2.208312749862671	14579437.363509897
2.2114057540893555	15185167.598595753
2.214493751525879	15086235.077585202
2.217576742172241	14191311.683933044
2.2206547260284424	12687672.957905877
2.2237277030944824	11892852.517495371
2.2267956733703613	11867542.461326547
2.2298583984375	11849308.239635056
2.2329163551330566	12075565.619573833
2.235969066619873	12555868.474349959
2.2390167713165283	13003321.739560403
2.2420592308044434	12506630.376668949
2.2450966835021973	11232181.811664304
2.248128890991211	10920929.074714676
2.2511560916900635	11305742.53688657
2.254178285598755	11444078.889380386
2.257194995880127	12066160.653424365
2.260206699371338	13132571.91267867
2.2632133960723877	13478384.072070496
2.266214609146118	12883759.688998193
2.2692108154296875	12446559.533120994
2.2722020149230957	12786314.990178153
2.2751877307891846	12820570.097370693
2.278168201446533	12384128.831898713
2.2811436653137207	12029893.197557738
2.284113883972168	11458424.912893793
2.287078857421875	10789210.552377287
2.290038824081421	10285937.152855465
2.2929933071136475	9779817.255867897
2.295942783355713	9491263.274871442
2.298887014389038	9974250.43269842
2.301826238632202	10962284.298765954
2.304760217666626	11762230.30625831
2.3076889514923096	12532168.120112468
2.310612440109253	13674056.144641908
2.3135311603546143	13551056.850152364
2.3164443969726562	10608416.88045702
2.319352865219116	8658321.975007446
2.322256088256836	9928390.174123907
2.3251543045043945	11344892.24651477
2.328047275543213	11995489.977843832
2.330935478210449	12008969.484429047
2.3338186740875244	11379934.291444473
2.3366971015930176	10246412.035238074
2.3395702838897705	9056824.713132907
2.3424389362335205	8932531.533290334
2.3453025817871094	9073462.508732378
2.348161458969116	9031979.63534124
2.351015567779541	9052812.639888847
2.353865146636963	9828031.471035639
2.3567099571228027	11622155.63861119
2.3595502376556396	12938546.735333405
2.3623859882354736	13505066.35008446
2.3652172088623047	13603792.618231028
2.368043899536133	11696487.483583841
2.370866537094116	8425308.526131928
2.3736846446990967	7404836.932437361
2.3764986991882324	8598494.83455152
2.3793084621429443	10351346.796535414
2.3821144104003906	11497802.263868345
2.384916305541992	11553500.368605768
2.387714147567749	12175672.961216023
2.3905084133148193	13003094.617679702
2.393299102783203	12286004.629360598
2.3960859775543213	10941259.037049068
2.398869514465332	10133384.97866176
2.4016497135162354	9335990.845199833
2.4044265747070312	8895896.353086593
2.407200336456299	9647086.088291079
2.409970998764038	10617141.03489307
2.4127390384674072	11113864.471394222
2.415503978729248	10761331.681027368
2.418266534805298	9453677.53747123
2.4210267066955566	8794013.207544295
2.4237842559814453	8907489.691490805
2.426539897918701	8893535.526103877
2.429293394088745	9802434.311971156
2.4320452213287354	10748171.57129193
2.4347951412200928	9391422.680767154
2.4375438690185547	8817091.676598737
2.440291166305542	10236601.09499491
2.443037271499634	10187367.699087838
2.445782423019409	9553065.607741913
2.4485268592834473	9844482.98113212
2.451270818710327	9362207.431652807
2.454014539718628	8917583.640313108
2.4567582607269287	9838796.336375237
2.4595019817352295	10204013.667633334
2.4622461795806885	10382332.132114729
2.4649908542633057	10734314.975561926
2.4677364826202393	9384381.737114917
2.4704833030700684	7982201.915758364
2.473231554031372	7680724.122879294
2.4759814739227295	8050275.697753134
2.4787333011627197	8622641.531363882
2.481487512588501	8583841.45502413
