#wavelength	surface flux
0.6450077295303345	1486.5595289512353
0.6472567915916443	2246.9055739572414
0.6494921445846558	2723.4765329135935
0.6517150402069092	2876.226478640358
0.6539263725280762	3018.443354321427
0.6561272740364075	3161.0173236623828
0.6583186388015747	3312.6462760865343
0.6605015397071838	3481.394315295667
0.6626768708229065	3653.4453119084055
0.6648455858230591	3824.543158832912
0.6670085787773132	3994.6910762021585
0.6691668033599854	4133.77076388153
0.6713210344314575	4282.059215777757
0.6734722256660461	4516.698198206843
0.6756211519241333	4766.6014177112265
0.6777685880661011	4978.03974809334
0.6799154281616211	5188.190798942487
0.6820623278617859	5393.196954757152
0.6842101216316223	5588.002359109521
0.6863595843315125	5755.894132673697
0.688511312007904	5884.711164283729
0.6906660795211792	6067.999551835379
0.6928245425224304	6371.665678184235
0.6949873566627502	6719.889213252301
0.6971551775932312	7034.614861524486
0.6993286609649658	7356.840906926183
0.7015084028244019	7771.323205182695
0.7036949396133423	8220.776151005459
0.7058889269828796	8624.202890879837
0.7080909013748169	9001.29371473188
0.710301399230957	9382.887672961248
0.712520956993103	9778.598793255249
0.7147500514984131	10185.54467301357
0.7169892191886902	10611.186470175324
0.7192389369010925	11064.353226884168
0.7214996814727783	11536.999547551075
0.723771870136261	12024.902285469023
0.7260559797286987	12531.449537638415
0.7283523678779602	13054.687500473407
0.7306615710258484	13573.756561180626
0.7329838871955872	13981.751723150837
0.7353196740150452	14299.208363743712
0.7376693487167358	14696.052505091886
0.7400332689285278	15132.617306110977
0.7424117922782898	15595.189866524835
0.7448052167892456	16183.78127755015
0.7472138404846191	16985.53347847497
0.7496379613876343	17958.436245561556
0.7520779371261597	18936.455341947963
0.7545340061187744	19933.817822417062
0.7570064663887024	20939.15899194493
0.7594954967498779	21865.961810946512
0.7620013952255249	22328.112676213863
0.7645244002342224	21060.325049382536
0.7670646905899048	19052.139643778355
0.7696225643157959	19726.592344299894
0.7721980810165405	23505.87829272851
0.7747915983200073	27311.215493379088
0.7774031162261963	29295.670996505138
0.7800329327583313	30421.210676710332
0.7826811671257019	31826.459538501273
0.7853479981422424	33406.67537302807
0.7880334854125977	34835.478527678526
0.7907378077507019	36128.24528039144
0.7934610247612	37198.69959081363
0.7962033748626709	38564.886274133205
0.7989648580551147	40455.20747501728
0.801745593547821	42354.551729098304
0.8045456409454346	44227.88142907426
0.8073651194572449	46226.73470483472
0.8102040886878967	48311.95923565401
0.8130625486373901	50445.93861476291
0.8159406185150146	52635.365963943914
0.8188382983207703	54887.65279274222
0.8217556476593018	57198.26260344274
0.8246926665306091	59597.61720763174
0.8276493549346924	62112.299868686794
0.8306257724761963	64731.15532239576
0.8336219191551208	67449.95372581351
0.8366377949714661	70270.14415502653
0.8396733403205872	73196.23346711897
0.8427285552024841	76239.32382035296
0.8458034992218018	79397.52732029441
0.8488980531692505	82657.57508007898
0.8520121574401855	85911.16705923245
0.8551458716392517	89207.51927015076
0.8582990765571594	92663.71670170846
0.8614717125892639	96264.75388313102
0.8646637797355652	100041.08422869831
0.8678751587867737	104097.13870819249
0.8711057901382446	108597.51183503839
0.8743556141853333	113419.11327132555
0.87762451171875	118360.83709557731
0.8809124231338501	123407.40533514589
0.8842192888259888	128566.80201124215
0.8875449895858765	133852.1106233261
0.8908893465995789	139199.06009907988
0.894252359867096	144633.40959730535
0.8976338505744934	150288.8343654601
0.9010337591171265	156416.8838893762
0.9044519662857056	162956.13084334906
0.9078882932662964	169569.24066036014
0.9113426208496094	176278.4784140296
0.914814829826355	183152.7070111119
0.9183048605918884	190258.8225925013
0.9218124747276306	197580.2482034184
0.925337553024292	204364.18690043825
0.9288799166679382	210154.2934070839
0.9324395060539246	215494.09698739593
0.9360161423683167	222808.58990848565
0.9396095871925354	234437.84647232422
0.943219780921936	246362.688733775
0.9468464851379395	254992.18136318302
0.9504896402359009	263675.7269770096
0.9541489481925964	273983.0499486361
0.9578243494033813	284404.95523848577
0.9615156054496765	295274.43165084015
0.9652225375175476	307739.80247083306
0.9689450263977051	320682.62859379814
0.9726828336715698	332836.0795053212
0.9764357805252075	345175.7130238785
0.9802037477493286	358216.2343019459
0.983986496925354	371496.8887956816
0.9877838492393494	384947.5203434081
0.9915955662727356	399009.7521975444
0.9954215884208679	413640.5956923345
0.9992615580558777	428437.7415074289
1.0031154155731201	443484.95752977976
1.0069829225540161	459071.12951171596
1.0108637809753418	475214.03271980694
1.0147579908370972	491834.6006829994
1.018665075302124	508921.98712277267
1.022585153579712	526473.1662586072
1.0265177488327026	544503.7430709968
1.0304628610610962	563012.4862637735
1.0344202518463135	582033.5645165113
1.0383895635604858	601583.1303307861
1.0423706769943237	621617.3664751064
1.0463634729385376	642075.2780037047
1.0503677129745483	663013.5639311144
1.0543830394744873	684578.2707377737
1.058409333229065	706963.916060348
1.0624464750289917	730527.3325118506
1.0664942264556885	754827.2007996902
1.0705522298812866	779219.3223580562
1.0746204853057861	803930.0640846316
1.0786986351013184	829194.6757990913
1.0827864408493042	855047.3571596576
1.086883783340454	881260.5099549862
1.0909905433654785	907346.2139417487
1.0951062440872192	932269.6918492038
1.0992310047149658	956222.790206213
1.10336434841156	983505.7692117966
1.1075061559677124	1014605.9928154324
1.1116561889648438	1038305.3900497704
1.115814208984375	1050251.6251443496
1.1199802160263062	1062817.2680595445
1.124153733253479	1091504.0054818413
1.1283347606658936	1139579.2561705532
1.1325229406356812	1183373.904386983
1.1367181539535522	1218402.6737053506
1.1409201622009277	1256856.889870173
1.145128846168518	1287316.8900837982
1.1493438482284546	1318333.7578913732
1.1535650491714478	1363687.1578096414
1.1577922105789185	1404954.0833624776
1.1620250940322876	1436673.3436422462
1.1662636995315552	1475657.1232305074
1.170507550239563	1518819.4950491125
1.174756646156311	1563364.3190505814
1.1790107488632202	1613535.9518863277
1.1832695007324219	1660683.923837245
1.1875330209732056	1706094.3745577605
1.191800832748413	1754185.5944145583
1.1960728168487549	1799996.1470392777
1.2003488540649414	1845001.513601715
1.2046287059783936	1892496.2226495
1.2089121341705322	1940157.3249794915
1.2131990194320679	1987294.9860906187
1.2174891233444214	2035750.567308462
1.2217823266983032	2085357.0707232815
1.2260783910751343	2135285.598666996
1.230377197265625	2186029.245526902
1.2346785068511963	2237939.6856323695
1.238982081413269	2290543.095065885
1.2432878017425537	2343484.656000712
1.2475954294204712	2396745.371448988
1.2519049644470215	2450282.137238795
1.256216049194336	2504966.4126762887
1.2605286836624146	2561080.63657073
1.2648425102233887	2617530.3928543334
1.2691574096679688	2674018.408868752
1.2734732627868652	2731439.2943451446
1.2777899503707886	2789820.786802904
1.2821072340011597	2848177.05943884
1.2864248752593994	2906784.0244952533
1.2907428741455078	2963801.885068235
1.2950609922409058	3019929.083883533
1.2993791103363037	3082765.2765169544
1.303696870803833	3150400.920874147
1.3080145120620728	3215191.2253928026
1.3123314380645752	3276949.135372954
1.3166478872299194	3336401.596705695
1.3209635019302368	3391475.6114410986
1.3252781629562378	3450361.942507222
1.3295916318893433	3500143.5240742997
1.3339040279388428	3486518.8870786545
1.3382149934768677	3424598.987793474
1.3425244092941284	3366956.8481949023
1.3468321561813354	3331003.4088682006
1.3511382341384888	3275900.47316245
1.3554422855377197	3240344.9092446365
1.3597444295883179	3319356.4313236694
1.3640443086624146	3434804.768858673
1.3683418035507202	3553045.087371373
1.3726370334625244	3711448.178825129
1.3769296407699585	3895922.781337973
1.381219506263733	4020515.678190466
1.3855066299438477	3997457.234575312
1.3897908926010132	3931194.1799201807
1.3940720558166504	3946093.881172216
1.3983501195907593	4055274.388623652
1.4026249647140503	4148975.506557932
1.4068963527679443	4231965.235470159
1.4111642837524414	4331812.224220773
1.4154287576675415	4260601.52596139
1.419689416885376	4128565.401576965
1.4239463806152344	4156476.609991593
1.4281994104385376	4325898.195360313
1.4324485063552856	4628007.198239565
1.436693549156189	4841981.749595491
1.440934419631958	4909528.434971715
1.4451709985733032	5041277.467061017
1.449403166770935	5172286.860672309
1.453631043434143	5270858.120448938
1.4578542709350586	5424636.054250992
1.4620729684829712	5536126.774619138
1.4662868976593018	5580446.420283421
1.4704961776733398	5683966.848581658
1.4747005701065063	5819632.363966434
1.4788999557495117	5953763.201521936
1.4830944538116455	6063142.638070531
1.4872838258743286	6121928.675576475
1.491468071937561	6182940.220529015
1.4956470727920532	6276428.084698038
1.4998208284378052	6389668.461433162
1.5039892196655273	6544109.159011418
1.5081522464752197	6694912.877329478
1.5123097896575928	6804675.664841911
1.5164618492126465	6915699.278374662
1.5206083059310913	7026220.007016733
1.5247491598129272	7113733.20710577
1.5288842916488647	7182346.008401249
1.5330137014389038	7281081.916172986
1.5371372699737549	7410866.80368223
1.541254997253418	7527316.656527596
1.545366883277893	7625736.236656451
1.5494728088378906	7720666.687356128
1.5535727739334106	7813473.0683653485
1.5576666593551636	7899786.8170881765
1.561754584312439	7985907.08356266
1.5658363103866577	8084225.733403746
1.5699119567871094	8183851.294192064
1.5739814043045044	8278687.625558077
1.5780447721481323	8376293.6481648255
1.582101821899414	8473464.420567738
1.5861525535583496	8569738.084956612
1.5901970863342285	8665485.695068544
1.5942351818084717	8760038.440255795
1.5982669591903687	8853059.161914226
1.6022924184799194	8944772.563799035
1.606311559677124	9036448.552586988
1.6103241443634033	9129206.732398022
1.6143304109573364	9223725.047666498
1.6183301210403442	9317142.834165156
1.6223233938217163	9397362.324322367
1.6263102293014526	9463146.24019378
1.6302905082702637	9523265.706929892
1.634264349937439	9588056.900545811
1.638231635093689	9708374.482829595
1.6421923637390137	9851904.410371505
1.646146535873413	9957915.250809701
1.6500942707061768	10052110.32334538
1.6540353298187256	10138749.474814067
1.6579699516296387	10223112.834185636
1.661897897720337	10282104.17348627
1.6658192873001099	10294360.152270788
1.6697341203689575	10390574.966038274
1.6736423969268799	10560214.983978001
1.677544116973877	10665553.159230163
1.6814392805099487	10752334.113516524
1.6853278875350952	10861114.439414507
1.6892099380493164	10956738.90145558
1.6930854320526123	11033681.595724171
1.696954369544983	11111169.059411414
1.7008168697357178	11191791.18786615
1.7046726942062378	11278208.923686428
1.708522081375122	11390875.97798428
1.712364912033081	11514123.181850089
1.7162011861801147	11611604.84527141
1.7200311422348022	11683853.15333632
1.723854422569275	11724363.15882236
1.7276713848114014	11724133.267978027
1.731481909751892	11728719.252746992
1.7352858781814575	11786911.084350219
1.7390835285186768	11887732.345215177
1.7428747415542603	12007799.602196956
1.7466596364974976	12168194.724707374
1.7504380941390991	12263931.791234577
1.7542102336883545	12240094.501615774
1.7579760551452637	12291294.745127011
1.7617355585098267	12367811.714712868
1.7654887437820435	12250811.043024678
1.7692357301712036	12131617.45587395
1.7729763984680176	12203586.849636693
1.776710867881775	12331750.082541065
1.7804391384124756	12440852.187071873
1.7841613292694092	12479758.602635466
1.7878772020339966	12218788.813220246
1.7915871143341064	11872434.912708309
1.7952908277511597	11832957.497565014
1.7989884614944458	11722878.355166003
1.8026801347732544	11634135.084198933
1.806365728378296	11610822.712661957
1.8100452423095703	11631417.928999411
1.8137187957763672	12047930.139935309
1.817386507987976	12440845.84287393
1.8210482597351074	12758268.9167483
1.8247040510177612	12966853.34848599
1.828354001045227	12834060.2089914
1.8319982290267944	13026975.407379394
1.8356364965438843	13519882.125890536
1.8392690420150757	13466553.001998695
1.8428958654403687	13020902.525533805
1.8465168476104736	12726112.760768812
1.8501322269439697	12910567.88630064
1.8537418842315674	13010692.560270673
1.8573459386825562	12605866.645832468
1.860944390296936	12330149.495676434
1.864537239074707	12425473.586939117
1.8681244850158691	12555114.730555747
1.871706247329712	12578632.279261963
1.8752825260162354	12925064.184710346
1.8788533210754395	13642322.45029137
1.8824186325073242	13976005.29715054
1.8859784603118896	14078934.06582694
1.8895330429077148	14519002.922448102
1.8930821418762207	14841032.869231276
1.8966259956359863	14851178.324768908
1.9001644849777222	14635762.215417935
1.9036977291107178	14672460.820125392
1.9072256088256836	14956925.216864299
1.9107483625411987	14867193.942187823
1.9142658710479736	14955568.530116806
1.9177782535552979	14932432.208053598
1.9212853908538818	14322559.199610138
1.9247875213623047	14374894.15372507
1.9282845258712769	15066012.160196938
1.9317764043807983	15304895.10352214
1.9352631568908691	15146300.443544375
1.9387450218200684	14710879.4255562
1.942221760749817	14107185.775914257
1.9456936120986938	13763200.059058366
1.9491604566574097	14038724.00774495
1.952622413635254	14485900.072201222
1.956079363822937	14232845.731527774
1.959531545639038	14144690.594055362
1.962978720664978	15196559.409388524
1.966421127319336	16248997.448453039
1.9698586463928223	16438960.753579265
1.9732913970947266	16268920.466570696
1.9767193794250488	16291331.756545879
1.9801424741744995	16743268.614744691
1.9835609197616577	17095577.644855056
1.9869745969772339	16845778.627095345
1.990383505821228	16522855.014666963
1.9937876462936401	16858661.143974937
1.9971871376037598	17147081.93419408
2.000581979751587	16883579.835145257
2.003972291946411	16963339.27238883
2.007357597351074	17513774.171042785
2.0107386112213135	18004304.896885023
2.0141148567199707	18136754.034958977
2.017486572265625	18142744.324181024
2.0208535194396973	18372480.17829499
2.0242159366607666	18476283.643168934
2.027573823928833	18223159.286410566
2.0309269428253174	18136379.862214386
2.034275770187378	18450115.95652483
2.0376198291778564	18686633.55972436
2.040959596633911	18728701.66053302
2.044294595718384	18930881.469660085
2.0476250648498535	19170279.241786443
2.0509510040283203	19290828.252277452
2.054272413253784	19431559.90165522
2.057589530944824	19559551.159661923
2.0609018802642822	19638770.106205255
2.0642096996307373	19724047.776028153
2.0675129890441895	19843275.944207437
2.0708119869232178	19963379.419229627
2.074106216430664	20073012.44959972
2.0773961544036865	20122997.926296584
2.080681324005127	20112358.40399883
2.0839622020721436	20171846.617142383
2.087238311767578	20295909.1805577
2.090510129928589	20419906.34475408
2.0937774181365967	20540028.291251816
2.0970399379730225	20625898.137753684
2.1002981662750244	20696347.564381793
2.1035518646240234	20775992.801884282
2.1068007946014404	20848423.851817824
2.1100454330444336	20893162.126759455
2.1132853031158447	20939381.59606697
2.116520881652832	21023687.737077836
2.1197516918182373	21126192.833075486
2.1229779720306396	21206566.105408825
2.12619948387146	21268901.302669596
2.1294167041778564	21345014.791634496
2.132629156112671	21428536.379471622
2.1358368396759033	21500549.672139794
2.139039993286133	21561611.154221736
2.1422386169433594	21623121.15376451
2.145432472229004	21680743.092672266
2.1486217975616455	21734864.702199213
2.151806354522705	21799661.95934299
2.1549863815307617	21859545.630660646
2.1581614017486572	21930760.700052746
2.16133189201355	22014399.088033453
2.1644976139068604	22083027.649079107
2.167658567428589	22145727.376028873
2.1708147525787354	22199055.479096737
2.173966407775879	22250673.603564464
2.1771130561828613	22323416.38543741
2.1802549362182617	22398498.27153032
2.183391809463501	22448616.227163624
2.1865241527557373	22501979.58420199
2.1896514892578125	22577242.90166758
2.1927738189697266	22641974.538550436
2.1958916187286377	22665141.94673397
2.1990041732788086	22643675.583078496
2.2021119594573975	22661101.552791964
2.2052149772644043	22779310.21255805
2.208312749862671	22918866.521570377
2.2114057540893555	23010648.72086953
2.214493751525879	23048135.83891955
2.217576742172241	22965187.696809687
2.2206547260284424	22803714.033647772
2.2237277030944824	22796308.76311148
2.2267956733703613	22898285.552248538
2.2298583984375	22976066.62451079
2.2329163551330566	23041459.550587025
2.235969066619873	23071889.98436956
2.2390167713165283	23185459.270880483
2.2420592308044434	23262422.86433706
2.2450966835021973	23194109.738940928
2.248128890991211	23235834.824465167
2.2511560916900635	23286335.257188696
2.254178285598755	23163063.320006546
2.257194995880127	23232259.39931539
2.260206699371338	23577114.659321044
2.2632133960723877	23761579.037285082
2.266214609146118	23706769.418325964
2.2692108154296875	23646033.568386465
2.2722020149230957	23761887.22463429
2.2751877307891846	23913209.708594877
2.278168201446533	23876790.036291435
2.2811436653137207	23792756.843048535
2.284113883972168	23717641.21795944
2.287078857421875	23613721.03102294
2.290038824081421	23528820.13311928
2.2929933071136475	23043846.432255466
2.295942783355713	22591519.10547576
2.298887014389038	22849343.32323202
2.301826238632202	22867956.307940822
2.304760217666626	22421642.248755887
2.3076889514923096	22872780.735962585
2.310612440109253	23929000.370944265
2.3135311603546143	23974684.41870805
2.3164443969726562	23334977.177451447
2.319352865219116	22901781.79470724
2.322256088256836	22468791.461056944
2.3251543045043945	22229822.72852281
2.328047275543213	22677947.810073104
2.330935478210449	23311290.065405264
2.3338186740875244	23560886.446070936
2.3366971015930176	23306726.91242205
2.3395702838897705	23238357.502702273
2.3424389362335205	23543543.362762116
2.3453025817871094	23241470.84180108
2.348161458969116	22774508.38398486
2.351015567779541	22377422.877850477
2.353865146636963	22339088.178991575
2.3567099571228027	23107424.850922994
2.3595502376556396	23581132.44748199
2.3623859882354736	23760465.018339593
2.3652172088623047	23867499.7485376
2.368043899536133	23246882.77558485
2.370866537094116	22596658.109052166
2.3736846446990967	22838183.020788822
2.3764986991882324	23078031.44420972
2.3793084621429443	22834402.511104453
2.3821144104003906	23089374.84926532
2.384916305541992	23707349.76037097
2.387714147567749	24138057.99015962
2.3905084133148193	24016333.097577598
2.393299102783203	23345745.393627416
2.3960859775543213	23639785.535595555
2.398869514465332	24355829.67506585
2.4016497135162354	24016468.06322636
2.4044265747070312	23777601.93858107
2.407200336456299	24160364.186447013
2.409970998764038	24406467.019304622
2.4127390384674072	24351103.931914322
2.415503978729248	24197714.85317949
2.418266534805298	24265209.707919225
2.4210267066955566	24452084.00422498
2.4237842559814453	24499030.824832194
2.426539897918701	24421295.923564814
2.429293394088745	24338078.76154245
2.4320452213287354	23862899.63964276
2.4347951412200928	22525744.454669893
2.4375438690185547	22370636.380117416
2.440291166305542	23591857.577289645
2.443037271499634	23573418.390609987
2.445782423019409	23366093.67421832
2.4485268592834473	24115119.583178658
2.451270818710327	24069289.402227104
2.454014539718628	23350598.165491905
2.4567582607269287	23467821.714672334
2.4595019817352295	23603265.658979163
2.4622461795806885	23677873.023155324
2.4649908542633057	23528146.340769
2.4677364826202393	22328613.15929396
2.4704833030700684	21828948.86210672
2.473231554031372	21300234.153132454
2.4759814739227295	21292380.51750986
