#wavelength	surface flux
0.6450077295303345	12614.610967030021
0.6472567915916443	19093.41945244932
0.6494921445846558	23174.403103132052
0.6517150402069092	24465.399221807507
0.6539263725280762	25570.756645970127
0.6561272740364075	26476.40576662161
0.6583186388015747	27586.390139430594
0.6605015397071838	29205.799262569933
0.6626768708229065	30798.418684009983
0.6648455858230591	32210.224837707672
0.6670085787773132	33600.63074722917
0.6691668033599854	34760.860231527666
0.6713210344314575	35994.17738813965
0.6734722256660461	37858.7595822302
0.6756211519241333	39800.89996997627
0.6777685880661011	41404.13033387982
0.6799154281616211	42988.25397749983
0.6820623278617859	44507.40844830182
0.6842101216316223	45898.90016748258
0.6863595843315125	47019.60350935608
0.688511312007904	47770.68329043558
0.6906660795211792	49122.168567492685
0.6928245425224304	51666.877618789025
0.6949873566627502	54614.144405922896
0.6971551775932312	57150.89704501884
0.6993286609649658	59567.08242523888
0.7015084028244019	62780.41911002778
0.7036949396133423	66476.05960875413
0.7058889269828796	69815.08884500693
0.7080909013748169	72762.23867958793
0.710301399230957	75632.74060741859
0.712520956993103	78614.43999677576
0.7147500514984131	81666.97534074092
0.7169892191886902	84806.24386597828
0.7192389369010925	88116.01709525789
0.7214996814727783	91577.24416422332
0.723771870136261	95156.57629629623
0.7260559797286987	98835.84343418515
0.7283523678779602	102602.61023744142
0.7306615710258484	106395.23134547597
0.7329838871955872	109796.16964709856
0.7353196740150452	112888.81246880435
0.7376693487167358	116284.95811753535
0.7400332689285278	119770.84058444886
0.7424117922782898	123344.43680626416
0.7448052167892456	127393.34737812282
0.7472138404846191	132237.8268951121
0.7496379613876343	137635.67420602308
0.7520779371261597	142644.44144921124
0.7545340061187744	146831.2875734857
0.7570064663887024	149035.02999225975
0.7594954967498779	145584.52573766652
0.7620013952255249	126655.56321359218
0.7645244002342224	84754.0047736554
0.7670646905899048	44700.16377888297
0.7696225643157959	43457.785630107894
0.7721980810165405	89039.556572306
0.7747915983200073	150088.28965683928
0.7774031162261963	185601.43880570887
0.7800329327583313	197778.02266138096
0.7826811671257019	214823.21559069547
0.7853479981422424	235700.08206061108
0.7880334854125977	249053.72010801084
0.7907378077507019	257207.9513668412
0.7934610247612	259155.4571350926
0.7962033748626709	266558.37069512455
0.7989648580551147	285614.5918521458
0.801745593547821	302641.35676647344
0.8045456409454346	315137.3659077037
0.8073651194572449	327928.88337996986
0.8102040886878967	341132.9596305089
0.8130625486373901	354608.915948438
0.8159406185150146	368547.56559045287
0.8188382983207703	382922.33539177675
0.8217556476593018	397508.28116016166
0.8246926665306091	412597.76606591296
0.8276493549346924	428401.98606741044
0.8306257724761963	444707.1650412763
0.8336219191551208	461541.3188803089
0.8366377949714661	478943.6212675635
0.8396733403205872	496898.3206578185
0.8427285552024841	515497.66044563876
0.8458034992218018	534712.101279195
0.8488980531692505	554452.7803645764
0.8520121574401855	574225.591890451
0.8551458716392517	594215.6328140248
0.8582990765571594	614651.1719000848
0.8614717125892639	635110.3792372298
0.8646637797355652	656766.1332408686
0.8678751587867737	680815.3022826026
0.8711057901382446	707138.0441640681
0.8743556141853333	734970.2050002983
0.87762451171875	763504.9079669248
0.8809124231338501	792525.3616618009
0.8842192888259888	822101.193792654
0.8875449895858765	852187.5206928451
0.8908893465995789	882349.1083377663
0.894252359867096	912767.9954023323
0.8976338505744934	944367.2582822008
0.9010337591171265	978620.214089627
0.9044519662857056	1014885.1552315216
0.9078882932662964	1051115.3713345688
0.9113426208496094	1087643.7497002222
0.914814829826355	1124978.6678525258
0.9183048605918884	1163427.0335510676
0.9218124747276306	1202526.1902303556
0.925337553024292	1236657.6052580161
0.9288799166679382	1262984.9080031482
0.9324395060539246	1289043.6097532234
0.9360161423683167	1330769.5012480686
0.9396095871925354	1394904.886612401
0.943219780921936	1456908.3596717084
0.9468464851379395	1501066.4503072738
0.9504896402359009	1545470.196657678
0.9541489481925964	1598226.2648171063
0.9578243494033813	1651940.9458319182
0.9615156054496765	1707621.6317264442
0.9652225375175476	1770407.923913789
0.9689450263977051	1835241.1663498397
0.9726828336715698	1896512.5389747347
0.9764357805252075	1958242.9104161072
0.9802037477493286	2023259.9934131906
0.983986496925354	2089959.4652755002
0.9877838492393494	2157038.023149352
0.9915955662727356	2226080.1070566364
0.9954215884208679	2297264.6394783445
0.9992615580558777	2368556.288894205
1.0031154155731201	2440435.7665102053
1.0069829225540161	2514491.995572409
1.0108637809753418	2590949.398108608
1.0147579908370972	2669087.4652149724
1.018665075302124	2748721.084006337
1.022585153579712	2830242.9888606328
1.0265177488327026	2913730.8021019907
1.0304628610610962	2998926.524282928
1.0344202518463135	3085866.3574085436
1.0383895635604858	3174683.2020262573
1.0423706769943237	3265150.377614996
1.0463634729385376	3356953.4263955615
1.0503677129745483	3450293.7865634486
1.0543830394744873	3545696.9868158395
1.058409333229065	3644331.015833426
1.0624464750289917	3748329.7598432926
1.0664942264556885	3855400.550489911
1.0705522298812866	3961984.2774298214
1.0746204853057861	4068779.0956665147
1.0786986351013184	4177101.1026831763
1.0827864408493042	4287244.074331732
1.086883783340454	4397636.403539374
1.0909905433654785	4504707.507870595
1.0951062440872192	4603648.096680407
1.0992310047149658	4694347.686295467
1.10336434841156	4790866.3899950385
1.1075061559677124	4897314.855538171
1.1116561889648438	4977939.169706289
1.115814208984375	5019126.083930318
1.1199802160263062	5064220.476347947
1.124153733253479	5184235.127447447
1.1283347606658936	5392296.242762274
1.1325229406356812	5561262.63806287
1.1367181539535522	5700167.027008783
1.1409201622009277	5876800.784137248
1.145128846168518	6002426.220366975
1.1493438482284546	6105444.1776918825
1.1535650491714478	6261720.001699138
1.1577922105789185	6418212.731262858
1.1620250940322876	6557873.493067237
1.1662636995315552	6722886.611172644
1.170507550239563	6891744.263626391
1.174756646156311	7068755.2819955675
1.1790107488632202	7273263.837229611
1.1832695007324219	7465916.782979111
1.1875330209732056	7643293.499391341
1.191800832748413	7825603.147398429
1.1960728168487549	8002947.190374039
1.2003488540649414	8178072.620368774
1.2046287059783936	8359078.389687155
1.2089121341705322	8536572.125300696
1.2131990194320679	8710169.148403002
1.2174891233444214	8888375.201804694
1.2217823266983032	9070443.900911177
1.2260783910751343	9252635.191294847
1.230377197265625	9436388.982730422
1.2346785068511963	9623666.008081894
1.238982081413269	9812579.804173931
1.2432878017425537	10001244.88465745
1.2475954294204712	10189602.00054613
1.2519049644470215	10377789.133466475
1.256216049194336	10569591.455162825
1.2605286836624146	10765394.740468085
1.2648425102233887	10960772.846017623
1.2691574096679688	11154338.16147349
1.2734732627868652	11348914.697905727
1.2777899503707886	11545372.320863113
1.2821072340011597	11739497.847316297
1.2864248752593994	11934255.320323901
1.2907428741455078	12123380.725016968
1.2950609922409058	12306846.921633262
1.2993791103363037	12512256.042770166
1.303696870803833	12736715.262290861
1.3080145120620728	12953671.28335496
1.3123314380645752	13152371.498187091
1.3166478872299194	13339627.071665982
1.3209635019302368	13514015.369955534
1.3252781629562378	13671983.634166744
1.3295916318893433	13693598.429376159
1.3339040279388428	13277441.649068205
1.3382149934768677	12546470.698680092
1.3425244092941284	11955733.134817043
1.3468321561813354	11502646.41545168
1.3511382341384888	11042587.166900394
1.3554422855377197	10805186.541722983
1.3597444295883179	10959397.402481453
1.3640443086624146	11395806.078384588
1.3683418035507202	12131826.997050663
1.3726370334625244	13003885.847238721
1.3769296407699585	13690851.000357926
1.381219506263733	13911564.374116242
1.3855066299438477	13700691.758896897
1.3897908926010132	13365662.80110205
1.3940720558166504	13157921.712642848
1.3983501195907593	13423259.2622045
1.4026249647140503	13849785.8785018
1.4068963527679443	14148919.404634
1.4111642837524414	14399091.520039614
1.4154287576675415	14152549.631804828
1.419689416885376	13643933.166691437
1.4239463806152344	13626436.497911671
1.4281994104385376	14184763.270621443
1.4324485063552856	15153840.6812256
1.436693549156189	15820887.696967522
1.440934419631958	16125075.39173397
1.4451709985733032	16591254.938202653
1.449403166770935	17056857.52478341
1.453631043434143	17643517.032779813
1.4578542709350586	18416153.939716563
1.4620729684829712	18818846.244310446
1.4662868976593018	18937972.85079164
1.4704961776733398	19305246.29437265
1.4747005701065063	19775413.49237318
1.4788999557495117	20210767.099709336
1.4830944538116455	20599747.037825793
1.4872838258743286	20872389.823263
1.491468071937561	21109242.734651398
1.4956470727920532	21411870.897198252
1.4998208284378052	21752329.351591207
1.5039892196655273	22210989.64228166
1.5081522464752197	22725245.480368976
1.5123097896575928	23146588.632888906
1.5164618492126465	23541757.184807096
1.5206083059310913	23924621.076371036
1.5247491598129272	24211037.316753294
1.5288842916488647	24408483.901758794
1.5330137014389038	24710313.231528137
1.5371372699737549	25107258.462618362
1.541254997253418	25434658.749193653
1.545366883277893	25716394.36595314
1.5494728088378906	26004516.158259094
1.5535727739334106	26281365.514795195
1.5576666593551636	26547762.034896463
1.561754584312439	26813750.780535348
1.5658363103866577	27075060.84891105
1.5699119567871094	27316623.55413826
1.5739814043045044	27566117.049475636
1.5780447721481323	27851092.42596466
1.582101821899414	28121581.034812935
1.5861525535583496	28358989.003814816
1.5901970863342285	28597041.09372372
1.5942351818084717	28842953.058821406
1.5982669591903687	29086768.780137517
1.6022924184799194	29322529.583576955
1.606311559677124	29555565.266769286
1.6103241443634033	29784885.8912508
1.6143304109573364	30014594.443942808
1.6183301210403442	30225866.491101235
1.6223233938217163	30317116.786248658
1.6263102293014526	30290399.44416728
1.6302905082702637	30263583.952760007
1.634264349937439	30342986.81870943
1.638231635093689	30816620.78585114
1.6421923637390137	31407893.734207258
1.646146535873413	31700336.73497727
1.6500942707061768	31901709.56309689
1.6540353298187256	32065761.398341883
1.6579699516296387	32233149.492323007
1.661897897720337	32219684.087519318
1.6658192873001099	31796362.76898441
1.6697341203689575	31993377.530842472
1.6736423969268799	32826651.350971542
1.677544116973877	33189563.76736609
1.6814392805099487	33370115.694036983
1.6853278875350952	33676651.924913265
1.6892099380493164	33855183.59231023
1.6930854320526123	33927375.341895245
1.696954369544983	34018499.36095251
1.7008168697357178	34105576.083937906
1.7046726942062378	34281567.66825913
1.708522081375122	34655878.157268494
1.712364912033081	35084019.410688736
1.7162011861801147	35335602.41390221
1.7200311422348022	35398514.392875396
1.723854422569275	35281010.26053939
1.7276713848114014	35040196.43965571
1.731481909751892	34963907.02371763
1.7352858781814575	35055018.6416675
1.7390835285186768	35108827.671716824
1.7428747415542603	35197113.270044014
1.7466596364974976	35434149.40806171
1.7504380941390991	35445815.598458275
1.7542102336883545	35021509.02928112
1.7579760551452637	34672223.85303232
1.7617355585098267	34543597.86663706
1.7654887437820435	34014318.013595924
1.7692357301712036	33356206.902655248
1.7729763984680176	33162638.739472788
1.776710867881775	32997556.352177784
1.7804391384124756	32692270.372833245
1.7841613292694092	32105572.316467933
1.7878772020339966	31049967.734736174
1.7915871143341064	30117348.240850583
1.7952908277511597	29841176.74984022
1.7989884614944458	29272474.618072543
1.8026801347732544	28590327.136515543
1.806365728378296	28202836.233994465
1.8100452423095703	28128707.458179846
1.8137187957763672	29398279.56418995
1.817386507987976	30275421.219427116
1.8210482597351074	30349932.342413146
1.8247040510177612	31184995.737988587
1.828354001045227	31419582.961616617
1.8319982290267944	31521040.05540607
1.8356364965438843	31806086.92190641
1.8392690420150757	30981475.34097591
1.8428958654403687	30078218.125884406
1.8465168476104736	29139076.766572554
1.8501322269439697	28916782.085354265
1.8537418842315674	28866509.8055891
1.8573459386825562	27650435.981114846
1.860944390296936	26717517.670606125
1.864537239074707	26643555.90705704
1.8681244850158691	27016756.04725384
1.871706247329712	27695400.947071932
1.8752825260162354	29585684.944809034
1.8788533210754395	32257264.815210152
1.8824186325073242	33584324.86199338
1.8859784603118896	34122083.36456471
1.8895330429077148	35269648.221033186
1.8930821418762207	36307562.2236016
1.8966259956359863	36382825.44944568
1.9001644849777222	35500938.384712555
1.9036977291107178	35169885.28624407
1.9072256088256836	35829654.97058101
1.9107483625411987	35666192.43784274
1.9142658710479736	35406207.38652452
1.9177782535552979	35325208.64711527
1.9212853908538818	33879648.48029752
1.9247875213623047	33702614.853752874
1.9282845258712769	34896139.71376056
1.9317764043807983	34449878.56867629
1.9352631568908691	32976460.555759713
1.9387450218200684	31137935.408462435
1.942221760749817	30386740.639847986
1.9456936120986938	31155069.406445537
1.9491604566574097	32298023.563384432
1.952622413635254	32439484.46607356
1.956079363822937	30811460.372817315
1.959531545639038	30824111.04188282
1.962978720664978	33727083.875697896
1.966421127319336	36365562.72365389
1.9698586463928223	36584442.54125197
1.9732913970947266	35801723.85699672
1.9767193794250488	36302902.12902147
1.9801424741744995	37665718.211926736
1.9835609197616577	38939495.10545452
1.9869745969772339	38790086.60315232
1.990383505821228	37433138.26606406
1.9937876462936401	38396163.348361015
1.9971871376037598	39857048.64744621
2.000581979751587	39818606.9777293
2.003972291946411	40774155.88073936
2.007357597351074	42028196.65564892
2.0107386112213135	43004162.29860912
2.0141148567199707	43597046.987205304
2.017486572265625	43672609.03047972
2.0208535194396973	44532564.37131734
2.0242159366607666	45134905.07622577
2.027573823928833	44451481.07050811
2.0309269428253174	44359255.741182536
2.034275770187378	45374966.923858
2.0376198291778564	45957591.69140592
2.040959596633911	46009177.1453712
2.044294595718384	46546638.801315114
2.0476250648498535	47177317.68129402
2.0509510040283203	47446406.2032374
2.054272413253784	47829923.596672766
2.057589530944824	48259311.1489886
2.0609018802642822	48415742.66495938
2.0642096996307373	48508487.38671944
2.0675129890441895	48847486.95603457
2.0708119869232178	49219603.11233883
2.074106216430664	49464849.67385528
2.0773961544036865	49412036.28815811
2.080681324005127	49111487.41954188
2.0839622020721436	49154626.78492894
2.087238311767578	49524204.79543251
2.090510129928589	49886357.02618039
2.0937774181365967	50177443.00636915
2.0970399379730225	50303799.023742266
2.1002981662750244	50385133.40439096
2.1035518646240234	50518210.007343896
2.1068007946014404	50615108.83031223
2.1100454330444336	50585222.99728433
2.1132853031158447	50566601.538298704
2.116520881652832	50700431.54730202
2.1197516918182373	50902111.364687726
2.1229779720306396	51014515.17921465
2.12619948387146	51053278.5106247
2.1294167041778564	51150861.64607328
2.132629156112671	51281931.99010859
2.1358368396759033	51364451.371648945
2.139039993286133	51399371.81666545
2.1422386169433594	51438324.13797091
2.145432472229004	51446996.831594676
2.1486217975616455	51429532.32741306
2.151806354522705	51468928.866438806
2.1549863815307617	51487423.564096995
2.1581614017486572	51573297.07456856
2.16133189201355	51730604.87090042
2.1644976139068604	51807149.39521003
2.167658567428589	51856326.643509336
2.1708147525787354	51864824.98560055
2.173966407775879	51848491.996648036
2.1771130561828613	51922561.81943107
2.1802549362182617	52027643.25063454
2.183391809463501	52020166.203428425
2.1865241527557373	52007858.70422669
2.1896514892578125	52096054.427961335
2.1927738189697266	52144418.24443321
2.1958916187286377	51958622.85794607
2.1990041732788086	51461506.945162386
2.2021119594573975	51175411.12712829
2.2052149772644043	51552924.31600051
2.208312749862671	52113908.584978044
2.2114057540893555	52360078.35765434
2.214493751525879	52268818.51476137
2.217576742172241	51558478.296375304
2.2206547260284424	50403159.25351029
2.2237277030944824	49995119.57524273
2.2267956733703613	50056215.26111526
2.2298583984375	49922164.30449934
2.2329163551330566	49982039.707696564
2.235969066619873	50128165.13236834
2.2390167713165283	50515913.54270956
2.2420592308044434	50478870.95695242
2.2450966835021973	49653352.842887826
2.248128890991211	49544551.315574326
2.2511560916900635	49743689.01838266
2.254178285598755	49159128.2035416
2.257194995880127	49365428.56250942
2.260206699371338	50686428.3207625
2.2632133960723877	51169090.53232198
2.266214609146118	50635140.0614489
2.2692108154296875	50309950.83564658
2.2722020149230957	50752042.327879
2.2751877307891846	51114737.30913815
2.278168201446533	50668581.74741557
2.2811436653137207	50029593.62196633
2.284113883972168	49405546.20276508
2.287078857421875	48779907.42032523
2.290038824081421	48437416.04917028
2.2929933071136475	47647141.51143292
2.295942783355713	47109446.33224827
2.298887014389038	48099159.08222991
2.301826238632202	49093817.651424475
2.304760217666626	49275514.229683094
2.3076889514923096	49934634.662751
2.310612440109253	51058618.57014435
2.3135311603546143	50518800.952248566
2.3164443969726562	47708835.033563174
2.319352865219116	45881385.84713559
2.322256088256836	46465028.775438905
2.3251543045043945	47660867.326242715
2.328047275543213	48714828.29826859
2.330935478210449	49164037.83039063
2.3338186740875244	48602764.85174882
2.3366971015930176	46992177.586666055
2.3395702838897705	45811523.7487649
2.3424389362335205	45862516.02288305
2.3453025817871094	45281473.65992176
2.348161458969116	44456287.38807381
2.351015567779541	44023927.866083965
2.353865146636963	44822854.07162296
2.3567099571228027	47053076.47056997
2.3595502376556396	48404700.61236021
2.3623859882354736	49187531.15009835
2.3652172088623047	49624596.22699079
2.368043899536133	46956911.01224293
2.370866537094116	42771978.31953261
2.3736846446990967	42401142.14303768
2.3764986991882324	43970155.322016284
2.3793084621429443	44706736.72604707
2.3821144104003906	45897887.57010031
2.384916305541992	47023588.051006824
2.387714147567749	47790681.66493724
2.3905084133148193	47793366.69119302
2.393299102783203	46299203.92356593
2.3960859775543213	45461104.49378117
2.398869514465332	46027264.402549334
2.4016497135162354	45737645.61111261
2.4044265747070312	45211278.431096695
2.407200336456299	45865736.93402492
2.409970998764038	46258141.34089321
2.4127390384674072	45913050.16885605
2.415503978729248	44881476.381262876
2.418266534805298	43615757.5746457
2.4210267066955566	44432154.94440293
2.4237842559814453	46183266.1613624
2.426539897918701	46168871.434636116
2.429293394088745	45990520.973994225
2.4320452213287354	45398842.369218744
2.4347951412200928	41781245.49169302
2.4375438690185547	40493257.37400551
2.440291166305542	43070028.130798325
2.443037271499634	42555942.34983277
2.445782423019409	41037332.09873777
2.4485268592834473	42008196.725506246
2.451270818710327	40075177.73353466
2.454014539718628	37097169.63489588
2.4567582607269287	39276027.490319386
2.4595019817352295	40089573.99193791
2.4622461795806885	39616115.44458274
2.4649908542633057	39814179.34024982
2.4677364826202393	35618882.49127955
2.4704833030700684	32499113.637849655
2.473231554031372	31278917.331437986
2.4759814739227295	31170694.740624823
2.4787333011627197	33302454.97508847
2.481487512588501	33634079.767705016
