#wavelength	surface flux
0.6450077295303345	707.0376829110559
0.6472567915916443	1075.9895453598701
0.6494921445846558	1319.0042082380694
0.6517150402069092	1408.8033377297409
0.6539263725280762	1493.5039179368857
0.6561272740364075	1581.84418669721
0.6583186388015747	1675.113691187283
0.6605015397071838	1774.1876193294586
0.6626768708229065	1877.392894852809
0.6648455858230591	1984.6018051591354
0.6670085787773132	2095.9521688375917
0.6691668033599854	2207.1954935782837
0.6713210344314575	2324.2434626937943
0.6734722256660461	2458.195892895829
0.6756211519241333	2599.312335129767
0.6777685880661011	2740.4945316585004
0.6799154281616211	2887.1608124090353
0.6820623278617859	3039.993742887874
0.6842101216316223	3198.899242851878
0.6863595843315125	3362.7601637075877
0.688511312007904	3530.8523481124744
0.6906660795211792	3707.883647299945
0.6928245425224304	3899.3304430041153
0.6949873566627502	4104.010844782291
0.6971551775932312	4314.061392110293
0.6993286609649658	4533.929120866012
0.7015084028244019	4775.687461360144
0.7036949396133423	5029.587504301877
0.7058889269828796	5286.551365425003
0.7080909013748169	5551.315915467323
0.710301399230957	5828.48262620019
0.712520956993103	6119.0462381733605
0.7147500514984131	6416.973487279356
0.7169892191886902	6726.45051318722
0.7192389369010925	7063.607007803858
0.7214996814727783	7421.560359619415
0.723771870136261	7790.588052998016
0.7260559797286987	8175.748204938894
0.7283523678779602	8574.880961172454
0.7306615710258484	8989.73989616423
0.7329838871955872	9418.816319797792
0.7353196740150452	9859.621387649764
0.7376693487167358	10330.237221429274
0.7400332689285278	10828.911148016838
0.7424117922782898	11346.424027958998
0.7448052167892456	11895.162320965506
0.7472138404846191	12484.575196211314
0.7496379613876343	13109.30502558561
0.7520779371261597	13753.47962434897
0.7545340061187744	14413.35154772093
0.7570064663887024	15074.90641803805
0.7594954967498779	15671.894717186806
0.7620013952255249	15763.038854855602
0.7645244002342224	14315.122051344293
0.7670646905899048	12326.882141371694
0.7696225643157959	12757.518896567904
0.7721980810165405	16126.472424621323
0.7747915983200073	19751.266350221034
0.7774031162261963	21672.127289823915
0.7800329327583313	22664.27624254514
0.7826811671257019	23957.586901111652
0.7853479981422424	25467.161094986874
0.7880334854125977	26794.40440744601
0.7907378077507019	27994.288223452142
0.7934610247612	28992.118706333473
0.7962033748626709	30280.93770520626
0.7989648580551147	32115.063798349376
0.801745593547821	33904.76336688814
0.8045456409454346	35556.13841489218
0.8073651194572449	37257.297202206944
0.8102040886878967	38997.8211639273
0.8130625486373901	40825.7226703169
0.8159406185150146	42789.92455980547
0.8188382983207703	44855.60882967997
0.8217556476593018	46981.0074240838
0.8246926665306091	49211.87766555382
0.8276493549346924	51596.65487355702
0.8306257724761963	54091.1117633553
0.8336219191551208	56684.038460606695
0.8366377949714661	59379.17351082472
0.8396733403205872	62178.99793429218
0.8427285552024841	65106.934132013215
0.8458034992218018	68151.3590521655
0.8488980531692505	71354.88889167433
0.8520121574401855	74717.40200261262
0.8551458716392517	78201.51585946874
0.8582990765571594	81811.14145386076
0.8614717125892639	85521.47341423336
0.8646637797355652	89407.47974745293
0.8678751587867737	93565.80599616197
0.8711057901382446	97945.12394865637
0.8743556141853333	102509.99076176935
0.87762451171875	107271.61273970208
0.8809124231338501	112197.15463305208
0.8842192888259888	117297.36617508772
0.8875449895858765	122536.24877315691
0.8908893465995789	127759.77679222409
0.894252359867096	132975.37080774189
0.8976338505744934	138433.6259120219
0.9010337591171265	144882.39839962905
0.9044519662857056	152159.97493801612
0.9078882932662964	159255.33680430907
0.9113426208496094	166206.06262130168
0.914814829826355	173235.83478442542
0.9183048605918884	180529.78518670786
0.9218124747276306	188048.25242415757
0.925337553024292	193845.25316239224
0.9288799166679382	196640.20092545095
0.9324395060539246	198003.95465043132
0.9360161423683167	204285.6653544384
0.9396095871925354	220748.95404433712
0.943219780921936	237092.79436527166
0.9468464851379395	244717.95419499453
0.9504896402359009	252337.80245895075
0.9541489481925964	264156.37025279616
0.9578243494033813	275833.8050538043
0.9615156054496765	287819.9345465778
0.9652225375175476	303187.95899653377
0.9689450263977051	319335.26756379113
0.9726828336715698	333041.2367803633
0.9764357805252075	346693.0890884078
0.9802037477493286	361821.4101774511
0.983986496925354	377191.251321558
0.9877838492393494	392388.471250181
0.9915955662727356	408530.88369596534
0.9954215884208679	425590.78822698514
0.9992615580558777	442638.4377448611
1.0031154155731201	459791.8422552087
1.0069829225540161	477481.93152066326
1.0108637809753418	495781.1018391711
1.0147579908370972	514651.12288982613
1.018665075302124	534080.4679522207
1.022585153579712	554038.1760003817
1.0265177488327026	574564.4962231815
1.0304628610610962	595652.0666488326
1.0344202518463135	617355.2971599919
1.0383895635604858	639717.1307921332
1.0423706769943237	662693.6015562152
1.0463634729385376	686250.8038058992
1.0503677129745483	710442.375026198
1.0543830394744873	735321.3071728183
1.058409333229065	760996.4818579198
1.0624464750289917	787978.475572054
1.0664942264556885	815860.8783650111
1.0705522298812866	843947.5044446684
1.0746204853057861	872530.8824627363
1.0786986351013184	901829.27730485
1.0827864408493042	931894.5070316977
1.086883783340454	961889.6554614448
1.0909905433654785	990224.3870361429
1.0951062440872192	1014072.2418928023
1.0992310047149658	1033759.2512621008
1.10336434841156	1060656.564607964
1.1075061559677124	1097846.3179310658
1.1116561889648438	1118064.8010439067
1.115814208984375	1107158.452299962
1.1199802160263062	1098603.629821196
1.124153733253479	1129530.887298081
1.1283347606658936	1202079.38161763
1.1325229406356812	1262989.3269080268
1.1367181539535522	1304478.3862868932
1.1409201622009277	1352703.847645287
1.145128846168518	1379258.0095585373
1.1493438482284546	1407941.448621204
1.1535650491714478	1470060.4812377533
1.1577922105789185	1523294.9605888848
1.1620250940322876	1557195.2247710822
1.1662636995315552	1605062.2810903715
1.170507550239563	1660246.9195751415
1.174756646156311	1721346.534248444
1.1790107488632202	1794740.411526528
1.1832695007324219	1858564.76261382
1.1875330209732056	1918467.846438529
1.191800832748413	1983752.4231700078
1.1960728168487549	2040542.4292392756
1.2003488540649414	2094539.8490936211
1.2046287059783936	2155840.7614167426
1.2089121341705322	2215929.613596485
1.2131990194320679	2271769.363225933
1.2174891233444214	2330806.216899647
1.2217823266983032	2392875.396126624
1.2260783910751343	2453929.3449378535
1.230377197265625	2515841.5496264934
1.2346785068511963	2580630.4098630357
1.238982081413269	2646218.72285793
1.2432878017425537	2711055.4919423745
1.2475954294204712	2775557.215371375
1.2519049644470215	2839728.118996349
1.256216049194336	2906300.5033221073
1.2605286836624146	2975903.5594934593
1.2648425102233887	3044599.567739023
1.2691574096679688	3111417.4187784116
1.2734732627868652	3179748.3772090683
1.2777899503707886	3250144.259816305
1.2821072340011597	3318760.9236398386
1.2864248752593994	3387066.375873214
1.2907428741455078	3449163.7459367067
1.2950609922409058	3506067.2696997435
1.2993791103363037	3582635.7298564124
1.303696870803833	3674291.8184238058
1.3080145120620728	3756453.10410733
1.3123314380645752	3825841.334632845
1.3166478872299194	3886576.229079609
1.3209635019302368	3935205.8417481747
1.3252781629562378	3990810.4051585933
1.3295916318893433	4014503.667562788
1.3339040279388428	3864714.958375811
1.3382149934768677	3616090.965436002
1.3425244092941284	3480924.3159236778
1.3468321561813354	3406035.6725407885
1.3511382341384888	3240493.966817462
1.3554422855377197	3115535.964255735
1.3597444295883179	3141942.239022993
1.3640443086624146	3212048.7738663023
1.3683418035507202	3367120.110875497
1.3726370334625244	3602963.8786919722
1.3769296407699585	3874145.0780873667
1.381219506263733	4077608.2024991415
1.3855066299438477	4066448.1024087844
1.3897908926010132	3975015.957281661
1.3940720558166504	3934417.474024039
1.3983501195907593	3981083.275983716
1.4026249647140503	4025669.6485246224
1.4068963527679443	4097769.663942207
1.4111642837524414	4271040.7273515295
1.4154287576675415	4199498.778923028
1.419689416885376	3922335.347097323
1.4239463806152344	3844874.3133235835
1.4281994104385376	4067366.4719534595
1.4324485063552856	4518603.508947094
1.436693549156189	4790193.8022881895
1.440934419631958	4867842.114051953
1.4451709985733032	5081222.0659856945
1.449403166770935	5302647.603946484
1.453631043434143	5511666.680915139
1.4578542709350586	5808680.023379902
1.4620729684829712	5908015.636480933
1.4662868976593018	5857291.469134074
1.4704961776733398	6005989.776497486
1.4747005701065063	6234566.988430744
1.4788999557495117	6467170.513242775
1.4830944538116455	6657254.270013923
1.4872838258743286	6727632.437812703
1.491468071937561	6800416.7255959045
1.4956470727920532	6931821.748281527
1.4998208284378052	7083939.637756376
1.5039892196655273	7345606.569618078
1.5081522464752197	7630332.112856161
1.5123097896575928	7820736.421224641
1.5164618492126465	8004802.526968085
1.5206083059310913	8186021.747984453
1.5247491598129272	8300014.73611283
1.5288842916488647	8353873.517458981
1.5330137014389038	8500358.08862847
1.5371372699737549	8741020.688316466
1.541254997253418	8931738.348234272
1.545366883277893	9064581.58821543
1.5494728088378906	9191549.143491289
1.5535727739334106	9316351.857416965
1.5576666593551636	9432865.178082926
1.561754584312439	9549359.326219091
1.5658363103866577	9676448.693506775
1.5699119567871094	9795863.132775089
1.5739814043045044	9913872.923756704
1.5780447721481323	10051613.481588453
1.582101821899414	10181611.495688286
1.5861525535583496	10296421.884811327
1.5901970863342285	10412189.509266641
1.5942351818084717	10529761.855608488
1.5982669591903687	10644118.591008276
1.6022924184799194	10755716.94177511
1.606311559677124	10867907.594997022
1.6103241443634033	10979106.299466895
1.6143304109573364	11090609.04315782
1.6183301210403442	11180822.22752391
1.6223233938217163	11166679.075461775
1.6263102293014526	11065836.163825788
1.6302905082702637	10989296.341196205
1.634264349937439	11029520.749824593
1.638231635093689	11359297.24754546
1.6421923637390137	11731347.403570829
1.646146535873413	11867683.42256643
1.6500942707061768	11943363.324752936
1.6540353298187256	11984279.97495451
1.6579699516296387	12037175.779092487
1.661897897720337	11961221.668448174
1.6658192873001099	11532021.566685617
1.6697341203689575	11621346.164608218
1.6736423969268799	12256133.714724293
1.677544116973877	12464672.524247993
1.6814392805099487	12518048.046538059
1.6853278875350952	12718187.783288725
1.6892099380493164	12807611.275057219
1.6930854320526123	12784458.885169242
1.696954369544983	12760159.691080702
1.7008168697357178	12705505.86276277
1.7046726942062378	12756922.482520988
1.708522081375122	13086798.62209139
1.712364912033081	13493700.775494343
1.7162011861801147	13701661.79291898
1.7200311422348022	13727256.66510508
1.723854422569275	13554996.692057429
1.7276713848114014	13243772.812602995
1.731481909751892	13101851.919426268
1.7352858781814575	13216466.844991677
1.7390835285186768	13407921.092371369
1.7428747415542603	13571197.449867554
1.7466596364974976	13804570.655039622
1.7504380941390991	13914865.931706041
1.7542102336883545	13739586.409607599
1.7579760551452637	13644915.175426006
1.7617355585098267	13664299.088715324
1.7654887437820435	13465530.004112443
1.7692357301712036	13207225.75555569
1.7729763984680176	13208641.288273064
1.776710867881775	13275473.842732042
1.7804391384124756	13199412.271438625
1.7841613292694092	13087420.095591146
1.7878772020339966	12681598.495459568
1.7915871143341064	12064537.178005965
1.7952908277511597	11965735.50124175
1.7989884614944458	12000241.889980724
1.8026801347732544	11982536.265755832
1.806365728378296	11786734.30756265
1.8100452423095703	11535117.543124104
1.8137187957763672	12179031.627684392
1.817386507987976	12839596.812249407
1.8210482597351074	13050504.889110036
1.8247040510177612	13386386.408077355
1.828354001045227	13365653.743959729
1.8319982290267944	13428918.216164595
1.8356364965438843	13768624.485232739
1.8392690420150757	13433455.057868205
1.8428958654403687	12739093.373424178
1.8465168476104736	12107807.087221328
1.8501322269439697	12225749.211527618
1.8537418842315674	12549186.421092711
1.8573459386825562	12068318.793104121
1.860944390296936	11518756.26316497
1.864537239074707	11341501.567562988
1.8681244850158691	11551114.563368209
1.871706247329712	11877562.137538275
1.8752825260162354	12485484.652567359
1.8788533210754395	13396710.708359756
1.8824186325073242	13927360.547874765
1.8859784603118896	14321301.834814396
1.8895330429077148	14916619.602885598
1.8930821418762207	15226199.015338559
1.8966259956359863	15279730.772988383
1.9001644849777222	15162314.380373385
1.9036977291107178	15288079.03542055
1.9072256088256836	15689807.644985002
1.9107483625411987	15498713.942414
1.9142658710479736	15383081.544696592
1.9177782535552979	15502397.94580734
1.9212853908538818	14851681.326065069
1.9247875213623047	14748097.923161883
1.9282845258712769	15375917.511759358
1.9317764043807983	15151519.513801118
1.9352631568908691	14519319.010158204
1.9387450218200684	13747127.832424065
1.942221760749817	13177899.421504969
1.9456936120986938	13240179.291275032
1.9491604566574097	13694515.746697426
1.952622413635254	13855286.939142864
1.956079363822937	13020187.405408252
1.959531545639038	12847137.53293032
1.962978720664978	14552405.947100023
1.966421127319336	16238081.746628616
1.9698586463928223	16544851.50465027
1.9732913970947266	16377600.568248954
1.9767193794250488	16512956.217911243
1.9801424741744995	17102424.157953244
1.9835609197616577	17703573.88450719
1.9869745969772339	17500766.673790246
1.990383505821228	16943067.312063966
1.9937876462936401	17370221.804914404
1.9971871376037598	17807346.656251423
2.000581979751587	17400539.184931006
2.003972291946411	17562503.261702493
2.007357597351074	18522473.5448748
2.0107386112213135	19460376.04190871
2.0141148567199707	19683696.239745207
2.017486572265625	19560881.239197634
2.0208535194396973	20067139.797090024
2.0242159366607666	20470659.350420594
2.027573823928833	19984202.68833758
2.0309269428253174	19750120.98401723
2.034275770187378	20274153.172761865
2.0376198291778564	20628309.72244347
2.040959596633911	20694811.686911244
2.044294595718384	21134608.11095876
2.0476250648498535	21588925.84994856
2.0509510040283203	21769272.037090175
2.054272413253784	22040126.922250304
2.057589530944824	22285812.221364625
2.0609018802642822	22381004.353983533
2.0642096996307373	22447714.17962159
2.0675129890441895	22613543.13163254
2.0708119869232178	22817424.010119576
2.074106216430664	23011912.028078217
2.0773961544036865	23044628.78062606
2.080681324005127	22906019.84972229
2.0839622020721436	22941820.764338907
2.087238311767578	23145429.607368212
2.090510129928589	23386398.54987205
2.0937774181365967	23624584.122676395
2.0970399379730225	23732475.93666279
2.1002981662750244	23787705.63462184
2.1035518646240234	23888159.736479018
2.1068007946014404	23977013.69331986
2.1100454330444336	23975616.401826933
2.1132853031158447	23967365.936551914
2.116520881652832	24070062.21602352
2.1197516918182373	24242737.874071036
2.1229779720306396	24351102.810775492
2.12619948387146	24393601.968142275
2.1294167041778564	24488015.925255056
2.132629156112671	24611690.38704853
2.1358368396759033	24690436.838122148
2.139039993286133	24731806.356292028
2.1422386169433594	24776615.94590207
2.145432472229004	24798122.628431555
2.1486217975616455	24790441.155423503
2.151806354522705	24802833.127824202
2.1549863815307617	24804131.114450928
2.1581614017486572	24898589.843874134
2.16133189201355	25055381.100202076
2.1644976139068604	25162351.51408245
2.167658567428589	25251601.222536568
2.1708147525787354	25277416.611918826
2.173966407775879	25281658.24339161
2.1771130561828613	25374453.697301183
2.1802549362182617	25491326.11479849
2.183391809463501	25504338.93535084
2.1865241527557373	25515486.77848794
2.1896514892578125	25611110.32431088
2.1927738189697266	25671441.08909165
2.1958916187286377	25410092.6413786
2.1990041732788086	24678931.074568376
2.2021119594573975	24265166.145403136
2.2052149772644043	24793323.539992407
2.208312749862671	25597897.330221538
2.2114057540893555	25992779.134312842
2.214493751525879	25939721.28704862
2.217576742172241	25197871.3646715
2.2206547260284424	23905627.77663037
2.2237277030944824	23329255.413339317
2.2267956733703613	23391157.857370663
2.2298583984375	23402220.22164408
2.2329163551330566	23588877.887884557
2.235969066619873	23817150.952601135
2.2390167713165283	24230896.889659096
2.2420592308044434	24063635.86412981
2.2450966835021973	23050025.478271585
2.248128890991211	22820936.692149416
2.2511560916900635	23042156.820586316
2.254178285598755	22814993.826765206
2.257194995880127	23366228.680374093
2.260206699371338	24724026.290638693
2.2632133960723877	25267521.62790587
2.266214609146118	24661852.533225033
2.2692108154296875	24138253.90277599
2.2722020149230957	24512517.81404551
2.2751877307891846	24762911.663248833
2.278168201446533	24298806.640100896
2.2811436653137207	23687004.1462815
2.284113883972168	23046793.17107918
2.287078857421875	22492407.064938847
2.290038824081421	22071248.038563587
2.2929933071136475	21229250.10008947
2.295942783355713	20705103.31732599
2.298887014389038	21560634.537072632
2.301826238632202	22527287.264479637
2.304760217666626	22790152.506178107
2.3076889514923096	23575407.54776965
2.310612440109253	24966591.213392287
2.3135311603546143	24727500.903337833
2.3164443969726562	21706563.171935916
2.319352865219116	19609310.1320052
2.322256088256836	20598755.091537144
2.3251543045043945	22002667.323514186
2.328047275543213	22937963.017150775
2.330935478210449	23389145.940979563
2.3338186740875244	22965230.53465849
2.3366971015930176	21677690.120540153
2.3395702838897705	20596800.086398207
2.3424389362335205	20734086.80703243
2.3453025817871094	20631079.767702438
2.348161458969116	20016292.290103145
2.351015567779541	19418828.662802227
2.353865146636963	19969781.89131186
2.3567099571228027	22087598.50676751
2.3595502376556396	23523125.75548049
2.3623859882354736	24121645.31936202
2.3652172088623047	24393171.358840834
2.368043899536133	22186505.007957794
2.370866537094116	18438604.526393373
2.3736846446990967	17584923.077501573
2.3764986991882324	19035861.957442697
2.3793084621429443	20541253.160493426
2.3821144104003906	21850450.854999874
2.384916305541992	22473116.195340164
2.387714147567749	23224933.305651538
2.3905084133148193	23644732.691982124
2.393299102783203	22517101.926520158
2.3960859775543213	21855418.69893335
2.398869514465332	22141297.011814576
2.4016497135162354	21335156.73400934
2.4044265747070312	20500201.355336573
2.407200336456299	21218605.03833638
2.409970998764038	22054262.359593853
2.4127390384674072	22365899.61580852
2.415503978729248	21960077.163095813
2.418266534805298	20790351.298714384
2.4210267066955566	20578313.850834925
2.4237842559814453	21041887.489475474
2.426539897918701	20993586.167065255
2.429293394088745	21652129.62568284
2.4320452213287354	21979935.912605952
2.4347951412200928	19593034.154102392
2.4375438690185547	18724437.960217413
2.440291166305542	20691993.759821862
2.443037271499634	20844739.017003573
2.445782423019409	20422218.326001324
2.4485268592834473	21213839.362877112
2.451270818710327	20650735.905040294
2.454014539718628	19660163.492553588
2.4567582607269287	20513510.963916004
2.4595019817352295	20999600.184844103
2.4622461795806885	21321906.527917065
2.4649908542633057	21723721.84011925
2.4677364826202393	20024207.704099197
2.4704833030700684	18567496.594896246
2.473231554031372	17778175.953650877
2.4759814739227295	17917129.695397962
