#wavelength	surface flux
0.6450077295303345	8.293188872597787
0.6472567915916443	12.721346041408209
0.6494921445846558	15.825259148975825
0.6517150402069092	17.2102911832625
0.6539263725280762	18.58052013486291
0.6561272740364075	20.042051428217636
0.6583186388015747	21.603388984680393
0.6605015397071838	23.267039785350278
0.6626768708229065	25.032680084475665
0.6648455858230591	26.91283718504033
0.6670085787773132	28.91817538701878
0.6691668033599854	31.05197309295456
0.6713210344314575	33.31936125362839
0.6734722256660461	35.72884649014103
0.6756211519241333	38.291953523533145
0.6777685880661011	41.01835900045067
0.6799154281616211	43.9153244504836
0.6820623278617859	46.99350158718835
0.6842101216316223	50.265255294775656
0.6863595843315125	53.74225989169538
0.688511312007904	57.429417813886865
0.6906660795211792	61.30591023054103
0.6928245425224304	65.41188857687136
0.6949873566627502	69.86268153837639
0.6971551775932312	74.61787389743657
0.6993286609649658	79.60351337039693
0.7015084028244019	84.90665017380245
0.7036949396133423	90.57379934131134
0.7058889269828796	96.56064851508135
0.7080909013748169	102.85730822636057
0.710301399230957	109.57827048376797
0.712520956993103	116.74507146106177
0.7147500514984131	124.10911604423991
0.7169892191886902	131.81306850106023
0.7192389369010925	140.53754718002776
0.7214996814727783	150.01355638405784
0.723771870136261	159.81373045910735
0.7260559797286987	170.17914577743957
0.7283523678779602	181.01052221428805
0.7306615710258484	192.46921503956725
0.7329838871955872	204.8486109493171
0.7353196740150452	217.9204786241813
0.7376693487167358	232.03549333216074
0.7400332689285278	247.29040245557206
0.7424117922782898	263.2838276616219
0.7448052167892456	280.27715449141067
0.7472138404846191	298.3645117490443
0.7496379613876343	317.5373439890455
0.7520779371261597	337.89068471145504
0.7545340061187744	359.4994458067508
0.7570064663887024	382.44803563119046
0.7594954967498779	406.80409683164805
0.7620013952255249	432.66037818765676
0.7645244002342224	460.09821636177696
0.7670646905899048	489.25189049292317
0.7696225643157959	520.2964221975917
0.7721980810165405	553.3357694838755
0.7747915983200073	588.4279775027811
0.7774031162261963	625.6714651468036
0.7800329327583313	665.2204453601181
0.7826811671257019	707.2328978656293
0.7853479981422424	751.7139747126794
0.7880334854125977	798.675115925808
0.7907378077507019	848.8265858318377
0.7934610247612	902.5908804394825
0.7962033748626709	959.4159360171108
0.7989648580551147	1019.3575226660616
0.801745593547821	1083.1658220825814
0.8045456409454346	1151.16620155437
0.8073651194572449	1221.9516245033606
0.8102040886878967	1293.9518788195126
0.8130625486373901	1370.653762742642
0.8159406185150146	1455.6748914669577
0.8188382983207703	1547.322081551603
0.8217556476593018	1643.612992293897
0.8246926665306091	1746.4586579105503
0.8276493549346924	1858.4491285329805
0.8306257724761963	1976.7773632235328
0.8336219191551208	2101.1997486259975
0.8366377949714661	2232.357940656266
0.8396733403205872	2370.042108736851
0.8427285552024841	2516.0009845698014
0.8458034992218018	2669.4173495305613
0.8488980531692505	2833.743131946665
0.8520121574401855	3010.0845537867663
0.8551458716392517	3195.3959466218885
0.8582990765571594	3390.3432092603257
0.8614717125892639	3595.5070445253114
0.8646637797355652	3812.3190793451995
0.8678751587867737	4042.7789956216784
0.8711057901382446	4286.306697455664
0.8743556141853333	4543.390340870996
0.87762451171875	4815.642942314227
0.8809124231338501	5102.5890750527615
0.8842192888259888	5404.4373749094075
0.8875449895858765	5714.879743299294
0.8908893465995789	6020.520230666409
0.894252359867096	6313.5900174237095
0.8976338505744934	6612.329202466805
0.9010337591171265	7020.062527197144
0.9044519662857056	7530.785409856329
0.9078882932662964	8013.855295982078
0.9113426208496094	8466.802583472738
0.914814829826355	8919.16451416877
0.9183048605918884	9394.000968536646
0.9218124747276306	9903.311140562239
0.925337553024292	10273.096303141683
0.9288799166679382	10346.867438281837
0.9324395060539246	10216.452410035661
0.9360161423683167	10551.604343361301
0.9396095871925354	11913.023682708357
0.943219780921936	13225.599424684147
0.9468464851379395	13622.903210534636
0.9504896402359009	14088.234656389279
0.9541489481925964	15083.521001953754
0.9578243494033813	16033.977622469125
0.9615156054496765	16957.825356001085
0.9652225375175476	18245.502995888404
0.9689450263977051	19629.14225564002
0.9726828336715698	20730.1642501354
0.9764357805252075	21839.308925431418
0.9802037477493286	23162.57598614269
0.983986496925354	24530.20867861149
0.9877838492393494	25864.160210263708
0.9915955662727356	27284.356704089565
0.9954215884208679	28808.68311805147
0.9992615580558777	30347.465601423995
1.0031154155731201	31902.24375871061
1.0069829225540161	33506.44618945804
1.0108637809753418	35178.120469017296
1.0147579908370972	36922.40235271376
1.018665075302124	38739.019830119665
1.022585153579712	40625.791216739824
1.0265177488327026	42588.077989390986
1.0304628610610962	44627.561148550594
1.0344202518463135	46750.6535488186
1.0383895635604858	48960.23611616861
1.0423706769943237	51254.55703302597
1.0463634729385376	53637.05132808642
1.0503677129745483	56113.06690349285
1.0543830394744873	58681.65603261565
1.058409333229065	61341.57157129809
1.0624464750289917	64143.419211353226
1.0664942264556885	67067.24176766333
1.0705522298812866	70073.0221267948
1.0746204853057861	73179.6930039368
1.0786986351013184	76390.3811974057
1.0827864408493042	79740.04361084283
1.086883783340454	83103.52643969523
1.0909905433654785	86259.65582665143
1.0951062440872192	88843.8465075755
1.0992310047149658	90802.73815066997
1.10336434841156	93760.08015339539
1.1075061559677124	98452.04934409693
1.1116561889648438	100755.74008569302
1.115814208984375	98149.51458904504
1.1199802160263062	96510.15420393893
1.124153733253479	100503.00026537936
1.1283347606658936	109366.0111236363
1.1325229406356812	117216.22282137824
1.1367181539535522	122586.70324742614
1.1409201622009277	128049.75598230405
1.145128846168518	130614.44577850247
1.1493438482284546	134298.52015977356
1.1535650491714478	142465.03675483228
1.1577922105789185	149432.47718526257
1.1620250940322876	154328.0096523318
1.1662636995315552	160799.89441985943
1.170507550239563	168085.21780626013
1.174756646156311	176613.8268146651
1.1790107488632202	186843.85533313706
1.1832695007324219	196022.75535420224
1.1875330209732056	205532.9152862437
1.191800832748413	215498.3033352141
1.1960728168487549	223150.35901410074
1.2003488540649414	230487.88407912842
1.2046287059783936	239809.38857892025
1.2089121341705322	248982.2811441044
1.2131990194320679	257064.253955868
1.2174891233444214	266095.3196464327
1.2217823266983032	275961.1195739099
1.2260783910751343	285384.96895485744
1.230377197265625	294925.7737541012
1.2346785068511963	305205.5299653145
1.238982081413269	315774.4851421829
1.2432878017425537	326227.89960097626
1.2475954294204712	336690.59996677627
1.2519049644470215	347126.55873220763
1.256216049194336	358017.49160675146
1.2605286836624146	369582.65877300105
1.2648425102233887	381132.3986305517
1.2691574096679688	392344.04652955267
1.2734732627868652	403871.2188089207
1.2777899503707886	415932.20516182727
1.2821072340011597	427701.1565368644
1.2864248752593994	439393.75167445064
1.2907428741455078	449472.03618429764
1.2950609922409058	458370.4393783983
1.2993791103363037	472068.96157446265
1.303696870803833	489242.8642823751
1.3080145120620728	504324.70484959276
1.3123314380645752	516631.7613034864
1.3166478872299194	526586.5965840706
1.3209635019302368	534279.1308978295
1.3252781629562378	545123.8801288337
1.3295916318893433	552515.7168652434
1.3339040279388428	533104.0799704506
1.3382149934768677	498636.92356158455
1.3425244092941284	483637.32040483534
1.3468321561813354	476030.2121757049
1.3511382341384888	447444.42006919475
1.3554422855377197	427499.71999826457
1.3597444295883179	432124.64832073584
1.3640443086624146	436645.811583478
1.3683418035507202	452779.6413039455
1.3726370334625244	484633.5187858679
1.3769296407699585	533979.0385950143
1.381219506263733	581817.0798303428
1.3855066299438477	585700.6683363469
1.3897908926010132	573183.5347835558
1.3940720558166504	569306.154700907
1.3983501195907593	572193.4232698409
1.4026249647140503	575965.3058361602
1.4068963527679443	590976.1089334261
1.4111642837524414	632686.8897386943
1.4154287576675415	631988.6807752617
1.419689416885376	583273.0995933975
1.4239463806152344	563971.8824273933
1.4281994104385376	598136.2808719252
1.4324485063552856	671204.8814939321
1.436693549156189	714538.0301227161
1.440934419631958	733462.5174031885
1.4451709985733032	784921.6049094386
1.449403166770935	840267.4972014397
1.453631043434143	888243.0131824393
1.4578542709350586	947153.958790043
1.4620729684829712	957461.3995012891
1.4662868976593018	936411.2197188345
1.4704961776733398	967051.2322615199
1.4747005701065063	1018175.5526454913
1.4788999557495117	1071605.3184201333
1.4830944538116455	1114421.164759757
1.4872838258743286	1130440.824005531
1.491468071937561	1148190.757504187
1.4956470727920532	1180545.3518027777
1.4998208284378052	1217117.6067266758
1.5039892196655273	1277071.7019686573
1.5081522464752197	1343565.164703594
1.5123097896575928	1388919.0609893024
1.5164618492126465	1433360.1080042662
1.5206083059310913	1476677.303722201
1.5247491598129272	1506959.0548453531
1.5288842916488647	1526706.1741199435
1.5330137014389038	1569160.621303403
1.5371372699737549	1632466.7965122499
1.541254997253418	1681484.6896484066
1.545366883277893	1716257.7879209423
1.5494728088378906	1749015.022039992
1.5535727739334106	1780780.5758715698
1.5576666593551636	1811094.5250676528
1.561754584312439	1842370.0819864264
1.5658363103866577	1877825.8206541552
1.5699119567871094	1912207.1233149879
1.5739814043045044	1945297.5171975985
1.5780447721481323	1982054.3363968462
1.582101821899414	2017233.1458844736
1.5861525535583496	2049936.2320912315
1.5901970863342285	2082985.2206090512
1.5942351818084717	2116349.7035549735
1.5982669591903687	2149395.3380780383
1.6022924184799194	2182052.381096075
1.606311559677124	2215111.9060370116
1.6103241443634033	2248330.5109203723
1.6143304109573364	2281066.680224829
1.6183301210403442	2300706.321791329
1.6223233938217163	2275708.1497228188
1.6263102293014526	2226495.8598708697
1.6302905082702637	2195875.568532282
1.634264349937439	2217043.1586860465
1.638231635093689	2338969.033729834
1.6421923637390137	2458411.5482233767
1.646146535873413	2483677.3332556053
1.6500942707061768	2490981.514499003
1.6540353298187256	2495570.1296405303
1.6579699516296387	2510657.203697336
1.661897897720337	2502708.6866770103
1.6658192873001099	2370115.217760204
1.6697341203689575	2381150.8748899293
1.6736423969268799	2584674.1586578377
1.677544116973877	2650779.3890220993
1.6814392805099487	2649248.9359207693
1.6853278875350952	2707289.8979659993
1.6892099380493164	2734172.8144448735
1.6930854320526123	2712703.178555435
1.696954369544983	2665223.6550790174
1.7008168697357178	2578007.3636533036
1.7046726942062378	2559140.4769221535
1.708522081375122	2720013.607606598
1.712364912033081	2936919.8748958632
1.7162011861801147	3048783.804248241
1.7200311422348022	3053539.675227188
1.723854422569275	2945613.4319537105
1.7276713848114014	2796185.288624519
1.731481909751892	2769522.38472976
1.7352858781814575	2876465.30432951
1.7390835285186768	2991735.37523778
1.7428747415542603	3048882.3293966227
1.7466596364974976	3111219.7729046578
1.7504380941390991	3164232.996557512
1.7542102336883545	3153009.772564985
1.7579760551452637	3135690.311163945
1.7617355585098267	3139019.2496074135
1.7654887437820435	3117470.569557914
1.7692357301712036	3070643.4305109526
1.7729763984680176	3062830.4732934153
1.776710867881775	3097296.5991585767
1.7804391384124756	3114965.993048083
1.7841613292694092	3101564.875072619
1.7878772020339966	2972833.3058638405
1.7915871143341064	2766803.2958710343
1.7952908277511597	2784029.593921444
1.7989884614944458	2916836.61389817
1.8026801347732544	2993113.836466554
1.806365728378296	2955385.624585876
1.8100452423095703	2857199.807953285
1.8137187957763672	3000080.7022648263
1.817386507987976	3187576.9600484185
1.8210482597351074	3284431.885083612
1.8247040510177612	3417765.493769907
1.828354001045227	3423077.6430471116
1.8319982290267944	3421828.7581920223
1.8356364965438843	3537658.71615669
1.8392690420150757	3490539.5734306662
1.8428958654403687	3308472.395179826
1.8465168476104736	3128341.0655163964
1.8501322269439697	3189136.3674299577
1.8537418842315674	3333352.7589317346
1.8573459386825562	3226859.4397776467
1.860944390296936	3044868.3131127823
1.864537239074707	2928614.9776798533
1.8681244850158691	2958770.3445532275
1.871706247329712	3061660.216862731
1.8752825260162354	3214770.4653421734
1.8788533210754395	3417402.2823508955
1.8824186325073242	3545616.7845353177
1.8859784603118896	3696279.557465289
1.8895330429077148	3902622.1624947814
1.8930821418762207	3992032.460493164
1.8966259956359863	4042802.5548678758
1.9001644849777222	4063434.285952141
1.9036977291107178	4127913.8854688895
1.9072256088256836	4258110.376872898
1.9107483625411987	4192942.0231013955
1.9142658710479736	4168882.4336567675
1.9177782535552979	4255596.832763723
1.9212853908538818	4101834.464752148
1.9247875213623047	4056845.0096480167
1.9282845258712769	4192216.8477652776
1.9317764043807983	4088218.9334582905
1.9352631568908691	3931189.6848141165
1.9387450218200684	3735618.950734169
1.942221760749817	3552114.078123386
1.9456936120986938	3538368.388892345
1.9491604566574097	3674317.896726588
1.952622413635254	3754638.469702263
1.956079363822937	3483014.1319361497
1.959531545639038	3419279.9651589105
1.962978720664978	4008145.519167851
1.966421127319336	4594300.509238044
1.9698586463928223	4764022.329187066
1.9732913970947266	4772190.242256161
1.9767193794250488	4805247.636634646
1.9801424741744995	5015387.560230667
1.9835609197616577	5219390.024490756
1.9869745969772339	5130862.793331777
1.990383505821228	4969525.196889453
1.9937876462936401	5090544.0278934315
1.9971871376037598	5190601.654816857
2.000581979751587	5026817.996573667
2.003972291946411	5046912.941070131
2.007357597351074	5424079.1271412745
2.0107386112213135	5832224.728078803
2.0141148567199707	5908389.2189918505
2.017486572265625	5851475.893744271
2.0208535194396973	6044665.714229341
2.0242159366607666	6187789.600878068
2.027573823928833	6005226.909835996
2.0309269428253174	5905845.986664296
2.034275770187378	6086723.438072651
2.0376198291778564	6219803.928950366
2.040959596633911	6258302.079916737
2.044294595718384	6451576.658298695
2.0476250648498535	6610356.59269948
2.0509510040283203	6659307.842566117
2.054272413253784	6780970.8619517125
2.057589530944824	6883106.09479745
2.0609018802642822	6935387.464684861
2.0642096996307373	6977584.037870364
2.0675129890441895	7028286.215206451
2.0708119869232178	7107688.036370214
2.074106216430664	7217066.742242705
2.0773961544036865	7251079.722525064
2.080681324005127	7193283.575728139
2.0839622020721436	7209800.706881457
2.087238311767578	7287226.0307028
2.090510129928589	7392103.676295426
2.0937774181365967	7521868.236151292
2.0970399379730225	7583992.083248387
2.1002981662750244	7612307.37080026
2.1035518646240234	7666940.189960018
2.1068007946014404	7716568.539042198
2.1100454330444336	7715334.067187254
2.1132853031158447	7703358.841377715
2.116520881652832	7752619.801758767
2.1197516918182373	7848261.7878876235
2.1229779720306396	7919188.1134920325
2.12619948387146	7950170.290091725
2.1294167041778564	8001774.332631129
2.132629156112671	8074734.924895205
2.1358368396759033	8124424.306110364
2.139039993286133	8154831.204469713
2.1422386169433594	8184701.032765478
2.145432472229004	8193025.44559405
2.1486217975616455	8171211.7531454265
2.151806354522705	8154526.146098321
2.1549863815307617	8149621.736732142
2.1581614017486572	8207845.890211742
2.16133189201355	8289990.263828228
2.1644976139068604	8365887.011057999
2.167658567428589	8447815.029519536
2.1708147525787354	8472252.437866168
2.173966407775879	8476254.466694295
2.1771130561828613	8539312.374250684
2.1802549362182617	8611740.766265498
2.183391809463501	8615078.84782204
2.1865241527557373	8633337.53665553
2.1896514892578125	8701481.436210815
2.1927738189697266	8740733.613042753
2.1958916187286377	8517127.007592086
2.1990041732788086	7884172.916635074
2.2021119594573975	7517328.957077229
2.2052149772644043	7941918.786899761
2.208312749862671	8606540.689432135
2.2114057540893555	8941368.034826
2.214493751525879	8918785.027142517
2.217576742172241	8453697.279290203
2.2206547260284424	7616410.656164622
2.2237277030944824	7177203.311762978
2.2267956733703613	7213201.482936766
2.2298583984375	7282272.675434131
2.2329163551330566	7450556.673168362
2.235969066619873	7697124.913790112
2.2390167713165283	7967542.5513187805
2.2420592308044434	7727307.864315168
2.2450966835021973	6990477.535914295
2.248128890991211	6805424.13468021
2.2511560916900635	7019074.352560493
2.254178285598755	7074536.260242942
2.257194995880127	7454951.785802479
2.260206699371338	8160390.662451913
2.2632133960723877	8481971.550048623
2.266214609146118	8170264.955625945
2.2692108154296875	7823393.79648617
2.2722020149230957	7937747.343958007
2.2751877307891846	7926611.160121121
2.278168201446533	7655247.868872046
2.2811436653137207	7463281.620886432
2.284113883972168	7157054.879108189
2.287078857421875	6768734.168080397
2.290038824081421	6481085.225237555
2.2929933071136475	6154410.162230634
2.295942783355713	5970066.003843887
2.298887014389038	6325184.2917781
2.301826238632202	6894517.556852724
2.304760217666626	7277916.119230644
2.3076889514923096	7806995.380113757
2.310612440109253	8626905.09412777
2.3135311603546143	8552330.943944648
2.3164443969726562	6782749.956709945
2.319352865219116	5616593.130529713
2.322256088256836	6295429.323538018
2.3251543045043945	7065019.260847375
2.328047275543213	7495483.21736129
2.330935478210449	7616184.98378118
2.3338186740875244	7336006.204823974
2.3366971015930176	6688480.173145033
2.3395702838897705	5962051.8336579045
2.3424389362335205	5995219.33162868
2.3453025817871094	6225355.788901717
2.348161458969116	6140598.103825371
2.351015567779541	5943574.25053506
2.353865146636963	6316005.02204639
2.3567099571228027	7512257.647382418
2.3595502376556396	8346675.241081682
2.3623859882354736	8579828.082135182
2.3652172088623047	8621259.821331952
2.368043899536133	7530821.25214472
2.370866537094116	5597641.596745332
2.3736846446990967	5001546.122880161
2.3764986991882324	5759250.853113041
2.3793084621429443	6802009.283300901
2.3821144104003906	7506514.856899776
2.384916305541992	7681186.597965131
2.387714147567749	8175110.140413012
2.3905084133148193	8604257.382051675
2.393299102783203	8058611.32140419
2.3960859775543213	7470046.861948098
2.398869514465332	7157654.845461894
2.4016497135162354	6437208.016845004
2.4044265747070312	6056883.028238541
2.407200336456299	6717508.429993122
2.409970998764038	7422551.90982142
2.4127390384674072	7662998.741823999
2.415503978729248	7439677.273489728
2.418266534805298	6708610.726843072
2.4210267066955566	6252556.106451657
2.4237842559814453	6183481.452649861
2.426539897918701	6191265.198483816
2.429293394088745	6898306.409681943
2.4320452213287354	7558154.387501564
2.4347951412200928	6643062.3311664825
2.4375438690185547	6270902.592516407
2.440291166305542	7292645.454238257
2.443037271499634	7417971.981808485
2.445782423019409	7256171.8248332385
2.4485268592834473	7540869.802963812
2.451270818710327	7305641.889089942
2.454014539718628	7239804.251769907
2.4567582607269287	7673462.037445691
2.4595019817352295	7764761.784487605
2.4622461795806885	7955415.845663119
2.4649908542633057	8220999.637959154
2.4677364826202393	7632093.085136884
2.4704833030700684	7144448.5550890425
2.473231554031372	7054348.487491496
2.4759814739227295	7184283.246292946
2.4787333011627197	7613430.846957369
2.481487512588501	7622155.05562564
2.4842441082000732	7796572.256273885
