#wavelength	surface flux
0.6450077295303345	906.6773337956206
0.6472567915916443	1379.1475219244992
0.6494921445846558	1689.0902044627876
0.6517150402069092	1801.8446492694932
0.6539263725280762	1907.9249768372335
0.6561272740364075	2019.1388240478566
0.6583186388015747	2136.2758570240494
0.6605015397071838	2259.925726062842
0.6626768708229065	2388.7143634194103
0.6648455858230591	2522.5826539752775
0.6670085787773132	2661.0109973262684
0.6691668033599854	2796.7581908349343
0.6713210344314575	2939.71831676268
0.6734722256660461	3108.404464468712
0.6756211519241333	3286.421214302561
0.6777685880661011	3461.773942380874
0.6799154281616211	3643.36498314519
0.6820623278617859	3832.3705519510554
0.6842101216316223	4028.62959659309
0.6863595843315125	4230.669731336841
0.688511312007904	4437.621198938524
0.6906660795211792	4655.594323064998
0.6928245425224304	4890.709310605021
0.6949873566627502	5139.609487905731
0.6971551775932312	5392.558377561798
0.6993286609649658	5660.675588503827
0.7015084028244019	5961.950981376877
0.7036949396133423	6276.970934561906
0.7058889269828796	6591.5281626344095
0.7080909013748169	6914.833288528138
0.710301399230957	7252.970916247087
0.712520956993103	7607.121274365177
0.7147500514984131	7970.0454626551
0.7169892191886902	8347.105310356275
0.7192389369010925	8756.675627024248
0.7214996814727783	9190.187166498627
0.723771870136261	9637.246304463339
0.7260559797286987	10103.683506133395
0.7283523678779602	10586.713932649936
0.7306615710258484	11087.90429623071
0.7329838871955872	11603.218284538498
0.7353196740150452	12130.558694868463
0.7376693487167358	12693.704328139736
0.7400332689285278	13289.79944634825
0.7424117922782898	13907.969060691676
0.7448052167892456	14564.082308573765
0.7472138404846191	15271.162903629893
0.7496379613876343	16021.524190086704
0.7520779371261597	16792.3825108349
0.7545340061187744	17578.887667997133
0.7570064663887024	18361.995298738606
0.7594954967498779	19051.664456848142
0.7620013952255249	19059.89791589541
0.7645244002342224	17035.06599645965
0.7670646905899048	14303.427063107822
0.7696225643157959	14753.07457837851
0.7721980810165405	19072.332679247116
0.7747915983200073	23732.117437600667
0.7774031162261963	26134.1707548419
0.7800329327583313	27294.616807195893
0.7826811671257019	28847.739843491472
0.7853479981422424	30680.149871840415
0.7880334854125977	32259.600485343984
0.7907378077507019	33662.05380880709
0.7934610247612	34791.43520826402
0.7962033748626709	36288.29272750229
0.7989648580551147	38482.86416215529
0.801745593547821	40609.84909441561
0.8045456409454346	42547.25349190186
0.8073651194572449	44541.57923441595
0.8102040886878967	46584.16251975787
0.8130625486373901	48727.585493820334
0.8159406185150146	51020.322892112155
0.8188382983207703	53424.860151878696
0.8217556476593018	55899.692191788454
0.8246926665306091	58490.792851795784
0.8276493549346924	61251.44724709337
0.8306257724761963	64140.972375985366
0.8336219191551208	67143.67044505692
0.8366377949714661	70259.12180641369
0.8396733403205872	73492.12857427057
0.8427285552024841	76868.58582559954
0.8458034992218018	80377.26545417018
0.8488980531692505	84064.91272844089
0.8520121574401855	87926.49249643592
0.8551458716392517	91922.47400689803
0.8582990765571594	96059.0250099753
0.8614717125892639	100299.15835992187
0.8646637797355652	104732.4141489108
0.8678751587867737	109489.69360968428
0.8711057901382446	114506.66403211548
0.8743556141853333	119729.79138774665
0.87762451171875	125172.88374611559
0.8809124231338501	130785.24991413501
0.8842192888259888	136581.26672256328
0.8875449895858765	142546.1361298657
0.8908893465995789	148506.6265187137
0.894252359867096	154482.85145242946
0.8976338505744934	160750.9664868287
0.9010337591171265	168047.81047657965
0.9044519662857056	176195.9752378257
0.9078882932662964	184177.47567524304
0.9113426208496094	192039.65390310454
0.914814829826355	199997.61777133436
0.9183048605918884	208238.35786321978
0.9218124747276306	216712.69416320673
0.925337553024292	223367.54967406712
0.9288799166679382	227006.29886584348
0.9324395060539246	229340.3690195313
0.9360161423683167	236656.05768251538
0.9396095871925354	254441.38760043806
0.943219780921936	272252.2092299663
0.9468464851379395	281067.0887898443
0.9504896402359009	289844.3901861765
0.9541489481925964	302922.8182298686
0.9578243494033813	315817.2053815253
0.9615156054496765	329082.17716854555
0.9652225375175476	345976.1558756283
0.9689450263977051	363701.9836165241
0.9726828336715698	378862.3886148106
0.9764357805252075	394019.11734478426
0.9802037477493286	410694.74286628707
0.983986496925354	427540.9467162374
0.9877838492393494	444230.60633795435
0.9915955662727356	462005.03993437276
0.9954215884208679	480772.25982237136
0.9992615580558777	499527.4008723218
1.0031154155731201	518432.11228949425
1.0069829225540161	537938.7210152982
1.0108637809753418	558092.756055946
1.0147579908370972	578850.7021985699
1.018665075302124	600199.4003402011
1.022585153579712	622116.1695416305
1.0265177488327026	644651.8022978753
1.0304628610610962	667775.933765721
1.0344202518463135	691546.3831062168
1.0383895635604858	716012.9540499862
1.0423706769943237	741120.8290181392
1.0463634729385376	766851.8982424253
1.0503677129745483	793265.9419656635
1.0543830394744873	820409.6646466717
1.058409333229065	848396.350111577
1.0624464750289917	877771.9706137637
1.0664942264556885	908109.2206486708
1.0705522298812866	938651.2233717188
1.0746204853057861	969706.1873007535
1.0786986351013184	1001526.1102296973
1.0827864408493042	1034173.0645157587
1.086883783340454	1066762.1491848174
1.0909905433654785	1097592.9583968376
1.0951062440872192	1123644.2401440814
1.0992310047149658	1145515.8059756064
1.10336434841156	1175622.285245899
1.1075061559677124	1216935.6425828096
1.1116561889648438	1240338.780543938
1.115814208984375	1231497.2309754742
1.1199802160263062	1225086.7122596027
1.124153733253479	1258877.4472264042
1.1283347606658936	1335089.9934237883
1.1325229406356812	1399227.5629975228
1.1367181539535522	1442881.2882322448
1.1409201622009277	1493583.7369640796
1.145128846168518	1523537.788289538
1.1493438482284546	1556975.6161159931
1.1535650491714478	1624604.471824406
1.1577922105789185	1680918.5885222028
1.1620250940322876	1715528.2840104972
1.1662636995315552	1765440.011719787
1.170507550239563	1824022.1689190038
1.174756646156311	1888210.3968655062
1.1790107488632202	1964874.9864739175
1.1832695007324219	2031618.1676303707
1.1875330209732056	2094851.8382799635
1.191800832748413	2164562.8597799945
1.1960728168487549	2224909.0024995846
1.2003488540649414	2281855.049673067
1.2046287059783936	2346529.9060619473
1.2089121341705322	2410104.8180451654
1.2131990194320679	2469664.625545544
1.2174891233444214	2532411.048263024
1.2217823266983032	2598062.076278915
1.2260783910751343	2662716.664099844
1.230377197265625	2727930.407859182
1.2346785068511963	2795900.4844514257
1.238982081413269	2864958.8378834776
1.2432878017425537	2933482.074108264
1.2475954294204712	3001615.5487107
1.2519049644470215	3069258.1472100127
1.256216049194336	3139528.2433777386
1.2605286836624146	3213080.6193864346
1.2648425102233887	3285622.634282184
1.2691574096679688	3356236.609937952
1.2734732627868652	3428169.1675214064
1.2777899503707886	3501711.3216958516
1.2821072340011597	3573693.1981153786
1.2864248752593994	3645612.264530303
1.2907428741455078	3711206.813266983
1.2950609922409058	3771605.2489131587
1.2993791103363037	3852223.740078356
1.303696870803833	3947993.089041446
1.3080145120620728	4033617.6953063956
1.3123314380645752	4107303.9807858407
1.3166478872299194	4172667.3770934828
1.3209635019302368	4224713.547093777
1.3252781629562378	4283532.3061927445
1.3295916318893433	4311817.238380637
1.3339040279388428	4168032.5261368463
1.3382149934768677	3930947.302152357
1.3425244092941284	3804831.933754361
1.3468321561813354	3737134.247369474
1.3511382341384888	3579194.0224664356
1.3554422855377197	3459546.2951255995
1.3597444295883179	3506199.340382559
1.3640443086624146	3594806.107448163
1.3683418035507202	3746703.421897168
1.3726370334625244	3976937.8723436566
1.3769296407699585	4256151.508933753
1.381219506263733	4473823.10559591
1.3855066299438477	4459812.649498817
1.3897908926010132	4360179.925614
1.3940720558166504	4329113.465002728
1.3983501195907593	4389048.0277583795
1.4026249647140503	4430359.295952133
1.4068963527679443	4499478.591355823
1.4111642837524414	4680464.787531245
1.4154287576675415	4599358.602363768
1.419689416885376	4308546.896760604
1.4239463806152344	4234680.008178169
1.4281994104385376	4470108.262251038
1.4324485063552856	4947837.208523168
1.436693549156189	5236122.1094959
1.440934419631958	5308164.689165802
1.4451709985733032	5524941.357353556
1.449403166770935	5746177.320242588
1.453631043434143	5932752.301632878
1.4578542709350586	6213989.70185951
1.4620729684829712	6318840.745369658
1.4662868976593018	6277696.60097894
1.4704961776733398	6433464.326307716
1.4747005701065063	6667135.109195885
1.4788999557495117	6901869.634051971
1.4830944538116455	7087522.078705255
1.4872838258743286	7148999.700464541
1.491468071937561	7224047.280311778
1.4956470727920532	7362484.839760957
1.4998208284378052	7517312.918112693
1.5039892196655273	7779796.718912267
1.5081522464752197	8058350.794756757
1.5123097896575928	8243757.930922034
1.5164618492126465	8429891.343079654
1.5206083059310913	8611533.792934116
1.5247491598129272	8721071.90368183
1.5288842916488647	8768995.891637806
1.5330137014389038	8913948.947640166
1.5371372699737549	9159911.825227983
1.541254997253418	9356573.137873424
1.545366883277893	9491485.805249149
1.5494728088378906	9619366.999842664
1.5535727739334106	9743504.784786426
1.5576666593551636	9852721.04994377
1.561754584312439	9961762.446845684
1.5658363103866577	10093940.016481949
1.5699119567871094	10222336.763342671
1.5739814043045044	10343083.081663799
1.5780447721481323	10480296.455395505
1.582101821899414	10611839.411268877
1.5861525535583496	10731525.060878834
1.5901970863342285	10849974.115581147
1.5942351818084717	10969141.94970356
1.5982669591903687	11086428.304349924
1.6022924184799194	11199279.88044589
1.606311559677124	11309727.746095762
1.6103241443634033	11420744.797798064
1.6143304109573364	11535422.045137856
1.6183301210403442	11635331.689596126
1.6223233938217163	11653858.966793166
1.6263102293014526	11600615.167166267
1.6302905082702637	11557467.680751743
1.634264349937439	11593603.103148358
1.638231635093689	11873966.231776638
1.6421923637390137	12206596.72204115
1.646146535873413	12349769.539981166
1.6500942707061768	12442553.122436993
1.6540353298187256	12501959.763093796
1.6579699516296387	12564876.679150762
1.661897897720337	12513877.659686418
1.6658192873001099	12184932.876697356
1.6697341203689575	12288899.00778813
1.6736423969268799	12821385.761647578
1.677544116973877	13005069.139346499
1.6814392805099487	13075149.133228377
1.6853278875350952	13265060.692219857
1.6892099380493164	13364991.240366304
1.6930854320526123	13372211.34575493
1.696954369544983	13385033.256780203
1.7008168697357178	13385893.724792091
1.7046726942062378	13455049.022817278
1.708522081375122	13720056.666930763
1.712364912033081	14040910.87095635
1.7162011861801147	14208085.001239922
1.7200311422348022	14236234.42760526
1.723854422569275	14109209.109658303
1.7276713848114014	13851736.801574748
1.731481909751892	13705992.972481985
1.7352858781814575	13773484.713155733
1.7390835285186768	13937391.773828842
1.7428747415542603	14113942.244460562
1.7466596364974976	14381512.984892292
1.7504380941390991	14513557.867936417
1.7542102336883545	14342818.976546368
1.7579760551452637	14275926.05568492
1.7617355585098267	14314556.12889187
1.7654887437820435	14099417.20731024
1.7692357301712036	13847675.646172857
1.7729763984680176	13884137.01199978
1.776710867881775	13976444.164285636
1.7804391384124756	13920940.506327216
1.7841613292694092	13856587.588498173
1.7878772020339966	13468023.107206685
1.7915871143341064	12831168.531824673
1.7952908277511597	12711161.92936561
1.7989884614944458	12721099.34434185
1.8026801347732544	12732511.47155083
1.806365728378296	12567167.912140729
1.8100452423095703	12335544.420418087
1.8137187957763672	12990024.792637596
1.817386507987976	13650424.943576979
1.8210482597351074	13905675.536458839
1.8247040510177612	14218725.24056569
1.828354001045227	14155994.038484657
1.8319982290267944	14283043.986093668
1.8356364965438843	14735408.91602513
1.8392690420150757	14446447.070558093
1.8428958654403687	13677336.359734703
1.8465168476104736	13019568.382583253
1.8501322269439697	13187572.092814788
1.8537418842315674	13500284.369515158
1.8573459386825562	12991343.155728556
1.860944390296936	12466358.270323154
1.864537239074707	12336884.506955335
1.8681244850158691	12563728.501619551
1.871706247329712	12864098.173716465
1.8752825260162354	13394336.182352692
1.8788533210754395	14230270.812317893
1.8824186325073242	14709236.663374063
1.8859784603118896	15059508.22045802
1.8895330429077148	15658885.026843375
1.8930821418762207	15983138.160010234
1.8966259956359863	16037211.26262156
1.9001644849777222	15901483.547612844
1.9036977291107178	16014358.207791131
1.9072256088256836	16427075.098601881
1.9107483625411987	16287504.603786882
1.9142658710479736	16259373.200403268
1.9177782535552979	16347899.23618358
1.9212853908538818	15633034.76549912
1.9247875213623047	15559142.018922247
1.9282845258712769	16279471.648501316
1.9317764043807983	16141220.814669132
1.9352631568908691	15530405.337828772
1.9387450218200684	14771560.572411466
1.942221760749817	14099227.991098149
1.9456936120986938	13993363.227261728
1.9491604566574097	14436315.360825747
1.952622413635254	14708769.131675191
1.956079363822937	13959476.681424439
1.959531545639038	13776467.736672183
1.962978720664978	15440457.952243892
1.966421127319336	17095634.389958568
1.9698586463928223	17414174.948489558
1.9732913970947266	17247411.231896672
1.9767193794250488	17308765.594407752
1.9801424741744995	17859802.264274415
1.9835609197616577	18410079.86940507
1.9869745969772339	18151127.300325226
1.990383505821228	17620047.600163966
1.9937876462936401	18043001.92411979
1.9971871376037598	18434893.925635178
2.000581979751587	17976127.793064512
2.003972291946411	18095054.97642871
2.007357597351074	19059919.609837413
2.0107386112213135	19980120.966314513
2.0141148567199707	20155185.948808294
2.017486572265625	20044541.21635607
2.0208535194396973	20535230.359002713
2.0242159366607666	20842710.986013554
2.027573823928833	20310703.307508204
2.0309269428253174	20081459.062994305
2.034275770187378	20602804.195474885
2.0376198291778564	20960098.716220114
2.040959596633911	21030819.07770755
2.044294595718384	21451149.342659064
2.0476250648498535	21891854.252925653
2.0509510040283203	22066124.481663153
2.054272413253784	22312057.66493222
2.057589530944824	22548219.225459572
2.0609018802642822	22654125.255428255
2.0642096996307373	22734822.84997554
2.0675129890441895	22914305.233044036
2.0708119869232178	23122342.05782121
2.074106216430664	23306423.28385807
2.0773961544036865	23324148.060872287
2.080681324005127	23180725.314217947
2.0839622020721436	23222387.666787844
2.087238311767578	23426684.564693347
2.090510129928589	23655628.708198335
2.0937774181365967	23881165.301141474
2.0970399379730225	23985877.696206484
2.1002981662750244	24043082.815377437
2.1035518646240234	24141527.56540189
2.1068007946014404	24227701.52329049
2.1100454330444336	24227419.834869023
2.1132853031158447	24217966.20484135
2.116520881652832	24312056.16023272
2.1197516918182373	24474301.831306502
2.1229779720306396	24582880.47529893
2.12619948387146	24628643.495752096
2.1294167041778564	24713102.21346951
2.132629156112671	24826190.593381844
2.1358368396759033	24903156.92146751
2.139039993286133	24947246.623006597
2.1422386169433594	24993984.53923819
2.145432472229004	25019383.221585814
2.1486217975616455	25023823.234184
2.151806354522705	25054478.679005533
2.1549863815307617	25077198.34869974
2.1581614017486572	25164375.540295113
2.16133189201355	25299866.063791987
2.1644976139068604	25392462.8478325
2.167658567428589	25465776.348985616
2.1708147525787354	25492671.527830504
2.173966407775879	25506834.629872184
2.1771130561828613	25594079.376470953
2.1802549362182617	25696128.994065057
2.183391809463501	25707912.762497075
2.1865241527557373	25722193.436191473
2.1896514892578125	25815388.687841542
2.1927738189697266	25879952.720067218
2.1958916187286377	25709807.188359875
2.1990041732788086	25217648.529905386
2.2021119594573975	24953677.072215725
2.2052149772644043	25343672.834447995
2.208312749862671	25912409.372667924
2.2114057540893555	26192719.904670347
2.214493751525879	26156991.57360781
2.217576742172241	25587349.199740443
2.2206547260284424	24605899.260801267
2.2237277030944824	24211498.36897114
2.2267956733703613	24314586.611185614
2.2298583984375	24367642.08808385
2.2329163551330566	24509579.71579145
2.235969066619873	24620816.898740668
2.2390167713165283	24944933.578117713
2.2420592308044434	24889729.104657006
2.2450966835021973	24155748.327226453
2.248128890991211	24022781.82769427
2.2511560916900635	24170879.79521952
2.254178285598755	23858165.780474335
2.257194995880127	24232281.70744413
2.260206699371338	25396388.209499832
2.2632133960723877	25890363.74506173
2.266214609146118	25406761.672055736
2.2692108154296875	24969394.606399607
2.2722020149230957	25279764.259902436
2.2751877307891846	25555172.32644646
2.278168201446533	25195288.305797894
2.2811436653137207	24683128.788651146
2.284113883972168	24180424.386360973
2.287078857421875	23726200.893451855
2.290038824081421	23365561.90546732
2.2929933071136475	22393681.211897574
2.295942783355713	21678819.899048537
2.298887014389038	22490716.1788687
2.301826238632202	23231892.283252068
2.304760217666626	23138085.014009498
2.3076889514923096	23859219.758751575
2.310612440109253	25316187.171330754
2.3135311603546143	25200051.293809712
2.3164443969726562	22832368.136542197
2.319352865219116	21139033.361484397
2.322256088256836	21540073.240108963
2.3251543045043945	22365569.93490507
2.328047275543213	23252615.125048615
2.330935478210449	23852585.14746693
2.3338186740875244	23581459.14462588
2.3366971015930176	22563065.255241122
2.3395702838897705	21900251.12287354
2.3424389362335205	22180581.86241072
2.3453025817871094	21890592.58565886
2.348161458969116	21140804.51080197
2.351015567779541	20424340.939757127
2.353865146636963	20694306.7880465
2.3567099571228027	22569824.20862436
2.3595502376556396	23773035.918060593
2.3623859882354736	24102314.138810918
2.3652172088623047	24306931.693884697
2.368043899536133	22602335.528178226
2.370866537094116	19754914.748963732
2.3736846446990967	19258355.73598576
2.3764986991882324	20394680.673105456
2.3793084621429443	21400396.9683952
2.3821144104003906	22454431.560146887
2.384916305541992	23093498.457911044
2.387714147567749	23743591.239577334
2.3905084133148193	23959910.00029201
2.393299102783203	22865712.35760625
2.3960859775543213	22661645.188092344
2.398869514465332	23266439.27813776
2.4016497135162354	22427394.286011156
2.4044265747070312	21674543.03856702
2.407200336456299	22409912.351116266
2.409970998764038	23117333.723261558
2.4127390384674072	23316524.569044553
2.415503978729248	22980812.006422233
2.418266534805298	22146221.9869732
2.4210267066955566	22032068.943854894
2.4237842559814453	22330567.237200666
2.426539897918701	22246658.980727028
2.429293394088745	22663379.28095712
2.4320452213287354	22579744.117984984
2.4347951412200928	20250205.88735779
2.4375438690185547	19622940.506562185
2.440291166305542	21592392.63062353
2.443037271499634	21691026.66469243
2.445782423019409	21333823.68090332
2.4485268592834473	22256921.36718824
2.451270818710327	21881696.86187141
2.454014539718628	20946113.632749412
2.4567582607269287	21603515.38637774
2.4595019817352295	21978969.587859385
2.4622461795806885	22227845.4596914
2.4649908542633057	22525253.16189256
2.4677364826202393	21017616.3191838
2.4704833030700684	19819825.51771448
2.473231554031372	18972029.085598014
2.4759814739227295	19032627.443037122
