#wavelength	surface flux
0.6450077295303345	9.372436088734898e-13
0.6472567915916443	1.4948045391557299e-12
0.6494921445846558	1.9988570444604334e-12
0.6517150402069092	2.3764097119595734e-12
0.6539263725280762	2.812754370429359e-12
0.6561272740364075	3.3356715607436267e-12
0.6583186388015747	3.968176177547546e-12
0.6605015397071838	4.740543255691639e-12
0.6626768708229065	5.693195424214957e-12
0.6648455858230591	6.880675228202271e-12
0.6670085787773132	8.374869677336331e-12
0.6691668033599854	1.026613428261809e-11
0.6713210344314575	1.2665327889640016e-11
0.6734722256660461	1.57093583937444e-11
0.6756211519241333	1.9568844769291762e-11
0.6777685880661011	2.4455973845210242e-11
0.6799154281616211	3.063152860688545e-11
0.6820623278617859	3.841171503579032e-11
0.6842101216316223	4.8175345077779983e-11
0.6863595843315125	6.036987361978438e-11
0.688511312007904	7.551157916712014e-11
0.6906660795211792	9.41832530511129e-11
0.6928245425224304	1.1703338494485938e-10
0.6949873566627502	1.4475580869362727e-10
0.6971551775932312	1.7803482319857875e-10
0.6993286609649658	2.1752720077712614e-10
0.7015084028244019	2.638941742467429e-10
0.7036949396133423	3.1782985313650705e-10
0.7058889269828796	3.801193458999286e-10
0.7080909013748169	4.516700365839809e-10
0.710301399230957	5.334950694250427e-10
0.712520956993103	6.266911479546572e-10
0.7147500514984131	7.324276510173841e-10
0.7169892191886902	8.520934736740813e-10
0.7192389369010925	9.87352555218413e-10
0.7214996814727783	1.1399597175500919e-09
0.723771870136261	1.3119200790317835e-09
0.7260559797286987	1.5058036991988976e-09
0.7283523678779602	1.7245969490818327e-09
0.7306615710258484	1.9720671395309376e-09
0.7329838871955872	2.253009818302824e-09
0.7353196740150452	2.5722893310432076e-09
0.7376693487167358	2.9360206876621824e-09
0.7400332689285278	3.3525213542857654e-09
0.7424117922782898	3.83170472621071e-09
0.7448052167892456	4.385788194792335e-09
0.7472138404846191	5.030113159925826e-09
0.7496379613876343	5.784099181993678e-09
0.7520779371261597	6.672383016347711e-09
0.7545340061187744	7.72622009456397e-09
0.7570064663887024	8.985582084145036e-09
0.7594954967498779	1.0501072182688525e-08
0.7620013952255249	1.2332473263632223e-08
0.7645244002342224	1.454618071464009e-08
0.7670646905899048	1.7215824366797593e-08
0.7696225643157959	2.042363298814304e-08
0.7721980810165405	2.426052081145131e-08
0.7747915983200073	2.88160139558424e-08
0.7774031162261963	3.4110380527469215e-08
0.7800329327583313	4.0265958420562974e-08
0.7826811671257019	4.765116458439768e-08
0.7853479981422424	5.623408025806244e-08
0.7880334854125977	6.58051175717503e-08
0.7907378077507019	7.62960479850008e-08
0.7934610247612	8.752926783713941e-08
0.7962033748626709	1.0040251788800822e-07
0.7989648580551147	1.1546923899328109e-07
0.801745593547821	1.319494198626059e-07
0.8045456409454346	1.499731558830197e-07
0.8073651194572449	1.7025743306649886e-07
0.8102040886878967	1.9325665235521627e-07
0.8130625486373901	2.1962209874511312e-07
0.8159406185150146	2.5042614036059667e-07
0.8188382983207703	2.8674360668131714e-07
0.8217556476593018	3.296054167932976e-07
0.8246926665306091	3.8062972147377537e-07
0.8276493549346924	4.414677264777997e-07
0.8306257724761963	5.135773691862784e-07
0.8336219191551208	5.991409146020545e-07
0.8366377949714661	7.009321849540365e-07
0.8396733403205872	8.219183563283128e-07
0.8427285552024841	9.655076877446167e-07
0.8458034992218018	1.13559515851992e-06
0.8488980531692505	1.3366095934586205e-06
0.8520121574401855	1.573789875710837e-06
0.8551458716392517	1.8532469064741227e-06
0.8582990765571594	2.181289691552234e-06
0.8614717125892639	2.5647760501082078e-06
0.8646637797355652	3.0115505237801604e-06
0.8678751587867737	3.5300025779027487e-06
0.8711057901382446	4.129424754627433e-06
0.8743556141853333	4.820650784065252e-06
0.87762451171875	5.616715732544756e-06
0.8809124231338501	6.53316554873717e-06
0.8842192888259888	7.587639213434321e-06
0.8875449895858765	8.790882246343957e-06
0.8908893465995789	1.0082112235256766e-05
0.894252359867096	1.1509429514109446e-05
0.8976338505744934	1.3365768153898889e-05
0.9010337591171265	1.5603868886775263e-05
0.9044519662857056	1.803488167757871e-05
0.9078882932662964	2.072932699905962e-05
0.9113426208496094	2.375599028954627e-05
0.914814829826355	2.7178139288376524e-05
0.9183048605918884	3.104870301535102e-05
0.9218124747276306	3.54334226215448e-05
0.925337553024292	4.0358705998382553e-05
0.9288799166679382	4.5660588091063816e-05
0.9324395060539246	5.119369388062256e-05
0.9360161423683167	5.786370408257794e-05
0.9396095871925354	6.687542491173183e-05
0.943219780921936	7.732052636691734e-05
0.9468464851379395	8.817821365504447e-05
0.9504896402359009	0.00010049558542704815
0.9541489481925964	0.0001151515863017434
0.9578243494033813	0.00013255853019658045
0.9615156054496765	0.00015301742629532104
0.9652225375175476	0.00017658925122248905
0.9689450263977051	0.0002037941053451983
0.9726828336715698	0.00023536530741197746
0.9764357805252075	0.00027245219677645793
0.9802037477493286	0.00031617206515262655
0.983986496925354	0.00036730508432271494
0.9877838492393494	0.0004267190766972573
0.9915955662727356	0.0004955474442032012
0.9954215884208679	0.0005751292516644448
0.9992615580558777	0.0006665947361835987
1.0031154155731201	0.0007709742769918205
1.0069829225540161	0.0008895400239456876
1.0108637809753418	0.001023827507653859
1.0147579908370972	0.0011754694304360847
1.018665075302124	0.0013461195386220576
1.022585153579712	0.001537561295800108
1.0265177488327026	0.001752073766588179
1.0304628610610962	0.0019919962284858394
1.0344202518463135	0.002259605044179466
1.0383895635604858	0.002557568261706835
1.0423706769943237	0.002888873516272457
1.0463634729385376	0.0032567712780889753
1.0503677129745483	0.0036648613255408206
1.0543830394744873	0.004117155782668625
1.058409333229065	0.004618089662195539
1.0624464750289917	0.005172680142644771
1.0664942264556885	0.005786447443531524
1.0705522298812866	0.006465471490745916
1.0746204853057861	0.007217084242866129
1.0786986351013184	0.008049269416343034
1.0827864408493042	0.008970291730359365
1.086883783340454	0.009987533907425166
1.0909905433654785	0.011112545961088984
1.0951062440872192	0.012364650327118329
1.0992310047149658	0.013752361488395804
1.10336434841156	0.01526850815475224
1.1075061559677124	0.016893586184297503
1.1116561889648438	0.018624228176371032
1.115814208984375	0.020521509005156428
1.1199802160263062	0.022573585566963997
1.124153733253479	0.025066778441718045
1.1283347606658936	0.02824444067856591
1.1325229406356812	0.03165578521478782
1.1367181539535522	0.03536216280833675
1.1409201622009277	0.03959310422465653
1.145128846168518	0.04414991394834291
1.1493438482284546	0.04907552375888465
1.1535650491714478	0.05430181523185202
1.1577922105789185	0.06010507855827636
1.1620250940322876	0.06719686925443628
1.1662636995315552	0.075325897266636
1.170507550239563	0.08397071889885856
1.174756646156311	0.09339267316000308
1.1790107488632202	0.10383812040316664
1.1832695007324219	0.11541821500140799
1.1875330209732056	0.1282719373201224
1.191800832748413	0.1425202095438667
1.1960728168487549	0.1582881860020753
1.2003488540649414	0.1757354093330013
1.2046287059783936	0.1950882380438523
1.2089121341705322	0.21653686219786647
1.2131990194320679	0.2402674701516359
1.2174891233444214	0.2665478260443863
1.2217823266983032	0.29561516787893705
1.2260783910751343	0.3277411761929481
1.230377197265625	0.36324156883984027
1.2346785068511963	0.40246776497642195
1.238982081413269	0.4458299439225008
1.2432878017425537	0.49367858025372374
1.2475954294204712	0.5464324796223029
1.2519049644470215	0.6046137906435419
1.256216049194336	0.6687729298477249
1.2605286836624146	0.7394731427678933
1.2648425102233887	0.8173198152917882
1.2691574096679688	0.9029849222714968
1.2734732627868652	0.9971921694690034
1.2777899503707886	1.100720902333725
1.2821072340011597	1.214505230840221
1.2864248752593994	1.33950458196128
1.2907428741455078	1.4764986826153164
1.2950609922409058	1.6267967810049098
1.2993791103363037	1.7919990401891088
1.303696870803833	1.9731033657053036
1.3080145120620728	2.170652576836356
1.3123314380645752	2.385153092446543
1.3166478872299194	2.6197207197363834
1.3209635019302368	2.878505667607764
1.3252781629562378	3.160473457847919
1.3295916318893433	3.4569903361320056
1.3339040279388428	3.7630695684897217
1.3382149934768677	4.071710397567589
1.3425244092941284	4.329752761019735
1.3468321561813354	4.5114491783054955
1.3511382341384888	4.644032987122952
1.3554422855377197	4.84404935284374
1.3597444295883179	5.220864599144146
1.3640443086624146	5.714940812110372
1.3683418035507202	6.419036820261793
1.3726370334625244	7.375788379904469
1.3769296407699585	8.298656575096794
1.381219506263733	9.01825248284875
1.3855066299438477	9.704129609581779
1.3897908926010132	10.44186808371986
1.3940720558166504	11.089144412007464
1.3983501195907593	11.960237497031553
1.4026249647140503	13.30559942605796
1.4068963527679443	14.886246986804279
1.4111642837524414	16.237189108972782
1.4154287576675415	17.06801143679072
1.419689416885376	17.94408757641212
1.4239463806152344	19.498136452329216
1.4281994104385376	21.605426231337194
1.4324485063552856	24.252540639809386
1.436693549156189	27.194109900502063
1.440934419631958	30.134279509568383
1.4451709985733032	32.90019716682669
1.449403166770935	35.477644372419924
1.453631043434143	38.8612477318274
1.4578542709350586	42.87629056705819
1.4620729684829712	46.446735110578885
1.4662868976593018	49.742953137324605
1.4704961776733398	53.14291257215914
1.4747005701065063	56.965551029300805
1.4788999557495117	61.67253858840031
1.4830944538116455	66.8923876280196
1.4872838258743286	72.28124999715598
1.491468071937561	77.97066292361704
1.4956470727920532	84.11026044922758
1.4998208284378052	90.66921586154369
1.5039892196655273	97.46830033670736
1.5081522464752197	104.85887233934416
1.5123097896575928	112.74561805501448
1.5164618492126465	120.94703488858403
1.5206083059310913	129.70908066699587
1.5247491598129272	138.94307742007734
1.5288842916488647	148.6340866369083
1.5330137014389038	158.8899772254385
1.5371372699737549	169.77810640507792
1.541254997253418	181.23936446713705
1.545366883277893	193.30885841681518
1.5494728088378906	206.11720119990056
1.5535727739334106	219.66060623940615
1.5576666593551636	233.92622893668147
1.561754584312439	248.97530092075377
1.5658363103866577	264.86539081142
1.5699119567871094	281.60980652483454
1.5739814043045044	299.24009889000536
1.5780447721481323	317.80863243213264
1.582101821899414	337.35006439742386
1.5861525535583496	357.9263032295928
1.5901970863342285	379.5810111175551
1.5942351818084717	402.3430255160581
1.5982669591903687	426.2636579002061
1.6022924184799194	451.3754302197571
1.606311559677124	477.7168639853886
1.6103241443634033	505.30106904975275
1.6143304109573364	532.6082031689484
1.6183301210403442	548.402530893226
1.6223233938217163	539.2132795825892
1.6263102293014526	522.8161133205923
1.6302905082702637	521.5207013430891
1.634264349937439	552.7491800962763
1.638231635093689	628.8744775804408
1.6421923637390137	699.185213681643
1.646146535873413	712.7958143352455
1.6500942707061768	719.3041596564767
1.6540353298187256	754.6792663807945
1.6579699516296387	800.8323480376137
1.661897897720337	831.7782940006381
1.6658192873001099	795.8773493066934
1.6697341203689575	823.2626901931721
1.6736423969268799	969.6345771457746
1.677544116973877	1061.7053539748936
1.6814392805099487	1088.4687187008956
1.6853278875350952	1114.2377609540665
1.6892099380493164	1137.287426323937
1.6930854320526123	1159.746492900427
1.696954369544983	1110.108087762914
1.7008168697357178	953.107070937936
1.7046726942062378	888.7622917415868
1.708522081375122	1077.6173657820057
1.712364912033081	1381.1111751541684
1.7162011861801147	1605.5005108074486
1.7200311422348022	1641.8502332534792
1.723854422569275	1474.261542601169
1.7276713848114014	1310.4937105948607
1.731481909751892	1380.7631220753426
1.7352858781814575	1676.678482311978
1.7390835285186768	1978.8147218706458
1.7428747415542603	2103.448552599865
1.7466596364974976	2157.058008369161
1.7504380941390991	2318.7085621421234
1.7542102336883545	2535.6525553670053
1.7579760551452637	2619.5494806026572
1.7617355585098267	2631.4808209125727
1.7654887437820435	2727.3816912962466
1.7692357301712036	2763.9011048432276
1.7729763984680176	2673.452135085255
1.776710867881775	2810.156471366563
1.7804391384124756	3096.2461554533015
1.7841613292694092	3018.3178033943977
1.7878772020339966	2745.1276307750854
1.7915871143341064	2620.5764032362645
1.7952908277511597	2900.9624706888226
1.7989884614944458	3327.4776926494733
1.8026801347732544	3503.205034777249
1.806365728378296	3587.4547213668993
1.8100452423095703	3549.6565873865766
1.8137187957763672	3527.117561523316
1.817386507987976	3647.423688601975
1.8210482597351074	3917.8167911862606
1.8247040510177612	4337.674794602683
1.828354001045227	4530.092035038709
1.8319982290267944	4549.174749528855
1.8356364965438843	4515.812169236884
1.8392690420150757	4549.917154035084
1.8428958654403687	4894.009893024423
1.8465168476104736	5169.383724478375
1.8501322269439697	5341.771675568763
1.8537418842315674	5494.540006897163
1.8573459386825562	5417.5767698969385
1.860944390296936	5280.612974842985
1.864537239074707	5222.21626339239
1.8681244850158691	5111.007057791959
1.871706247329712	5345.708074367711
1.8752825260162354	6342.165399118274
1.8788533210754395	7452.73771091617
1.8824186325073242	8028.242457516484
1.8859784603118896	8475.729801753745
1.8895330429077148	9011.83591940654
1.8930821418762207	9393.788531223694
1.8966259956359863	9400.425582665397
1.9001644849777222	9026.615896377045
1.9036977291107178	8934.220960031344
1.9072256088256836	9213.849659916828
1.9107483625411987	9018.473626578369
1.9142658710479736	8849.643580121217
1.9177782535552979	9600.883698623218
1.9212853908538818	10150.934168882906
1.9247875213623047	10284.42552024405
1.9282845258712769	10528.6353737952
1.9317764043807983	10883.437590465348
1.9352631568908691	11235.41064048643
1.9387450218200684	10954.745900366153
1.942221760749817	11324.716098100196
1.9456936120986938	12604.576688086363
1.9491604566574097	13394.572383842713
1.952622413635254	13678.929445926116
1.956079363822937	13828.030098931256
1.959531545639038	14346.514136119209
1.962978720664978	15297.69582264088
1.966421127319336	16808.1080761798
1.9698586463928223	18213.02298658664
1.9732913970947266	18957.04084209349
1.9767193794250488	19681.967118846627
1.9801424741744995	20492.136470810005
1.9835609197616577	21573.003033870526
1.9869745969772339	22399.61803281091
1.990383505821228	22791.707656819664
1.9937876462936401	23554.156209907836
1.9971871376037598	24201.70635257718
2.000581979751587	24917.676361741178
2.003972291946411	26010.32898353815
2.007357597351074	26833.391440513522
2.0107386112213135	27733.57843260005
2.0141148567199707	28541.880135255833
2.017486572265625	29060.74298658099
2.0208535194396973	30092.484591557404
2.0242159366607666	31261.17876330467
2.027573823928833	31871.886385909016
2.0309269428253174	32414.574851870828
2.034275770187378	33470.600161598726
2.0376198291778564	34694.354818165
2.040959596633911	35612.237230208855
2.044294595718384	36443.89248272632
2.0476250648498535	37288.50290266852
2.0509510040283203	38019.090114738174
2.054272413253784	38869.89770533665
2.057589530944824	39975.56874845745
2.0609018802642822	41076.89308582571
2.0642096996307373	42030.21202698261
2.0675129890441895	42952.47627406993
2.0708119869232178	43936.29347524235
2.074106216430664	44966.25646651498
2.0773961544036865	45967.62310865733
2.080681324005127	46907.17322530959
2.0839622020721436	47926.37166523168
2.087238311767578	49061.27162190809
2.090510129928589	50178.35062442927
2.0937774181365967	51282.29320986562
2.0970399379730225	52359.18686882012
2.1002981662750244	53411.807264495226
2.1035518646240234	54539.845112064344
2.1068007946014404	55772.22108345678
2.1100454330444336	57012.93129999685
2.1132853031158447	58200.577740107794
2.116520881652832	59356.63002529504
2.1197516918182373	60551.59391822919
2.1229779720306396	61859.931467435854
2.12619948387146	63172.96113895239
2.1294167041778564	64431.42479578192
2.132629156112671	65735.99931004005
2.1358368396759033	67083.94776571081
2.139039993286133	68068.34870135135
2.1422386169433594	68377.72294285893
2.145432472229004	68495.49398023724
2.1486217975616455	68142.75598341094
2.151806354522705	68088.09363933431
2.1549863815307617	69754.02463639474
2.1581614017486572	71794.58555269305
2.16133189201355	72833.6817382399
2.1644976139068604	74634.55796085359
2.167658567428589	77179.00636738962
2.1708147525787354	78699.30614270348
2.173966407775879	79273.95106078438
2.1771130561828613	80441.06057964548
2.1802549362182617	83044.00355788635
2.183391809463501	85234.13642175021
2.1865241527557373	87291.21634734786
2.1896514892578125	89727.6568355246
2.1927738189697266	91421.2606050495
2.1958916187286377	82870.17842474143
2.1990041732788086	58603.48949409041
2.2021119594573975	43671.53442533518
2.2052149772644043	57687.06585622549
2.208312749862671	83576.20296431857
2.2114057540893555	97339.03196697077
2.214493751525879	94401.57884701631
2.217576742172241	81756.07866118853
2.2206547260284424	68359.36625690259
2.2237277030944824	59854.421419187194
2.2267956733703613	53651.81242000897
2.2298583984375	48625.24644428471
2.2329163551330566	48053.03258530862
2.235969066619873	52984.38364913686
2.2390167713165283	56589.45111788328
2.2420592308044434	52373.64476490947
2.2450966835021973	44803.33211008015
2.248128890991211	41332.197828270015
2.2511560916900635	43037.14678894886
2.254178285598755	45083.27197726075
2.257194995880127	48141.01749661813
2.260206699371338	53717.35484362314
2.2632133960723877	57710.99365613458
2.266214609146118	60054.90811188186
2.2692108154296875	63653.66950048889
2.2722020149230957	70172.684317801
2.2751877307891846	71449.1875717642
2.278168201446533	73334.54284703585
2.2811436653137207	74870.75774809996
2.284113883972168	63246.06169016115
2.287078857421875	49586.5902325963
2.290038824081421	43324.882734630766
2.2929933071136475	40752.12666770093
2.295942783355713	37245.49383138492
2.298887014389038	35735.85981722087
2.301826238632202	41995.77419695203
2.304760217666626	57574.06939601583
2.3076889514923096	83744.27852725134
2.310612440109253	120421.6391735249
2.3135311603546143	132393.6767196496
2.3164443969726562	86275.64659198177
2.319352865219116	44217.24593434718
2.322256088256836	56932.907595056044
2.3251543045043945	83488.17630504466
2.328047275543213	94815.14115942814
2.330935478210449	86852.79914454135
2.3338186740875244	66558.73857322203
2.3366971015930176	49362.98973613584
2.3395702838897705	41649.00879607713
2.3424389362335205	42096.101558707844
2.3453025817871094	39732.259435546686
2.348161458969116	39291.031256592105
2.351015567779541	47324.669483728096
2.353865146636963	59167.358868119016
2.3567099571228027	83266.20021107997
2.3595502376556396	114911.82974889468
2.3623859882354736	130999.4406947272
2.3652172088623047	122783.27412159117
2.368043899536133	87747.34396162276
2.370866537094116	44911.669311273465
2.3736846446990967	32215.62903517506
2.3764986991882324	54728.52368636815
2.3793084621429443	91034.74755719872
2.3821144104003906	108700.98281093799
2.384916305541992	106861.83055620952
2.387714147567749	117110.8549609829
2.3905084133148193	134139.48905220412
2.393299102783203	124097.98832025613
2.3960859775543213	86477.02511981758
2.398869514465332	53859.58237878494
2.4016497135162354	41191.46752439416
2.4044265747070312	47314.56322839518
2.407200336456299	63919.42443173751
2.409970998764038	77141.0249881741
2.4127390384674072	85140.59907094012
2.415503978729248	78810.13661681251
2.418266534805298	58158.176796084714
2.4210267066955566	44661.93777694885
2.4237842559814453	39284.556298808
2.426539897918701	38501.21261290383
2.429293394088745	64453.98927573849
2.4320452213287354	96666.61628784158
2.4347951412200928	84249.05320936877
2.4375438690185547	77141.87810480772
