#wavelength	surface flux
0.6450077295303345	700041.2647003148
0.6472567915916443	1055742.3374181949
0.6494921445846558	1272985.7315612314
0.6517150402069092	1334034.986491993
0.6539263725280762	1386057.593612159
0.6561272740364075	1433792.6208076254
0.6583186388015747	1484161.035695118
0.6605015397071838	1540937.8045044176
0.6626768708229065	1596657.9660347856
0.6648455858230591	1646797.755193006
0.6670085787773132	1690859.8934725344
0.6691668033599854	1717445.7451894653
0.6713210344314575	1751036.7718919732
0.6734722256660461	1835038.8505065404
0.6756211519241333	1930317.9969378759
0.6777685880661011	2003828.3260357417
0.6799154281616211	2073874.8920653982
0.6820623278617859	2146701.6151038744
0.6842101216316223	2221861.7628704826
0.6863595843315125	2297063.717480756
0.688511312007904	2372540.4601693368
0.6906660795211792	2450543.007476883
0.6928245425224304	2531713.8083214173
0.6949873566627502	2619034.0620339527
0.6971551775932312	2713330.9074164936
0.6993286609649658	2813415.2155869836
0.7015084028244019	2943961.9493324608
0.7036949396133423	3089736.8763833893
0.7058889269828796	3157520.993444027
0.7080909013748169	3181521.2260030326
0.710301399230957	3251721.7673223056
0.712520956993103	3346746.2833479154
0.7147500514984131	3449296.553860109
0.7169892191886902	3565389.2415463044
0.7192389369010925	3688906.2491981806
0.7214996814727783	3815562.113290091
0.723771870136261	3952180.7321001505
0.7260559797286987	4097305.0715712206
0.7283523678779602	4248682.168564707
0.7306615710258484	4405010.2780505335
0.7329838871955872	4530539.4044037005
0.7353196740150452	4613141.8525602
0.7376693487167358	4694906.877894664
0.7400332689285278	4778328.1877684295
0.7424117922782898	4865137.448926039
0.7448052167892456	4972292.509333744
0.7472138404846191	5102181.9737286465
0.7496379613876343	5253515.2649766905
0.7520779371261597	5410093.326292168
0.7545340061187744	5566242.68675969
0.7570064663887024	5705796.62194362
0.7594954967498779	5793052.831933953
0.7620013952255249	5701867.172642735
0.7645244002342224	5149980.085283128
0.7670646905899048	4472748.090003172
0.7696225643157959	4541838.384722365
0.7721980810165405	5471519.132827563
0.7747915983200073	6491718.144086153
0.7774031162261963	7024720.3002291955
0.7800329327583313	7268655.5590258185
0.7826811671257019	7594248.492191573
0.7853479981422424	7932555.162681448
0.7880334854125977	8154000.608210554
0.7907378077507019	8318088.163193566
0.7934610247612	8413135.702334953
0.7962033748626709	8589502.66788063
0.7989648580551147	8943916.016761439
0.801745593547821	9355185.885658614
0.8045456409454346	9781573.656961653
0.8073651194572449	10247052.060319955
0.8102040886878967	10757436.17806723
0.8130625486373901	11260435.9358364
0.8159406185150146	11617671.257808793
0.8188382983207703	11896653.129870739
0.8217556476593018	12625753.984288124
0.8246926665306091	13806090.075362986
0.8276493549346924	14533706.190111268
0.8306257724761963	14638112.737760298
0.8336219191551208	14941743.68831334
0.8366377949714661	15567304.117816899
0.8396733403205872	16051335.24732884
0.8427285552024841	16053117.585718177
0.8458034992218018	15606310.461190028
0.8488980531692505	15429986.530729508
0.8520121574401855	15710902.463062914
0.8551458716392517	16142880.583338227
0.8582990765571594	16520973.065169375
0.8614717125892639	16755247.043474296
0.8646637797355652	16949672.4483922
0.8678751587867737	17102976.073316358
0.8711057901382446	17365340.628978454
0.8743556141853333	17835847.574506003
0.87762451171875	18410473.835496046
0.8809124231338501	19061879.640574686
0.8842192888259888	19729492.971719336
0.8875449895858765	20335295.445297416
0.8908893465995789	20848761.400911
0.894252359867096	21295967.284839056
0.8976338505744934	21889608.23915666
0.9010337591171265	22494506.981522657
0.9044519662857056	22885346.022346377
0.9078882932662964	23290118.630772974
0.9113426208496094	23903295.838333666
0.914814829826355	24624987.413402535
0.9183048605918884	25320755.582289323
0.9218124747276306	25970144.98156716
0.925337553024292	26564029.41155943
0.9288799166679382	27158732.050555076
0.9324395060539246	27898845.25611374
0.9360161423683167	28816509.24402592
0.9396095871925354	29806185.91181905
0.943219780921936	30829668.373414643
0.9468464851379395	31901316.89281332
0.9504896402359009	32925542.74766258
0.9541489481925964	33621337.06245804
0.9578243494033813	33894744.30788656
0.9615156054496765	33947200.677458316
0.9652225375175476	34156687.52483179
0.9689450263977051	34823318.72242045
0.9726828336715698	35937972.64249143
0.9764357805252075	37592189.076057054
0.9802037477493286	39727474.796238475
0.983986496925354	41734642.18621526
0.9877838492393494	42107838.034514055
0.9915955662727356	40006595.86873076
0.9954215884208679	38422418.39343137
0.9992615580558777	38929439.67734893
1.0031154155731201	39822085.64691306
1.0069829225540161	40687186.14583508
1.0108637809753418	41628345.599529795
1.0147579908370972	42590400.12736013
1.018665075302124	43589334.87222712
1.022585153579712	44670229.61977619
1.0265177488327026	45830677.45667869
1.0304628610610962	47051602.33241431
1.0344202518463135	48337228.64634988
1.0383895635604858	49718195.47002066
1.0423706769943237	51161277.55197493
1.0463634729385376	52343795.240067646
1.0503677129745483	52986570.14366012
1.0543830394744873	53328754.17883152
1.058409333229065	53731604.980689615
1.0624464750289917	54741512.74115755
1.0664942264556885	56861792.88304451
1.0705522298812866	59838725.28269837
1.0746204853057861	63166981.66460317
1.0786986351013184	66607506.35760749
1.0827864408493042	70111080.82562986
1.086883783340454	74770029.26019862
1.0909905433654785	81796634.47133157
1.0951062440872192	87586054.92489365
1.0992310047149658	88544911.37125392
1.10336434841156	86208961.21999636
1.1075061559677124	83988074.81857388
1.1116561889648438	84313884.30008177
1.115814208984375	86103553.99907589
1.1199802160263062	87727935.07357256
1.124153733253479	89666201.37915832
1.1283347606658936	90514149.67960817
1.1325229406356812	87484220.4827252
1.1367181539535522	81478603.37119015
1.1409201622009277	79535875.97974095
1.145128846168518	86368267.89962219
1.1493438482284546	94712608.13237643
1.1535650491714478	98139430.88473114
1.1577922105789185	98374446.93584271
1.1620250940322876	96022542.28461556
1.1662636995315552	90183758.76671138
1.170507550239563	85078556.38499942
1.174756646156311	83652257.53756693
1.1790107488632202	86125447.47241446
1.1832695007324219	94176521.2931643
1.1875330209732056	101229681.28396776
1.191800832748413	100567295.01856293
1.1960728168487549	95741376.69006601
1.2003488540649414	92610799.55515364
1.2046287059783936	93608597.6783894
1.2089121341705322	96474859.71215284
1.2131990194320679	98138017.53481865
1.2174891233444214	100477197.41806754
1.2217823266983032	104030989.03844468
1.2260783910751343	106127012.05575913
1.230377197265625	107082797.20578289
1.2346785068511963	107745397.21665719
1.238982081413269	106576270.63166252
1.2432878017425537	104500139.19635382
1.2475954294204712	105002597.84021512
1.2519049644470215	107330480.07908711
1.256216049194336	112009347.1303033
1.2605286836624146	117879328.44721061
1.2648425102233887	121231780.05452046
1.2691574096679688	123288793.63944511
1.2734732627868652	125533001.49104033
1.2777899503707886	127952757.85883924
1.2821072340011597	130476251.79937229
1.2864248752593994	133358860.7857697
1.2907428741455078	136760287.7800167
1.2950609922409058	140797165.70628643
1.2993791103363037	145711442.4387647
1.303696870803833	150963363.62598002
1.3080145120620728	155726934.78126615
1.3123314380645752	160283988.18649805
1.3166478872299194	164168414.35018358
1.3209635019302368	166179925.5240396
1.3252781629562378	165278107.1305918
1.3295916318893433	157627170.3900094
1.3339040279388428	140301135.61185697
1.3382149934768677	123124994.74673723
1.3425244092941284	115900710.36819458
1.3468321561813354	114023896.42169157
1.3511382341384888	112813512.30921303
1.3554422855377197	113510786.42759262
1.3597444295883179	117652426.61873512
1.3640443086624146	123681557.37441856
1.3683418035507202	128822833.78848454
1.3726370334625244	133529667.40395142
1.3769296407699585	137729684.22851998
1.381219506263733	137828602.58637965
1.3855066299438477	134184040.34570155
1.3897908926010132	130413911.55752604
1.3940720558166504	128073032.64999919
1.3983501195907593	128524085.58546664
1.4026249647140503	131050038.12576084
1.4068963527679443	132203470.99167874
1.4111642837524414	131086991.21409085
1.4154287576675415	129748212.8083131
1.419689416885376	129247692.44818056
1.4239463806152344	130067398.50233805
1.4281994104385376	132348179.19222416
1.4324485063552856	134759442.59548742
1.436693549156189	136481196.2763688
1.440934419631958	138316355.082545
1.4451709985733032	140383041.5967688
1.449403166770935	142659662.43685576
1.453631043434143	145669692.44155696
1.4578542709350586	148809911.35435638
1.4620729684829712	150806303.47820392
1.4662868976593018	151854034.8394233
1.4704961776733398	153541557.38163903
1.4747005701065063	155954875.26284096
1.4788999557495117	157897975.8066328
1.4830944538116455	159470656.69238594
1.4872838258743286	161604624.41256964
1.491468071937561	164096810.50459412
1.4956470727920532	166444007.8770692
1.4998208284378052	168736916.8003355
1.5039892196655273	171283257.80519548
1.5081522464752197	173748541.17115164
1.5123097896575928	175635395.23044884
1.5164618492126465	177329722.1982665
1.5206083059310913	179747902.86053
1.5247491598129272	182367863.14601016
1.5288842916488647	184493079.45133546
1.5330137014389038	186461220.75758561
1.5371372699737549	188286664.07598668
1.541254997253418	190149603.2697161
1.545366883277893	192225575.6001686
1.5494728088378906	194023612.70529434
1.5535727739334106	195434142.10019612
1.5576666593551636	196265748.22175044
1.561754584312439	197214612.92648825
1.5658363103866577	199020829.1160364
1.5699119567871094	200714798.0484286
1.5739814043045044	202312070.0940515
1.5780447721481323	204647621.69277546
1.582101821899414	206921135.93587846
1.5861525535583496	208275227.9862813
1.5901970863342285	208799615.13156125
1.5942351818084717	209068442.8473544
1.5982669591903687	209889281.8464064
1.6022924184799194	211410016.24891186
1.606311559677124	213451330.60134634
1.6103241443634033	215195112.79800412
1.6143304109573364	216277301.7292626
1.6183301210403442	217247054.65339366
1.6223233938217163	218101732.8347263
1.6263102293014526	218751070.67398188
1.6302905082702637	219844524.9591134
1.634264349937439	221347677.74846768
1.638231635093689	222780755.59992805
1.6421923637390137	223933514.38168085
1.646146535873413	224597948.0845057
1.6500942707061768	224643295.4732115
1.6540353298187256	224904162.8281186
1.6579699516296387	225614389.07752383
1.661897897720337	226528894.7795126
1.6658192873001099	227586064.19286174
1.6697341203689575	228383563.8999317
1.6736423969268799	229055425.25815284
1.677544116973877	229501394.57019514
1.6814392805099487	229597168.8899334
1.6853278875350952	229062577.6641385
1.6892099380493164	228560971.55298224
1.6930854320526123	228445579.40471888
1.696954369544983	228009880.7875881
1.7008168697357178	227646070.53402278
1.7046726942062378	226829990.85481152
1.708522081375122	224992365.5174426
1.712364912033081	222555837.57896054
1.7162011861801147	219762456.9523774
1.7200311422348022	218132360.95944488
1.723854422569275	217343472.82085118
1.7276713848114014	215724387.8334705
1.731481909751892	213625817.19519383
1.7352858781814575	210905105.6381452
1.7390835285186768	207190520.98027337
1.7428747415542603	204208190.61311147
1.7466596364974976	202097193.99176824
1.7504380941390991	199595491.98888403
1.7542102336883545	196264736.73650086
1.7579760551452637	193331567.04494262
1.7617355585098267	192385625.852606
1.7654887437820435	190605508.37508342
1.7692357301712036	186943969.15679947
1.7729763984680176	183679228.23202434
1.776710867881775	181038137.4977909
1.7804391384124756	178456537.10304207
1.7841613292694092	175672289.5867404
1.7878772020339966	174518630.11663994
1.7915871143341064	174063755.26081356
1.7952908277511597	171788298.07778293
1.7989884614944458	168356210.79792207
1.8026801347732544	166282521.7015492
1.806365728378296	166703580.1466153
1.8100452423095703	167751271.21464497
1.8137187957763672	168522091.27492303
1.817386507987976	166698050.97290447
1.8210482597351074	166441847.08748868
1.8247040510177612	170114162.15384138
1.828354001045227	170654542.55341455
1.8319982290267944	170142921.41666955
1.8356364965438843	170542938.68105787
1.8392690420150757	169743020.37356067
1.8428958654403687	168227523.6621909
1.8465168476104736	164872705.45506427
1.8501322269439697	161707566.62374747
1.8537418842315674	159086880.7238256
1.8573459386825562	154909272.2226323
1.860944390296936	152860844.13620514
1.864537239074707	155113129.9098907
1.8681244850158691	158920497.34789553
1.871706247329712	162286951.89298272
1.8752825260162354	165561492.3501097
1.8788533210754395	169471695.5860355
1.8824186325073242	173372577.88160825
1.8859784603118896	176215912.53894705
1.8895330429077148	177310916.3667144
1.8930821418762207	178478370.03165013
1.8966259956359863	180319029.34032908
1.9001644849777222	180496739.9328535
1.9036977291107178	179597209.89707506
1.9072256088256836	181015628.3476837
1.9107483625411987	182631789.59413823
1.9142658710479736	181835211.10267213
1.9177782535552979	180331641.35395923
1.9212853908538818	177696769.73576763
1.9247875213623047	176391791.0558672
1.9282845258712769	176869057.08988777
1.9317764043807983	175726816.57459226
1.9352631568908691	172494852.35578436
1.9387450218200684	166644281.10261783
1.942221760749817	165101585.5292453
1.9456936120986938	169262804.28235662
1.9491604566574097	171546502.1263135
1.952622413635254	169363581.7074604
1.956079363822937	165644045.77933124
1.959531545639038	165692735.2928381
1.962978720664978	168326737.15864655
1.966421127319336	171189507.4757034
1.9698586463928223	171824947.21893394
1.9732913970947266	169233430.95205638
1.9767193794250488	167511140.45677593
1.9801424741744995	168554201.93175483
1.9835609197616577	172654676.47539043
1.9869745969772339	174921523.98143426
1.990383505821228	171821491.3923967
1.9937876462936401	171479173.85061306
1.9971871376037598	172883558.779929
2.000581979751587	174102751.52942622
2.003972291946411	177537526.65068975
2.007357597351074	176727098.27662683
2.0107386112213135	175344673.9674925
2.0141148567199707	178547374.6136027
2.017486572265625	180646398.2584109
2.0208535194396973	182435074.9324882
2.0242159366607666	183991020.4550282
2.027573823928833	182765162.38448817
2.0309269428253174	183899960.14272013
2.034275770187378	186997474.39781713
2.0376198291778564	188119323.12958974
2.040959596633911	189257410.98395154
2.044294595718384	190720712.99155724
2.0476250648498535	191901533.3425819
2.0509510040283203	192682938.59089297
2.054272413253784	193093448.49477473
2.057589530944824	194361982.0505923
2.0609018802642822	194728695.97664124
2.0642096996307373	195041859.38613263
2.0675129890441895	197831481.35324413
2.0708119869232178	199445698.9036872
2.074106216430664	199349869.21319884
2.0773961544036865	200537346.06064194
2.080681324005127	201706977.5894841
2.0839622020721436	202074070.53400683
2.087238311767578	202362199.0455361
2.090510129928589	202407744.37300286
2.0937774181365967	201363468.9820972
2.0970399379730225	200861608.709467
2.1002981662750244	201370891.2828411
2.1035518646240234	202117246.78841358
2.1068007946014404	203752176.7440759
2.1100454330444336	204891952.6705884
2.1132853031158447	205310361.89972124
2.116520881652832	205103024.0886702
2.1197516918182373	205184622.5483977
2.1229779720306396	206416555.96031103
2.12619948387146	206544428.371215
2.1294167041778564	205420626.0696791
2.132629156112671	205641353.62610447
2.1358368396759033	206139883.9730424
2.139039993286133	205768596.52428666
2.1422386169433594	206436409.32689354
2.145432472229004	207871912.75690335
2.1486217975616455	207832732.9114005
2.151806354522705	207053980.7601605
2.1549863815307617	207181080.65906033
2.1581614017486572	207056283.77690545
2.16133189201355	206208470.13027525
2.1644976139068604	205847059.67040205
2.167658567428589	206225749.36599338
2.1708147525787354	205878298.4245113
2.173966407775879	205357149.10612577
2.1771130561828613	205582433.4737531
2.1802549362182617	206233052.0292835
2.183391809463501	206650597.63320228
2.1865241527557373	206129319.10509193
2.1896514892578125	205663136.98451322
2.1927738189697266	205723475.4794412
2.1958916187286377	205762743.30525854
2.1990041732788086	205254399.37523305
2.2021119594573975	204453028.00543442
2.2052149772644043	204038768.1540114
2.208312749862671	204105359.89749587
2.2114057540893555	204519037.41436535
2.214493751525879	204652516.53860292
2.217576742172241	203802193.50381973
2.2206547260284424	202952750.28178164
2.2237277030944824	203076265.73816064
2.2267956733703613	202831788.38051787
2.2298583984375	202403120.53983486
2.2329163551330566	202248765.1508626
2.235969066619873	201682593.51370728
2.2390167713165283	201538345.72265115
2.2420592308044434	201711983.31091937
2.2450966835021973	201593625.95176822
2.248128890991211	201131046.53704873
2.2511560916900635	200592839.99249187
2.254178285598755	200176550.68133464
2.257194995880127	199947880.33629343
2.260206699371338	199906503.06435087
2.2632133960723877	199212013.2742377
2.266214609146118	198541293.36794454
2.2692108154296875	198380436.54258996
2.2722020149230957	198052216.27474642
2.2751877307891846	197971000.88310963
2.278168201446533	197461842.5100522
2.2811436653137207	196504484.55885288
2.284113883972168	196606338.92257935
2.287078857421875	197371512.13713926
2.290038824081421	195073510.532183
2.2929933071136475	185948020.53917453
2.295942783355713	176963209.44717917
2.298887014389038	175090937.92703888
2.301826238632202	174975545.6266088
2.304760217666626	173231636.76135826
2.3076889514923096	173349162.1079399
2.310612440109253	175854419.02302077
2.3135311603546143	176975273.21151504
2.3164443969726562	177053250.42792475
2.319352865219116	176663529.2655634
2.322256088256836	172677555.26724452
2.3251543045043945	168792947.60075063
2.328047275543213	169957123.757617
2.330935478210449	172439202.9693652
2.3338186740875244	173282890.22800675
2.3366971015930176	173674342.79098222
2.3395702838897705	174432536.91155803
2.3424389362335205	174820261.6251531
2.3453025817871094	175248604.21994203
2.348161458969116	176687761.51757774
2.351015567779541	175121274.70495462
2.353865146636963	171533811.192362
2.3567099571228027	170172954.0857685
2.3595502376556396	169450557.09401894
2.3623859882354736	170044726.38465717
2.3652172088623047	171254578.39747038
2.368043899536133	171065747.83288133
2.370866537094116	171937367.58280417
2.3736846446990967	173195572.2584571
2.3764986991882324	172600344.71756908
2.3793084621429443	170578814.40447408
2.3821144104003906	168097751.6835393
2.384916305541992	166474134.75624907
2.387714147567749	166099581.07497996
2.3905084133148193	167018138.49831426
2.393299102783203	167721979.37690276
2.3960859775543213	167776886.10450774
2.398869514465332	167267826.67741016
2.4016497135162354	165336633.1585114
2.4044265747070312	163579847.5044447
2.407200336456299	162442147.9502599
2.409970998764038	161360021.4697415
2.4127390384674072	160108618.89644668
2.415503978729248	158995293.7203572
2.418266534805298	158254432.18689325
2.4210267066955566	156562384.29738817
2.4237842559814453	154514862.60571444
2.426539897918701	153108308.90968242
2.429293394088745	152101343.1828333
2.4320452213287354	150395600.84769633
2.4347951412200928	146804155.50437358
2.4375438690185547	145372185.52091476
2.440291166305542	145081333.36591625
2.443037271499634	141587825.6828634
2.445782423019409	139259535.19597942
2.4485268592834473	139087617.98824516
2.451270818710327	134942665.79627678
2.454014539718628	131812001.35529988
2.4567582607269287	137937622.14589614
2.4595019817352295	138354946.6796026
2.4622461795806885	135169105.4256747
2.4649908542633057	134886490.03621778
2.4677364826202393	128951417.5562119
2.4704833030700684	125445445.87370369
2.473231554031372	122348751.2238984
