#wavelength	surface flux
0.6450077295303345	6.774887984252784e-05
0.6472567915916443	0.00010539055774267452
0.6494921445846558	0.00013461169597555844
0.6517150402069092	0.00015133792113606592
0.6539263725280762	0.00016921375113317406
0.6561272740364075	0.00018944755224885616
0.6583186388015747	0.0002125674914182609
0.6605015397071838	0.00023923203427368714
0.6626768708229065	0.00027027016198302457
0.6648455858230591	0.0003067349991843181
0.6670085787773132	0.00034990834351044514
0.6691668033599854	0.000401222761013921
0.6713210344314575	0.00046220178450741967
0.6734722256660461	0.0005345064789379205
0.6756211519241333	0.0006200069487383555
0.6777685880661011	0.0007207988069684294
0.6799154281616211	0.0008391968466452783
0.6820623278617859	0.0009777309998514326
0.6842101216316223	0.0011390964934408882
0.6863595843315125	0.0013261071380835092
0.688511312007904	0.0015416217373093964
0.6906660795211792	0.0017883308521388693
0.6928245425224304	0.0020689222355400783
0.6949873566627502	0.002386060177771284
0.6971551775932312	0.0027413259573840095
0.6993286609649658	0.00313534252657722
0.7015084028244019	0.0035688489105288254
0.7036949396133423	0.004042813550474437
0.7058889269828796	0.004558543194694698
0.7080909013748169	0.005117758083338929
0.710301399230957	0.005722674562913459
0.712520956993103	0.0063754983568245615
0.7147500514984131	0.007077699702417124
0.7169892191886902	0.007832292453470866
0.7192389369010925	0.008644783527100722
0.7214996814727783	0.00951861841448736
0.723771870136261	0.010456570979334338
0.7260559797286987	0.011464970723674852
0.7283523678779602	0.01255105043330145
0.7306615710258484	0.013723681095276585
0.7329838871955872	0.014995098058465568
0.7353196740150452	0.01637522154308223
0.7376693487167358	0.017876680166014916
0.7400332689285278	0.019518067506514962
0.7424117922782898	0.02132007016532451
0.7448052167892456	0.023308171217800617
0.7472138404846191	0.025512542965849358
0.7496379613876343	0.027968940747330712
0.7520779371261597	0.0307217689552144
0.7545340061187744	0.033825833815522045
0.7570064663887024	0.037346674796470414
0.7594954967498779	0.04136057214922188
0.7620013952255249	0.04594829796969739
0.7645244002342224	0.05118618892425715
0.7670646905899048	0.05714644316023877
0.7696225643157959	0.06390079091550821
0.7721980810165405	0.07151627579218442
0.7747915983200073	0.07994565507860353
0.7774031162261963	0.08825169997175962
0.7800329327583313	0.09680878078879519
0.7826811671257019	0.10903967861899444
0.7853479981422424	0.12370755681999737
0.7880334854125977	0.1378040123908462
0.7907378077507019	0.15133730453268207
0.7934610247612	0.16337031971672483
0.7962033748626709	0.17841756116440138
0.7989648580551147	0.1988928740332899
0.801745593547821	0.21944019098544293
0.8045456409454346	0.23929632144882365
0.8073651194572449	0.2606078452070999
0.8102040886878967	0.2837135854410627
0.8130625486373901	0.3090479539491721
0.8159406185150146	0.3373803158591135
0.8188382983207703	0.36927866646204277
0.8217556476593018	0.4050149053747344
0.8246926665306091	0.44537549329445003
0.8276493549346924	0.4910421973676869
0.8306257724761963	0.5422279370469285
0.8336219191551208	0.5996244036802035
0.8366377949714661	0.6641262051294782
0.8396733403205872	0.736425484334271
0.8427285552024841	0.8172890913557855
0.8458034992218018	0.9073633654453014
0.8488980531692505	1.006572163258413
0.8520121574401855	1.1161577882290976
0.8551458716392517	1.2400413379782984
0.8582990765571594	1.377954348641096
0.8614717125892639	1.5281506546379358
0.8646637797355652	1.6924237482981157
0.8678751587867737	1.8720702270618088
0.8711057901382446	2.067951128588464
0.8743556141853333	2.281156663229181
0.87762451171875	2.5131127647215172
0.8809124231338501	2.7654895607693333
0.8842192888259888	3.0400811760564386
0.8875449895858765	3.335570305632109
0.8908893465995789	3.6248610357291264
0.894252359867096	3.9199131419516493
0.8976338505744934	4.318107274832594
0.9010337591171265	4.789992398450107
0.9044519662857056	5.257438405804417
0.9078882932662964	5.742150590432212
0.9113426208496094	6.260488592165486
0.914814829826355	6.820168100292111
0.9183048605918884	7.42468977966478
0.9218124747276306	8.077822536154253
0.925337553024292	8.766276461334076
0.9288799166679382	9.45577145726162
0.9324395060539246	10.162276788259291
0.9360161423683167	11.020203297078002
0.9396095871925354	12.103803005438406
0.943219780921936	13.260163847122096
0.9468464851379395	14.407871280772778
0.9504896402359009	15.66411281647132
0.9541489481925964	17.074454127436123
0.9578243494033813	18.638979689061266
0.9615156054496765	20.3942350485303
0.9652225375175476	22.352026567268215
0.9689450263977051	24.504076464122956
0.9726828336715698	26.838059160377906
0.9764357805252075	29.397255239632
0.9802037477493286	32.25093413956273
0.983986496925354	35.41463109007002
0.9877838492393494	38.873517827867595
0.9915955662727356	42.64011149933458
0.9954215884208679	46.74478550553591
0.9992615580558777	51.196995686817345
1.0031154155731201	55.993758752527555
1.0069829225540161	61.1420337529267
1.0108637809753418	66.66245149424121
1.0147579908370972	72.57426045178035
1.018665075302124	78.89020413394714
1.022585153579712	85.6243930336809
1.0265177488327026	92.80355815189155
1.0304628610610962	100.45501788172976
1.0344202518463135	108.6029783633351
1.0383895635604858	117.27159611691503
1.0423706769943237	126.48354267828803
1.0463634729385376	136.27101460978741
1.0503677129745483	146.6723238088007
1.0543830394744873	157.7231412399957
1.058409333229065	169.45992262564988
1.0624464750289917	181.92791046739822
1.0664942264556885	195.1768771710705
1.0705522298812866	209.2585119568028
1.0746204853057861	224.23483205742528
1.0786986351013184	240.16609804564015
1.0827864408493042	257.10556019213567
1.086883783340454	275.07547670218594
1.0909905433654785	294.1198649126423
1.0951062440872192	314.3199814649097
1.0992310047149658	335.44609736804716
1.10336434841156	356.8959599396214
1.1075061559677124	378.34178511333477
1.1116561889648438	400.0699136592342
1.115814208984375	422.75831679817384
1.1199802160263062	446.9444799295939
1.124153733253479	478.15097998207295
1.1283347606658936	517.4848596276205
1.1325229406356812	554.6484937319135
1.1367181539535522	594.8153610689332
1.1409201622009277	642.2870854293938
1.145128846168518	687.2208827601485
1.1493438482284546	731.0291074639802
1.1535650491714478	776.7711574504285
1.1577922105789185	827.1611330532447
1.1620250940322876	888.6496993755142
1.1662636995315552	957.0199981155822
1.170507550239563	1026.0621642154938
1.174756646156311	1098.4614833352289
1.1790107488632202	1175.2104559626143
1.1832695007324219	1255.5923080369225
1.1875330209732056	1340.5763433398267
1.191800832748413	1430.7393140498377
1.1960728168487549	1526.2290641060838
1.2003488540649414	1627.232970881336
1.2046287059783936	1734.151569272201
1.2089121341705322	1847.5000316080605
1.2131990194320679	1967.8528314456291
1.2174891233444214	2095.779580096758
1.2217823266983032	2231.457433180063
1.2260783910751343	2375.1624958578104
1.230377197265625	2527.3594440433135
1.2346785068511963	2688.5467392516607
1.238982081413269	2859.3627777922643
1.2432878017425537	3040.125922451869
1.2475954294204712	3231.207530568686
1.2519049644470215	3433.2025328494074
1.256216049194336	3646.816108337279
1.2605286836624146	3872.5998967768332
1.2648425102233887	4110.907823180076
1.2691574096679688	4362.193279740008
1.2734732627868652	4626.962334225878
1.2777899503707886	4905.778535148539
1.2821072340011597	5199.452646969651
1.2864248752593994	5508.61120668991
1.2907428741455078	5832.562178939338
1.2950609922409058	6172.688469728516
1.2993791103363037	6532.456167057526
1.303696870803833	6912.95868647182
1.3080145120620728	7311.945467605131
1.3123314380645752	7724.486206068852
1.3166478872299194	8157.93255144524
1.3209635019302368	8617.092652093843
1.3252781629562378	9086.319768146197
1.3295916318893433	9529.203225886424
1.3339040279388428	9859.418582145028
1.3382149934768677	9964.007845813247
1.3425244092941284	9799.883132410536
1.3468321561813354	9430.52671913681
1.3511382341384888	9028.227067123516
1.3554422855377197	8908.193630511281
1.3597444295883179	9287.793738317072
1.3640443086624146	10121.347978152291
1.3683418035507202	11357.292618713886
1.3726370334625244	12815.27509242754
1.3769296407699585	13893.667740412688
1.381219506263733	14121.122842400537
1.3855066299438477	14207.955823514632
1.3897908926010132	14706.73206609922
1.3940720558166504	15249.259042435706
1.3983501195907593	16145.773076215057
1.4026249647140503	17445.63908680181
1.4068963527679443	18597.843214133234
1.4111642837524414	19482.90849647607
1.4154287576675415	20026.455264257074
1.419689416885376	20504.597846094934
1.4239463806152344	21670.481631069353
1.4281994104385376	23402.851735825618
1.4324485063552856	25323.22362825242
1.436693549156189	27394.290624485355
1.440934419631958	29494.588475499066
1.4451709985733032	31525.07176325151
1.449403166770935	33514.917845931726
1.453631043434143	35904.29654479801
1.4578542709350586	38472.00211466734
1.4620729684829712	40548.0961371373
1.4662868976593018	42211.33207192378
1.4704961776733398	43830.57383977767
1.4747005701065063	45740.03794787844
1.4788999557495117	47930.45836144257
1.4830944538116455	50211.043181656176
1.4872838258743286	52584.34172407368
1.491468071937561	55008.752719423064
1.4956470727920532	57551.82529766977
1.4998208284378052	60271.8195642267
1.5039892196655273	63068.73859107284
1.5081522464752197	65921.11302695806
1.5123097896575928	68795.74125267351
1.5164618492126465	71693.84771392324
1.5206083059310913	74696.38922741535
1.5247491598129272	77745.20076763407
1.5288842916488647	80796.12020143974
1.5330137014389038	83914.83567124643
1.5371372699737549	87155.25039918152
1.541254997253418	90452.19916188494
1.545366883277893	93798.03374775326
1.5494728088378906	97234.68948831689
1.5535727739334106	100756.83993048282
1.5576666593551636	104359.83338683806
1.561754584312439	108056.35097666927
1.5658363103866577	111846.17468252718
1.5699119567871094	115724.91865604723
1.5739814043045044	119698.27406178506
1.5780447721481323	123759.69574576567
1.582101821899414	127912.51349018238
1.5861525535583496	132167.54098431024
1.5901970863342285	136524.28189278333
1.5942351818084717	140989.42263584875
1.5982669591903687	145574.92585551666
1.6022924184799194	150262.39649203565
1.606311559677124	155030.75389828192
1.6103241443634033	159847.37472582512
1.6143304109573364	163999.5896841954
1.6183301210403442	164021.6697358258
1.6223233938217163	156972.6041933706
1.6263102293014526	148380.63641648352
1.6302905082702637	144479.88520839615
1.634264349937439	149240.89726050955
1.638231635093689	165115.50476170273
1.6421923637390137	180530.35119674695
1.646146535873413	184013.4163244101
1.6500942707061768	184403.22927950777
1.6540353298187256	188864.59027504118
1.6579699516296387	196965.06233757533
1.661897897720337	198929.72921214584
1.6658192873001099	179290.64985970355
1.6697341203689575	179464.2782842124
1.6736423969268799	213154.41032414828
1.677544116973877	230842.3111330801
1.6814392805099487	230729.7862526133
1.6853278875350952	231575.75288591042
1.6892099380493164	232557.46732311122
1.6930854320526123	232134.06481510802
1.696954369544983	222225.8060642359
1.7008168697357178	198312.85694348303
1.7046726942062378	189319.00538696197
1.708522081375122	218025.3943025626
1.712364912033081	263023.11171629705
1.7162011861801147	293588.8873924695
1.7200311422348022	295769.70733965765
1.723854422569275	270016.71163212863
1.7276713848114014	243824.13226258458
1.731481909751892	248371.95955599478
1.7352858781814575	278388.3094350506
1.7390835285186768	309379.03859349724
1.7428747415542603	324845.6645676423
1.7466596364974976	331067.2117982081
1.7504380941390991	343231.40474491136
1.7542102336883545	357348.7550190008
1.7579760551452637	360483.73152487434
1.7617355585098267	356002.9447750227
1.7654887437820435	354979.91233997385
1.7692357301712036	352239.8915424542
1.7729763984680176	342351.4542398238
1.776710867881775	349721.13466642814
1.7804391384124756	369276.90574335516
1.7841613292694092	356425.7544208954
1.7878772020339966	324664.49526778155
1.7915871143341064	302306.95835430326
1.7952908277511597	311007.5702990207
1.7989884614944458	333939.84198313096
1.8026801347732544	332643.3402573138
1.806365728378296	330525.4775573665
1.8100452423095703	331711.2459971001
1.8137187957763672	330627.3873959473
1.817386507987976	331387.94453733333
1.8210482597351074	348820.48966160713
1.8247040510177612	388578.42262741644
1.828354001045227	396026.2636111555
1.8319982290267944	383515.8156234921
1.8356364965438843	375506.26095034543
1.8392690420150757	371116.2026875646
1.8428958654403687	398064.1541881774
1.8465168476104736	419766.71718661493
1.8501322269439697	422390.9065147219
1.8537418842315674	416645.22069184476
1.8573459386825562	394793.03995913186
1.860944390296936	377185.9481628228
1.864537239074707	365015.54862573475
1.8681244850158691	349553.2786683309
1.871706247329712	367084.8386734565
1.8752825260162354	447869.39400093607
1.8788533210754395	544453.9744414367
1.8824186325073242	592035.8996908049
1.8859784603118896	604495.0065638474
1.8895330429077148	620139.0381656481
1.8930821418762207	648198.6874128513
1.8966259956359863	651587.6313837918
1.9001644849777222	610119.4755907812
1.9036977291107178	588024.6086704881
1.9072256088256836	604416.7292647619
1.9107483625411987	599224.7383218784
1.9142658710479736	584500.4946241229
1.9177782535552979	609854.0958397875
1.9212853908538818	621185.1562236854
1.9247875213623047	611882.1325190553
1.9282845258712769	607833.9456568714
1.9317764043807983	607711.5138724403
1.9352631568908691	606233.7970896407
1.9387450218200684	575038.4280537503
1.942221760749817	592689.5148402585
1.9456936120986938	657369.4093973227
1.9491604566574097	699712.6343311701
1.952622413635254	710281.4423150911
1.956079363822937	698750.4280092849
1.959531545639038	727305.2713230449
1.962978720664978	782891.297286241
1.966421127319336	848077.9983318159
1.9698586463928223	892321.6985186085
1.9732913970947266	898123.4039330712
1.9767193794250488	931365.3054323435
1.9801424741744995	986127.9176436058
1.9835609197616577	1052435.2823366392
1.9869745969772339	1087700.4757237663
1.990383505821228	1073735.6937638833
1.9937876462936401	1108885.3204751872
1.9971871376037598	1160741.507402157
2.000581979751587	1195118.2696653004
2.003972291946411	1242136.5854868153
2.007357597351074	1271290.5298378598
2.0107386112213135	1306479.183273061
2.0141148567199707	1336614.4795072996
2.017486572265625	1341305.3592476922
2.0208535194396973	1376199.0089533948
2.0242159366607666	1428234.926730587
2.027573823928833	1450624.30309671
2.0309269428253174	1469887.7591573247
2.034275770187378	1513369.8272616642
2.0376198291778564	1548636.7633934312
2.040959596633911	1562792.819053596
2.044294595718384	1582387.469943877
2.0476250648498535	1606629.3641211307
2.0509510040283203	1624968.2638045591
2.054272413253784	1650792.5187442687
2.057589530944824	1685131.932131971
2.0609018802642822	1711871.9985205678
2.0642096996307373	1733509.782417095
2.0675129890441895	1757478.8168871424
2.0708119869232178	1781735.77585557
2.074106216430664	1805346.1821007954
2.0773961544036865	1827398.9784602423
2.080681324005127	1845994.1093881812
2.0839622020721436	1866097.079452021
2.087238311767578	1892393.9638938583
2.090510129928589	1921260.9440709741
2.0937774181365967	1949518.360163328
2.0970399379730225	1974055.0742784934
2.1002981662750244	1994669.9195822666
2.1035518646240234	2013993.2931186175
2.1068007946014404	2037377.8155266081
2.1100454330444336	2063532.0793090337
2.1132853031158447	2087931.8746243797
2.116520881652832	2109892.2250793907
2.1197516918182373	2132346.301255402
2.1229779720306396	2159090.262011846
2.12619948387146	2185500.550322533
2.1294167041778564	2208118.797594221
2.132629156112671	2230831.9060287643
2.1358368396759033	2255241.3260010527
2.139039993286133	2265852.9913513428
2.1422386169433594	2250677.3590465127
2.145432472229004	2234990.8675528704
2.1486217975616455	2210749.3234248003
2.151806354522705	2183114.1877404503
2.1549863815307617	2208896.728540544
2.1581614017486572	2258057.065394946
2.16133189201355	2275597.840446947
2.1644976139068604	2311886.1182033876
2.167658567428589	2368049.7849064693
2.1708147525787354	2400271.978414564
2.173966407775879	2419779.2336060535
2.1771130561828613	2446677.943352466
2.1802549362182617	2491625.437999217
2.183391809463501	2529424.1194138
2.1865241527557373	2570828.6016697553
2.1896514892578125	2618918.2707664464
2.1927738189697266	2633074.7385329884
2.1958916187286377	2363760.1287079933
2.1990041732788086	1694315.453528195
2.2021119594573975	1293678.4596686559
2.2052149772644043	1645199.2890606206
2.208312749862671	2283882.7446717625
2.2114057540893555	2611073.188296884
2.214493751525879	2507882.267293728
2.217576742172241	2137482.9453434353
2.2206547260284424	1758547.7876260404
2.2237277030944824	1527617.2027735144
2.2267956733703613	1332843.50660079
2.2298583984375	1174797.525062671
2.2329163551330566	1168272.760188054
2.235969066619873	1292337.9156228506
2.2390167713165283	1359641.7739595347
2.2420592308044434	1250693.2715128087
2.2450966835021973	1081051.690409655
2.248128890991211	997434.9404757519
2.2511560916900635	1013173.630614365
2.254178285598755	1038360.893224201
2.257194995880127	1123465.9583848785
2.260206699371338	1267589.3506121743
2.2632133960723877	1328487.3394339485
2.266214609146118	1339912.7395776112
2.2692108154296875	1410093.8019255926
2.2722020149230957	1570691.848660799
2.2751877307891846	1633906.5458473759
2.278168201446533	1685375.3157491495
2.2811436653137207	1699987.208661188
2.284113883972168	1434310.3942201273
2.287078857421875	1131454.140841097
2.290038824081421	977613.7557813104
2.2929933071136475	895952.4226868758
2.295942783355713	835867.0646976898
2.298887014389038	857137.2422512497
2.301826238632202	1003530.2525580918
2.304760217666626	1320424.4936228157
2.3076889514923096	1851262.2667231013
2.310612440109253	2547783.4163784916
2.3135311603546143	2736492.526793478
2.3164443969726562	1796169.7619946927
2.319352865219116	945478.4153920431
2.322256088256836	1160559.431146461
2.3251543045043945	1645135.7193172118
2.328047275543213	1852563.931873062
2.330935478210449	1702748.447042755
2.3338186740875244	1294201.7518090617
2.3366971015930176	943773.3912178589
2.3395702838897705	813614.5311920062
2.3424389362335205	829448.3534458855
2.3453025817871094	784402.1455884135
2.348161458969116	780288.1397604833
2.351015567779541	921437.1042171805
2.353865146636963	1119320.942154048
2.3567099571228027	1516399.361459539
2.3595502376556396	2061933.3533221139
2.3623859882354736	2346202.068129754
2.3652172088623047	2176205.462574322
2.368043899536133	1534852.752246545
2.370866537094116	797854.9063262936
2.3736846446990967	604384.7183728932
2.3764986991882324	997753.7523810139
2.3793084621429443	1601826.1531976194
2.3821144104003906	1892281.8430696523
2.384916305541992	1852255.5109505218
2.387714147567749	1991318.573240898
2.3905084133148193	2221685.581321399
2.393299102783203	2014676.5083967054
2.3960859775543213	1414011.3206440231
2.398869514465332	976190.9696514365
2.4016497135162354	894642.9160136895
2.4044265747070312	996427.3875028623
2.407200336456299	1152669.601267428
2.409970998764038	1324521.1971161182
2.4127390384674072	1471752.4092625147
2.415503978729248	1361762.6283475468
2.418266534805298	1085844.0568340223
2.4210267066955566	981785.5921488041
2.4237842559814453	924693.6865294888
2.426539897918701	882331.8537322276
2.429293394088745	1221652.59469179
2.4320452213287354	1653561.1078477197
2.4347951412200928	1481694.667870425
2.4375438690185547	1356393.1541802308
2.440291166305542	1671747.4663489803
2.443037271499634	1695028.4272092434
2.445782423019409	1521049.8737462286
2.4485268592834473	1564440.8236754483
2.451270818710327	1637970.7061330064
2.454014539718628	1629168.276912105
2.4567582607269287	1628402.632437601
2.4595019817352295	1692740.95381303
2.4622461795806885	1912868.9564352804
2.4649908542633057	2060893.5791926803
