#wavelength	surface flux
0.6000046	40.03217634814656
0.606004646	130.97438149375273
0.61206469246	244.5920583786881
0.6181853393846001	425.72524415740327
0.624367192778446	725.146179512004
0.6306108647062305	1211.3929677125448
0.6369169733532929	1960.12233711582
0.6432861430868257	3071.1493484832317
0.649719004517694	4640.919179989284
0.6562161945628708	6766.453691634614
0.6627783565084996	9538.215208380027
0.6694061400735846	11045.759901267289
0.6761002014743205	16430.841965928717
0.6828612034890637	19822.002384204283
0.6896898155239545	21881.49512285751
0.6965867136791939	22356.71451387406
0.7035525808159859	21273.923797004452
0.7105881066241457	18712.140916092983
0.7176939876903872	14682.903248135424
0.724870927567291	11969.901976194998
0.732119636842964	9479.784634735242
0.7394408332113936	7489.685550435462
0.7468352415435076	5810.885060813521
0.7543035939589426	4129.295993107628
0.7618466298985321	2161.539583942483
0.7694650961975174	808.5321356623177
0.7771597471594927	4206.907160271887
0.7849313446310876	8715.533134625257
0.7927806580773984	12805.315888099214
0.8007084646581725	22733.014104921313
0.8087155493047542	34839.96120941461
0.8168027047978017	50241.82129305392
0.8249707318457796	76743.58352833636
0.8332204391642375	109887.34064614287
0.8415526435558799	150940.54091500977
0.8499681699914386	187152.35349748677
0.8584678516913531	288450.4191994725
0.8670525302082667	376790.38681968674
0.8757230555103492	477133.6310460471
0.8844802860654528	524900.2295030893
0.8933250889261073	462244.8404149424
0.9022583398153684	825093.3022655804
0.9112809232135222	1005794.6781897176
0.9203937324456574	1191068.4711180346
0.9295976697701139	521887.9804783481
0.938893646467815	895541.809296762
0.9482825829324931	902800.8977460442
0.9577654087618181	1094050.6933775877
0.9673430628494364	1460626.0785777639
0.9770164934779306	1676170.0443739998
0.9867866584127101	1865860.284709526
0.9966545249968373	2461838.3245499884
1.0066210702468055	3030293.8637484726
1.0166872809492735	3323103.2422166155
1.0268541537587663	3592792.9541766807
1.0371226952963541	3928364.195917382
1.0474939222493176	4318628.904882803
1.0579688614718108	4752185.760816753
1.0685485500865288	4788304.520399586
1.0792340355873942	4832291.760651646
1.0900263759432682	4177348.242918018
1.1009266397027009	2408910.204255113
1.1119359060997278	1358506.8955086954
1.1230552651607253	1457236.7658942952
1.1342858178123325	1078726.9914624542
1.1456286759904557	1824295.7709443113
1.1570849627503603	1698015.5572037925
1.1686558123778639	1731270.2955969344
1.1803423705016425	2943327.265485833
1.192145794206659	4121537.444141288
1.2040672521487257	5103048.038765597
1.216107924670213	5700301.500652962
1.228269003916915	6539402.854752051
1.2405516939560841	7169969.20255761
1.252957210895645	7239970.803604577
1.2654867830046015	8099687.744440594
1.2781416508346477	8003572.340397882
1.2909230673429941	6962817.027447573
1.303832298016424	7078553.083787361
1.3168706209965881	5755717.596254724
1.330039327206554	3291989.847564444
1.3433397204786197	483435.2059618672
1.356773117683406	120841.50389211939
1.37034084886024	107612.56095486665
1.3840442573488425	346350.52514992625
1.3978846999223307	277877.24620945344
1.4118635469215541	276996.1483304953
1.4259821823907697	344663.6094957652
1.4402420042146773	654313.4625094356
1.4546444242568242	1200335.3622810033
1.4691908684993922	1251759.613058871
1.4838827771843863	1193565.6349239824
1.4987216049562304	1467972.3726793572
1.5137088210057925	2271291.861065672
1.5288459092158506	3014953.898577131
1.544134368308009	4392623.047804945
1.559575711991089	5754842.205186112
1.575171469111	6726799.434885855
1.5909231838021098	7500534.030129034
1.6068324156401312	5516486.845306219
1.6229007397965325	4389223.556630114
1.6391297471944979	4281099.892178244
1.6555210446664428	4523534.26137697
1.6720762551131072	2565763.183839162
1.6887970176642384	2305806.565474729
1.7056849878408806	1666691.2571758712
1.7227418377192896	3239111.7760901866
1.7399692560964823	3130157.2184653855
1.757368948657447	2503912.787545611
1.7749426381440219	1590669.7660132593
1.792692064525462	1173630.3520620246
1.8106189851707164	971272.624349499
1.8287251750224238	878170.5755205195
1.847012426772648	516384.86482975347
1.8654825510403745	193027.66735239085
1.8841373765507783	1059131.5951025097
1.902978750316286	1121907.920874035
1.9220085378194491	500258.97209805506
1.9412286231976434	316087.9602147881
1.96064090942962	626764.2602645364
1.9802473185239162	885767.391657157
2.0000497917091553	1803682.4226093607
2.020050289626247	1916638.577344274
2.0402507925225093	2801505.748678841
2.0606533004477345	3618061.1122867265
2.081259833452212	3832459.8639122965
2.102072431786734	3917904.5317514446
2.1230931561046016	3712277.522240028
2.1443240876656473	2930160.068753573
2.165767328542304	2496037.5118580237
2.187425001827727	1837189.5898971728
2.209299251846004	461882.56944151944
2.2313922443644643	515470.31649898057
2.253706166808109	354661.96004164923
2.27624322847619	354504.73791821836
2.299005660760952	294107.44148855045
2.3219957173685617	218537.3724201331
2.345215674542247	245272.3277735683
2.3686678312876697	307983.6904098357
2.3923545096005463	548450.274225323
2.416278054696552	489373.66398747254
2.440440835243517	1001647.3304309612
2.4648452435959527	1365072.2897090116
2.489493696031912	1154518.3725819066
2.5143886329922314	529638.4384129106
2.5395325193221536	348799.1885123541
2.5649278445153754	123991.07079706463
2.590577122960529	127238.95479305803
2.616482894190134	118146.8684495223
2.6426477231320353	665181.2620788576
2.669074200363356	87771.35625585007
2.6957649423669894	365206.60022712545
2.7227225917906597	286585.385828731
2.749949817708566	473191.4933074189
2.7774493158856517	365289.29006467055
2.805223809044508	332756.2347084294
2.8332760471349534	449301.52898596297
2.861608807606303	306321.42643521685
2.890224895682366	721400.5871519196
2.9191271446391895	735732.3220165498
2.9483184160855815	1370284.318663267
2.977801600246438	1235955.0784866242
3.007579616248902	769356.6478379563
3.0376554124113913	1563610.1062237828
3.068031966535505	1753929.809121042
3.09871228620086	1267321.3592459492
3.1296994090628685	707809.9818418758
3.1609964031534976	427058.7080002527
3.192606367185032	297682.85215609445
3.2245324308568826	262309.53855116846
3.2567777551654515	404632.25760056
3.289345532717106	745788.1055008048
3.322238988044277	49141.382758252614
3.35546137792472	312516.45818834915
3.3890159917039675	263096.1240250591
3.4229061516210066	374971.8972232028
3.4571352131372173	493525.95907634444
3.4917065652685895	685359.7459708645
3.526623630921275	654802.8768202828
3.5618898672304877	907952.978099932
3.597508765902793	1042684.1620627831
3.633483853561821	1870043.5176787658
3.669818692097439	2349676.6188310497
3.7065168790184138	3103713.310652605
3.743582047808598	3321877.7990440773
3.7810178682866837	3079049.0811913665
3.8188280469695504	3926786.588106411
3.8570163274392457	4287744.376930142
3.8955864907136384	4411139.468197331
3.934542355620775	4736028.573190902
3.973887779176983	4956647.979908898
4.013626656968753	5408524.011891969
4.05376292353844	5562865.247775968
4.0943005527738245	5773494.791033667
4.135243558301563	5613774.637747523
4.176595993884578	5566316.963528998
4.2183619538234245	4844358.163605591
4.260545573361659	4878397.447315918
4.303151029095275	3663832.385141121
4.346182539386228	4713840.948903489
4.38964436478009	4823087.265356345
4.4335408084278916	3966650.5346644972
4.47787621651217	4043775.3710571537
4.522654978677292	4366348.690083205
4.567881528464065	4193790.6871764227
4.613560343748706	4186089.785303427
4.659695947186193	3695966.2693092027
4.706292906658055	3877407.2067405866
4.753355835724635	4407573.020981215
4.8008893940818815	3759044.401112845
4.8488982880227	3594458.25505939
4.897387270902928	2898235.0751637397
4.9463611436119574	2490426.2564366353
4.995824755048077	2987844.036270583
5.045783002598558	2766242.0765878423
5.0962408326245425	2118726.242578747
5.147203240950788	1446378.333034099
5.198675273360296	1654857.5861659548
5.2506620260939	1792161.3078493704
5.303168646354838	1584844.742508706
5.356200332818387	1116810.4749258691
5.409762336146572	1069528.033146855
5.463859959508037	642333.9912776024
5.518498559103117	789234.5191849504
5.573683544694148	519533.5215876077
5.62942038014109	587703.4851516256
5.6857145839425005	470432.16007769015
5.742571729781926	481587.72615500673
5.799997447079745	620739.9003283967
5.857997421550542	528344.0162589822
5.916577395766049	408510.0432939517
5.9757431697237084	432348.9093863673
6.035500601420946	450062.4437708281
6.095855607435156	617270.4067257976
6.156814163509507	269473.60281441594
6.218382305144602	525404.0736102508
6.280566128196048	644606.8572977843
6.343371789478009	538797.0526166167
6.406805507372789	348596.10127033805
6.470873562446516	273578.131313417
6.535582298070982	354952.2980479115
6.6009381210516915	244744.22967901742
6.666947502262209	382351.70343604387
6.733616977284831	396725.97242299514
6.80095314705768	303422.3085599235
6.868962678528256	299169.080964915
6.937652305313538	555879.9333097326
7.007028828366674	403688.4166831019
7.077099116650341	404187.6161391865
7.1478701078168445	368667.23195154173
7.219348808895012	373065.4252497457
7.291542296983963	271313.25455113064
7.364457719953803	249840.04474049274
7.438102297153341	253369.32437215076
7.512483320124875	290770.0646853659
7.587608153326124	330244.78168047033
7.663484234859385	189446.1351323905
7.740119077207979	201379.05800788707
7.817520267980059	280525.4195196016
7.895695470659859	193651.96918539735
7.9746524253664575	360743.0865427638
8.054398949620122	343745.4736979264
8.134942939116323	365340.9111182213
8.216292368507487	414414.8003457895
8.29845529219256	443661.8202705149
8.381439845114487	320213.6229029861
8.465254243565633	450449.53738799243
8.549906786001289	495790.99085732433
8.635405853861302	356759.17230218265
8.721759912399914	497611.8276234725
8.808977511523914	391430.6181148767
8.897067286639153	505613.0108932949
8.986037959505545	476578.6568032322
9.0758983391006	427349.0105852285
9.166657322491607	438803.82604509057
9.258323895716522	538081.9511983837
9.350907134673689	438801.39233263116
9.444416206020424	497459.14992049214
9.538860368080629	412019.35249671165
9.634248971761435	479926.1379225695
9.730591461479051	462353.9855913495
9.82789737609384	559417.672835581
9.926176349854778	469366.5841044161
10.025438113353328	573589.3487473307
10.125692494486861	532339.2309919981
10.22694941943173	570055.0587200841
10.329218913626045	207823.3695493138
10.432511102762307	160710.2245822852
10.536836213789929	210658.3633387208
10.64220457592783	241844.68532958862
10.748626621687109	103009.5514723363
10.85611288790398	177094.22648194683
10.96467401678302	240772.35365936486
11.074320756950849	294289.11493944825
11.185063964520356	335405.1833085774
11.296914604165563	288367.5860781519
11.409883750207218	371664.1483560526
11.52398258770929	240560.8410527733
11.639222413586383	306211.0064466707
11.755614637722246	201680.78323883502
11.87317078409947	280699.4620281351
11.991902491940465	168662.81511247286
12.111821516859868	193397.9369370835
12.232939732028466	197888.35036381232
12.355269129348752	216869.54045570403
12.47882182064224	240158.6699496567
12.603610038848663	201645.51038247463
12.729646139237149	155861.6305166356
12.856942600629521	165502.68127246018
12.985512026635817	198336.4221348344
13.115367146902173	186006.651087308
13.246520818371195	154099.60589561993
13.378986026554909	149672.34741917896
13.512775886820457	185848.8609617614
13.647903645688663	168340.22862699127
13.78438268214555	134611.40070579387
13.922226508967004	186110.73621770137
14.061448774056675	135916.29205522488
14.202063261797242	123779.8607902368
14.344083894415213	138127.58981346022
14.487524733359367	100786.45103357178
14.632399980692961	146763.30520027867
14.778723980499889	146458.19232967956
14.92651122030489	120047.82888597871
15.075776332507937	126624.85451929395
15.226534095833017	120228.99791563913
15.378799436791349	119078.445385555
15.532587431159262	102349.15614119555
15.687913305470854	95230.07089900637
15.844792438525564	67846.65797381291
16.00324036291082	79136.20185502312
16.16327276653993	95197.25749898076
16.32490549420533	81616.18980225961
16.48815454914738	90850.13113998504
16.653036094638853	78834.37541812981
16.819566455585242	83379.9586170065
16.987762120141095	81034.81526524149
17.157639741342507	74851.57019963523
17.329216138755932	67905.80109167511
17.502508300143493	70995.3336946759
17.677533383144926	74835.17594950918
17.854308716976377	73777.06287730098
18.032851804146137	59314.5578164266
18.2131803221876	57253.22264756949
18.395312125409475	67094.52953673269
18.57926524666357	55454.67182570431
18.765057899130205	55684.90853799185
18.95270847812151	55150.95287477554
19.142235562902727	57272.069510797264
19.333657918531753	42981.09298842332
19.52699449771707	44766.49407242582
19.72226444269424	44504.67711355319
19.919487087121183	32193.023952389496
20.118681957992393	42009.897320293196
20.319868777572317	34988.326558156754
20.523067465348042	36790.90405624208
20.728298140001524	41928.31932220173
20.93558112140154	38007.378994077895
21.144936932615554	29962.6313495459
21.35638630194171	24370.572977396565
21.569950164961128	32885.91135161042
21.78564966661074	30007.512866838762
22.003506163276846	31042.140948378932
22.223541224909614	27759.001274291404
22.445776637158712	25683.533371595986
22.6702344035303	28907.944141594784
22.8969367475656	23015.6082845965
23.125906115041257	27686.88748990906
23.35716517619167	28178.47665078165
23.59073682795359	19440.745063978764
23.826644196233126	16276.280383800055
24.064910638195453	23426.909505435346
24.305559744577412	25074.052448955492
24.548615342023187	24062.053604125467
24.794101495443417	22269.030673323716
25.042042510397852	13750.906749447298
25.29246293550183	15840.549417184731
25.54538756485685	18088.717386291635
25.80084144050542	20730.992159128098
26.058849854910473	13462.849198479862
26.319438353459574	17376.340497144898
26.582632736994174	10946.487165403332
26.848459064364114	14403.680690322863
27.11694365500776	13919.74764368137
27.388113091557834	16616.81529187368
27.661994222473414	13997.783540148048
27.938614164698148	9880.331802908084
28.21800030634513	8813.124872737302
28.500180309408577	8764.57732882141
28.785182112502664	11222.171932938894
29.07303393362769	10034.284750165745
29.363764272963973	9606.670984287373
29.65740191569361	10832.210728179209
