#wavelength	surface flux
0.428837	2211.4925239424283
0.43312537	4268.820228582034
0.43745662370000005	4937.731455148326
0.4418311899370001	5718.080795579374
0.44624950183637	6601.355310419087
0.4507119968547338	7566.73606465958
0.45521911682328114	8677.953879000808
0.4597713079915139	10016.651834443825
0.4643690210714291	11470.229558553228
0.4690127112821433	13081.193539093
0.47370283839496474	14886.750255340303
0.47843986677891437	16726.940244709906
0.48322426544670355	18970.801879553343
0.48805650810117057	21631.442007106874
0.4929370731821824	24342.164986512278
0.49786644391400414	27119.11407270684
0.5028451083531442	30101.251066713
0.5078735594366757	32732.80786283225
0.5129522950310424	34060.566881803425
0.5180818179813528	35316.69363756549
0.5232626361611664	43160.50310584036
0.5284952625227781	46603.4937836594
0.5337802151480058	48691.39613617295
0.5391180172994858	49793.37624782645
0.5445091974724807	49085.925652437996
0.5499542894472055	45998.14820773835
0.5554538323416777	40053.29827615131
0.5610083706650945	31192.915524101103
0.5666184543717453	20344.811844575066
0.5722846389154628	10089.702449368804
0.5780074853046174	3139.4487431930406
0.5837875601576636	388.6582919365595
0.5896254357592402	12.1879361589393
0.5955216901168326	769.4894424155209
0.6014769070180009	5928.763908458271
0.607491676088181	20180.504368018945
0.6135665928490629	45629.94548194703
0.6197022587775535	81264.63401784477
0.625899281365329	124522.57847516928
0.6321582741789823	172933.95846991477
0.6384798569207721	225355.73689262327
0.6448646554899798	279857.0327041089
0.6513133020448797	337346.37192106864
0.6578264350653285	395432.6327498473
0.6644046994159818	453507.01277207135
0.6710487464101416	353768.85372660146
0.677759233874243	584016.1426043733
0.6845368262129854	655988.599176431
0.6913821944751153	715852.208030168
0.6982960164198664	793069.8125224855
0.7052789765840651	859702.2941952605
0.7123317663499058	919888.4196687101
0.7194550840134049	954636.4662755043
0.7266496348535388	971861.2419301632
0.7339161312020743	959432.2271724688
0.741255292514095	874524.9262208407
0.748667845439236	663985.0203085535
0.7561545238936284	317041.86837417877
0.7637160691325647	30377.299452125957
0.7713532298238903	22804.941859541585
0.7790667621221293	322947.3011709676
0.7868574297433505	971421.0247827546
0.7947260040407841	852917.3710805026
0.8026732640811919	1960154.2264323628
0.8106999967220039	2285168.2662333124
0.8188069966892239	2621100.552152351
0.8269950666561161	2966833.9458535016
0.8352650173226772	3239728.076966472
0.8436176674959041	3588206.0208371845
0.852053844170863	3750475.8648896553
0.8605743826125718	4157881.483753836
0.8691801264386976	4442326.764511406
0.8778719277030844	4759436.117027143
0.8866506469801153	5032931.227852308
0.8955171534499164	5057938.215072295
0.9044723249844157	5786728.298751412
0.9135170482342599	6110729.352054069
0.9226522187166025	6353974.735648908
0.9318787409037684	4919577.597877177
0.941197528312806	6070074.211683016
0.9506095035959342	5936607.327863718
0.9601155986318936	5935557.4146315195
0.9697167546182125	6492448.350865662
0.9794139221643946	7941624.606431987
0.9892080613860387	8779445.088427309
0.9991001419998989	9473449.187213037
1.0090911434198981	10133262.26942653
1.019182054854097	10896071.982063152
1.0293738754026378	11205706.459753597
1.0396676141566643	12046237.6654995
1.050064290298231	12524879.788233217
1.0605649332012133	13153907.683573032
1.0711705825332256	13616326.566379603
1.0818822883585577	14211711.579079788
1.0927011112421434	14035658.580064222
1.1036281223545648	9623409.12394891
1.1146644035781104	8873145.114834327
1.1258110476138916	9702510.863218071
1.1370691580900303	9730639.160699185
1.1484398496709307	11719255.272708876
1.1599242481676402	7679473.234988696
1.1715234906493166	11283787.905260257
1.1832387255558097	16528109.544326078
1.1950711128113678	18791807.9215644
1.2070218239394814	19849922.514122333
1.2190920421788762	21121890.490820456
1.2312829626006652	22156864.960675042
1.2435957922266716	22995837.201202627
1.2560317501489384	23629420.87108848
1.2685920676504279	24176327.502356116
1.281277988326932	24501578.540464815
1.2940907682102014	24108963.400602978
1.3070316758923035	23736433.906391665
1.3201019926512265	24419981.98291569
1.3333030125777388	11028087.714799715
1.3466360427035162	3023993.5374304517
1.3601024031305513	1210080.055282444
1.373703427161857	4547968.889812949
1.3874404614334754	918653.0417062902
1.4013148660478103	2241256.3143950654
1.4153280147082883	1839187.5776597064
1.4294812948553712	2731666.675904793
1.443776107803925	4493490.97047653
1.4582138688819641	10282586.245172575
1.4727960075707838	10098158.503537271
1.4875239676464918	15473087.567842996
1.5023992073229566	18443351.238180943
1.5174231993961862	22220442.332240153
1.532597431390148	26862749.361957703
1.5479234057040496	30337503.250993803
1.5634026397610903	32446484.557984717
1.579036666158701	32383820.64154863
1.594827032820288	34648558.196229905
1.610775303148491	33672000.04878917
1.6268830561799759	29392830.563923433
1.6431518867417756	34262523.01622131
1.6595834056091934	32403876.175998084
1.6761792396652853	30273936.47275202
1.6929410320619382	25013054.467432413
1.7098704423825577	25158080.921665803
1.7269691468063835	27458120.987877157
1.744238838274447	20855383.9492182
1.7616812266571917	21638666.91849039
1.7792980389237634	5299698.7503502155
1.7970910193130012	7339676.942518083
1.815061929506131	2854491.4190359646
1.8332125488011928	2212466.040113089
1.8515446742892046	3629459.950119235
1.8700601210320964	2365385.6952512935
1.8887607222424174	7705470.172162399
1.9076483294648416	1872734.5708277426
1.92672481275949	1660388.8738406831
1.9459920608870853	3390132.7633969793
1.9654519814959561	4066577.129881029
1.9851065013109155	10263496.906437693
2.0049575663240247	13391278.103451436
2.025007141987265	19418906.440297216
2.0452572134071376	28908498.107071422
2.065709785541209	32754840.67688016
2.086366883396621	33658757.652473375
2.107230552230587	32317816.161627427
2.1283028577528933	31678443.280877497
2.1495858863304225	27464735.502156526
2.1710817451937263	25074353.025086213
2.1927925626456637	15938587.66354161
2.2147204882721203	9551847.938035347
2.2368676931548412	5575598.994877076
2.25923637008639	5348190.322318325
2.281828733787254	4271162.082396033
2.3046470211251266	5555784.516686937
2.327693491336378	2615154.35070943
2.3509704262497415	2755859.766352903
2.374480130512239	2159994.2010012716
2.3982249318173614	3489592.249644869
2.4222071811355352	5611178.0480173165
2.4464292529468903	4981479.573891739
2.4708935454763594	3388910.7408057875
2.4956024809311232	1774193.737517079
2.5205585057404343	839115.2715468341
2.5457640907978387	1415062.4484956604
2.5712217317058172	537654.1883389759
2.5969339490228753	463648.4300633248
2.622903288513104	1203374.658482414
2.6491323213982354	1751665.9004029455
2.6756236446122177	228293.49041041677
2.7023798810583397	893055.9390681813
2.729403679868923	2201513.8318619137
2.7566977166676123	1073812.7588683618
2.7842646938342885	842792.2057081574
2.812107340772631	970450.3538893436
2.8402284141803578	1913834.7449012692
2.8686306983221614	1234212.4813085382
2.897317005305383	1641200.069433693
2.926290175358437	3621967.618741615
2.9555530771120213	3963566.060782087
2.9851086078831415	4032991.6052055163
3.014959693961973	5086958.888253169
3.0451092909015927	4599493.580216846
3.0755603838106085	4312560.054781508
3.1063159876487147	2863338.081473613
3.137379147525202	1979127.1872974215
3.168752939000454	1420282.825624187
3.200440468390459	1166349.6959164494
3.232444873074363	816906.4411457165
3.264769321805107	2214615.6821536026
3.297417015023158	2341835.198337138
3.330391185173389	451859.91806233337
3.3636950970251234	1700574.3166355246
3.397332047995375	1436475.2464102006
3.4313053684753285	1115670.3050406526
3.465618422160081	1224022.1426221647
3.5002746063816828	1691845.321909529
3.5352773524454997	2264153.3918601912
3.570630125969955	2961839.635995926
3.606336427229654	4008266.0519311693
3.6423997915019504	5372859.024376223
3.67882378941697	7191593.791293597
3.7156120273111397	8342097.005322946
3.7527681475842516	10071393.110687401
3.7902958290600934	10295635.813652735
3.8281987873506953	12572578.291356858
3.8664807752242023	12849621.991556818
3.905145582976444	13270574.574359955
3.9441970388062084	14147331.142922942
3.983639009194271	14346538.381234458
4.023475399286213	14728519.238547944
4.063710153279075	14803933.447634201
4.1043472548118665	14306198.243128428
4.145390727359985	13379529.418914707
4.186844634633585	12624330.118923806
4.2287130809799205	11683257.118097996
4.27100021178972	10713767.09475741
4.313710213907617	10350686.481306765
4.356847316046694	8840545.763174213
4.40041578920716	7398039.266018838
4.444419947099232	6380752.8501327
4.488864146570225	5711630.070579225
4.533752788035927	5115868.53402234
4.579090315916286	5332220.337821559
4.624881219075449	5207797.056903407
4.671130031266204	5508257.149377669
4.717841331578866	4821344.032425956
4.765019744894654	4818679.16838494
4.812669942343601	4753587.451068402
4.8607966417670365	5053905.006127227
4.9094046081847065	4585475.101658618
4.958498654266554	2961147.9769671983
5.008083640809219	3620320.160214898
5.058164477217312	4501868.168845085
5.108746121989485	3673028.4899436478
5.15983358320938	2631600.915116542
5.211431919041474	1926099.2879106014
5.263546238231889	2544247.3094823174
5.316181700614208	3056377.682184616
5.36934351762035	1645953.6338180741
5.423036952796553	1209817.1349183894
5.4772673223245185	1359877.0076831821
5.532039995547764	1487952.3850711451
5.587360395503242	1094276.21474896
5.643233999458275	911966.6319488852
5.6996663394528575	843268.7188661277
5.756663002847385	834062.9059664368
5.814229632875859	931752.7251166484
5.872371929204618	720584.6314814216
5.931095648496664	816792.5093161174
5.990406604981631	1088658.5350668356
6.050310671031448	859202.1097697716
6.110813777741763	1200417.991541167
6.17192191551918	938434.6836072624
6.233641134674372	2127224.807414006
6.295977546021115	2287223.425867259
6.358937321481327	1500384.641962903
6.42252669469614	557201.6467433545
6.486751961643101	501386.33235660015
6.551619481259532	597456.3540053682
6.617135676072128	497022.7035988959
6.683307032832849	777417.0820430424
6.750140103161177	891511.5963314533
6.81764150419279	865491.1035587597
6.885817919234718	678572.1383374917
6.954676098427065	870892.6480483817
7.024222859411336	584040.6015726607
7.094465088005449	812925.7317123499
7.165409738885503	596232.0708363442
7.237063836274358	623056.6787033803
7.309434474637103	545843.2604110622
7.382528819383473	492879.2161048536
7.456354107577308	465090.54273883154
7.530917648653081	620620.4112303881
7.606226825139612	620460.9387522974
7.682289093391009	377220.4442414112
7.759111984324918	509677.06996966363
7.836703104168168	571994.2504830007
7.91507013520985	542810.1511699368
7.994220836561947	623570.6761257134
8.074163044927568	602297.0973073458
8.154904675376844	625819.1931657601
8.23645372213061	693027.944575307
8.318818259351918	754942.1619353292
8.402006441945437	777210.2552510632
8.486026506364892	900336.8192539827
8.57088677142854	962881.5210545006
8.656595639142825	1041521.5430793831
8.743161595534254	1103783.0902821834
8.830593211489598	1191394.6965015638
8.918899143604493	1179167.6883659377
9.00808813504054	1203839.9804404962
9.098169016390944	1296124.4289549661
9.189150706554853	1332175.7102561211
9.281042213620402	1285716.0529779785
9.373852635756606	1178041.1266537255
9.467591162114172	1270350.3322093678
9.562267073735315	1412778.6257294866
9.657889744472667	1190012.1427059157
9.754468641917395	1358779.359581154
9.852013328336568	1072794.0475341128
9.950533461619933	1291428.796569116
10.050038796236134	1198364.286590248
10.150539184198495	1245426.762053086
10.252044576040479	1093656.1158839564
10.354565021800884	795396.5568346111
10.458110672018893	851669.3858185273
10.562691778739081	969312.1343273582
10.668318696526473	929418.6155330075
10.775001883491738	872922.8166388037
10.882751902326655	807561.3890426742
10.991579421349924	609569.8975615811
11.101495215563421	842327.6345777485
11.212510167719055	718211.9618845743
11.324635269396246	725210.3360920259
11.43788162209021	775265.7979642964
11.552260438311112	527873.4347865755
11.667783042694223	577236.1980639078
11.784460873121166	541631.8537434834
11.902305481852377	610171.9404188797
12.0213285366709	610446.1507427931
12.14154182203761	635583.9258366014
12.262957240257986	466414.41212031257
12.385586812660566	384663.1467057154
12.509442680787172	393491.9614454844
12.634537107595044	454204.47323449474
12.760882478670995	424993.35698261665
12.888491303457704	418406.378505492
13.01737621649228	340821.097320765
13.147549978657205	357811.9303829291
13.279025478443776	273272.7177028631
13.411815733228213	267540.509458667
13.545933890560496	320358.1127614496
13.681393229466101	280461.3990463849
13.818207161760762	298987.1860073684
13.956389233378369	273376.1567210901
14.095953125712155	287909.2472870045
14.236912656969274	249234.4256323948
14.379281783538968	194680.1086241597
14.523074601374358	184780.56865957152
14.6683053473881	230833.41792025298
14.814988400861985	207055.53103249552
14.963138284870602	185904.5925764734
15.11276966771931	207215.3032621967
15.263897364396504	226012.3992890022
15.41653633804047	172972.25482113296
15.570701701420873	136387.10850877967
15.726408718435081	122918.06704923393
15.883672805619431	203602.3137418894
16.042509533675627	145020.31173449004
16.202934629012383	135809.90583889035
16.36496397530251	127049.83262155217
16.528613615055534	122787.32530577692
16.69389975120609	105352.30253245104
16.86083874871815	104318.98566463985
17.02944713620533	120062.87512525689
17.199741607567383	89265.27320191909
17.37173902364306	81416.60074744596
17.54545641387949	91155.50359194854
17.720910978018285	83744.96474640061
17.898120087798468	78953.50494780549
18.077101288676452	83573.02762548246
18.257872301563214	77883.37660927
18.44045102457885	75678.00743255687
18.62485553482464	65589.48699458396
18.811104090172883	100271.48754548994
18.999215131074614	58848.49492807324
19.189207282385357	61139.78073222789
19.381099355209216	49030.333142483556
19.574910348761303	51090.93044072613
19.77065945224892	55236.013038438
19.968366046771408	67325.63493504217
20.16804970723912	56284.63396234987
20.369730204311512	46386.6005676821
20.573427506354626	41649.93228172438
20.779161781418175	48193.55860931352
20.98695339923236	37465.0768035307
21.19682293322468	37594.52897771271
21.408791162556927	48830.919439659985
21.622879074182496	33954.65876648369
21.839107864924323	31703.291181138968
22.057498943573567	32313.1109711477
22.278073933009303	35127.27891414051
22.500854672339393	27326.242225149974
22.72586321906279	47419.001830468216
22.953121851253417	25483.715086820386
23.18265306976595	42600.08382167265
23.41447960046361	33548.20335157963
23.648624396468247	22315.45442528653
23.88511064043293	20435.389195004886
24.12396174683726	36581.36806448796
24.365201364305634	33224.596398960944
24.608853377948687	31031.7730837489
24.854941911728176	25589.73823051932
25.103491330845458	16464.240060071934
25.354526244153913	16485.63617827405
25.608071506595454	25059.484400667774
25.864152221661406	22430.92506691401
26.122793743878024	20401.782583725366
26.384021681316803	22041.253973010455
26.64786189812997	12963.295441334647
26.91434051711127	18099.265284368666
27.18348392228238	20056.079227064198
27.455318761505207	24978.135482161873
27.72987194912026	19049.761494587157
28.007170668611465	12092.1414138387
28.28724237529758	10694.21405328022
28.57011479905055	10608.246788435483
28.855815947041062	15211.694558460524
29.144374106511474	11347.419442883682
29.435817847576587	12375.307052434158
29.730176026052348	11249.331255078972
30.027477786312875	12859.810234906134
30.327752564176006	9179.619336704449
30.631030089817763	9807.1850773885
30.93734039071594	8829.133407472544
31.246713794623105	10215.2625392697
31.559180932569333	11847.705261914221
31.874772741895026	8976.594755849017
32.19352046931398	11123.225666616343
32.51545567400712	10793.354406940818
32.84061023074719	6286.346934707176
33.169016333054664	6762.507073607356
33.500706496385206	6979.200047127664
33.83571356134906	10640.586713112745
34.17407069696255	7037.569224564331
34.51581140393218	5710.334161263085
34.8609695179715	6116.567842240304
35.209579213151216	5484.132066859422
35.56167500528272	4777.305650149769
35.917291755335555	4494.336175378007
36.27646467288891	5906.413083800993
36.639229319617804	5370.02251540471
37.005621612813975	7053.797667280026
37.37567782894212	4335.810811067232
37.74943460723154	4940.776656286924
38.12692895330385	6437.150790165479
38.5081982428369	5844.729298160412
38.893280225265265	3861.8808653044903
39.28221302751791	3204.8087481797447
39.6750351577931	4676.787039944309
40.071785509371026	3136.84056209662
40.47250336446474	3143.4219341331313
40.87722839810939	3121.549567706277
41.28600068209048	4415.45894799402
41.69886068891139	4409.4576989114075
42.1158492958005	3721.527039388453
42.53700778875851	3456.4846370070563
42.962377866646094	2591.355355376671
43.392001645312554	2454.6169481519787
43.825921661765676	2236.074153353914
44.264180878383335	2281.4749143105023
44.70682268716717	2232.5553211340225
45.15389091403884	2345.7037416084836
45.60542982317923	2799.3289250767166
46.06148412141103	2329.8593331884263
46.52209896262513	1905.7723634806282
46.98731995225138	1850.289906137368
47.4571931517739	2526.6195204848264
47.93176508329164	1683.0904793510233
48.411082734124555	2197.287922713076
48.8951935614658	1579.0020653223373
49.38414549708046	1417.8703077499206
49.877986952051266	1476.1011627860019
50.37676682157178	1423.1306746254227
50.88053448978749	1372.0186559880722
51.38933983468537	1322.6892552555241
51.903233233032225	1275.096051694441
52.422265565362544	1229.170424159133
52.946488221016175	1184.855529753164
53.47595310322633	1142.1093003172077
54.010712634258596	1100.863479717888
54.550819760601186	1061.0759267928781
55.0963279582072	1022.6912105391126
55.647291237789275	985.6607490597146
56.20376415016716	949.9463911164431
56.765801791668835	915.4957460993359
57.33345980958552	882.2688203152991
57.906794407681375	850.2227741859026
58.48586235175819	819.3134823188625
59.070720975275776	789.5083477479527
59.661428185028534	760.7607856685606
60.25804246687882	733.042618694342
60.860622891547614	706.3119692220663
61.46922912046309	680.5369195509026
62.083921411667724	655.6860891898608
62.7047606257844	631.7213662339435
63.331808232042235	608.6208530145902
63.965126314362664	586.3470055379619
64.60477757750628	564.872664230147
65.25082535328136	544.1719520341783
65.90333360681416	524.2129737939653
66.56236694288232	504.976903002843
67.22799061231113	486.432502405016
67.90027051843424	468.5571014337542
68.57927322361859	451.3281932851928
69.26506595585477	434.72039062391934
69.95771661541333	418.71593074618204
70.65729378156746	403.2893660371204
71.36386671938313	388.4222928628132
72.07750538657696	374.0944923798114
72.79828044044274	360.2860065371705
73.52626324484716	346.9807377031326
74.26152587729563	334.157616171597
75.00414113606858	321.80245538900016
75.75418254742928	309.896691451392
76.51172437290357	298.42422416045287
77.27684161663261	287.3715061029792
78.04961003279894	276.7204283364527
78.83010613312693	266.4601721077268
79.6184071944582	256.5741461862682
80.41459126640278	247.0493837604638
81.2187371790668	237.87413856636394
82.03092455085748	229.03400514907267
82.85123379636605	220.519130280571
83.6797461343297	212.31567310930217
84.51654359567301	204.41325524224771
85.36170903162974	196.80181036923233
86.21532612194603	189.4691859416477
87.0774793831655	182.40744729673432
87.94825417699715	175.60463983118194
88.82773671876713	169.0528841408235
89.71601408595481	162.74258481883174
90.61317422681435	156.66428679808638
91.5193059690825	150.8113037533747
92.43449902877332	145.173435758563
93.35884401906105	139.74456208865482
