#wavelength	surface flux
0.428837	35597.28938158284
0.43312537	65927.07356635587
0.43745662370000005	74497.6530393411
0.4418311899370001	80191.86007077443
0.44624950183637	92695.31814745339
0.4507119968547338	97159.30011978446
0.45521911682328114	113228.0520075724
0.4597713079915139	125316.65136627785
0.4643690210714291	140457.2282330158
0.4690127112821433	153908.47228128975
0.47370283839496474	173455.70940744947
0.47843986677891437	185767.0746905047
0.48322426544670355	208216.68281157338
0.48805650810117057	236752.45040582586
0.4929370731821824	269864.0621794773
0.49786644391400414	278578.7903489126
0.5028451083531442	307708.25455816224
0.5078735594366757	331402.5157455895
0.5129522950310424	340790.23212580825
0.5180818179813528	342646.2485102984
0.5232626361611664	444280.54834674875
0.5284952625227781	501815.40648922045
0.5337802151480058	546472.8525269286
0.5391180172994858	601666.2355886
0.5445091974724807	658817.160489891
0.5499542894472055	715222.7168082633
0.5554538323416777	779472.1997810028
0.5610083706650945	853940.6864239714
0.5666184543717453	920066.1973238421
0.5722846389154628	999291.1914347743
0.5780074853046174	1046387.984893085
0.5837875601576636	968583.1934178208
0.5896254357592402	195598.03136143502
0.5955216901168326	1211063.2889022133
0.6014769070180009	1462851.7808272324
0.607491676088181	1613740.472872009
0.6135665928490629	1687987.902638622
0.6197022587775535	1853660.542656149
0.625899281365329	2030526.717780043
0.6321582741789823	2164402.1586055188
0.6384798569207721	2400518.3185108257
0.6448646554899798	2603082.052508858
0.6513133020448797	2789293.290660106
0.6578264350653285	2947721.382343324
0.6644046994159818	3151219.228555479
0.6710487464101416	3307383.090285852
0.677759233874243	3643442.977639332
0.6845368262129854	3893883.66949265
0.6913821944751153	4062264.0109820124
0.6982960164198664	4493956.814365319
0.7052789765840651	4774406.189003594
0.7123317663499058	5077373.483285237
0.7194550840134049	5405128.0539811645
0.7266496348535388	5719387.7955893
0.7339161312020743	6073453.472302643
0.741255292514095	6434912.14507864
0.748667845439236	6801710.818099152
0.7561545238936284	7130030.814954341
0.7637160691325647	5989161.356154917
0.7713532298238903	4916640.482260134
0.7790667621221293	8381156.460115342
0.7868574297433505	8969981.84988561
0.7947260040407841	9079546.430579392
0.8026732640811919	10007775.01139047
0.8106999967220039	10484610.741741661
0.8188069966892239	10987493.05963197
0.8269950666561161	11608823.80687731
0.8352650173226772	12222122.357928826
0.8436176674959041	12804095.036664674
0.852053844170863	13426003.29522464
0.8605743826125718	14013227.277565137
0.8691801264386976	14582522.089673836
0.8778719277030844	15255970.69317139
0.8866506469801153	15947505.251236564
0.8955171534499164	16630264.48016685
0.9044723249844157	17408957.566042054
0.9135170482342599	18128404.845885094
0.9226522187166025	18858938.936282083
0.9318787409037684	19123868.486727376
0.941197528312806	20138389.62650895
0.9506095035959342	20858280.48446803
0.9601155986318936	21536191.56693791
0.9697167546182125	22329357.367018778
0.9794139221643946	23476297.481476422
0.9892080613860387	24252522.076654974
0.9991001419998989	25224350.18393731
1.0090911434198981	26112757.537090443
1.019182054854097	27202090.29792167
1.0293738754026378	28000781.195940193
1.0396676141566643	29110985.9539011
1.050064290298231	30066007.787126407
1.0605649332012133	31013583.009888813
1.0711705825332256	31969448.37958174
1.0818822883585577	32950371.327629033
1.0927011112421434	33669184.41898177
1.1036281223545648	33334575.429899212
1.1146644035781104	34130098.29394071
1.1258110476138916	35438280.015938304
1.1370691580900303	35870979.842681184
1.1484398496709307	37457455.441290274
1.1599242481676402	37337582.209832154
1.1715234906493166	38814695.04639777
1.1832387255558097	40867236.4121894
1.1950711128113678	42174350.24537164
1.2070218239394814	43229760.302533366
1.2190920421788762	44421637.09827744
1.2312829626006652	45450622.52347913
1.2435957922266716	46466764.45566928
1.2560317501489384	47439826.743255414
1.2685920676504279	48342811.60002887
1.281277988326932	49220934.36488715
1.2940907682102014	49986057.67334712
1.3070316758923035	50718736.66750405
1.3201019926512265	51478993.61675854
1.3333030125777388	46534750.59681559
1.3466360427035162	41633733.02740561
1.3601024031305513	38301298.27740457
1.373703427161857	46285398.51756604
1.3874404614334754	39426712.7650128
1.4013148660478103	41280008.663797274
1.4153280147082883	40503058.86429419
1.4294812948553712	43426305.20273188
1.443776107803925	46446509.5330354
1.4582138688819641	51561998.50734877
1.4727960075707838	52462678.631760195
1.4875239676464918	54934107.02026322
1.5023992073229566	57220129.23350925
1.5174231993961862	58417126.34942215
1.532597431390148	59993727.75017196
1.5479234057040496	61511794.22321876
1.5634026397610903	62554227.578822695
1.579036666158701	63138503.68985233
1.594827032820288	64228633.641704924
1.610775303148491	64897105.44385809
1.6268830561799759	65450509.29060473
1.6431518867417756	65905351.74098443
1.6595834056091934	66200487.95405263
1.6761792396652853	66741677.38963359
1.6929410320619382	66694183.01987603
1.7098704423825577	66456817.68880294
1.7269691468063835	65978888.97898449
1.744238838274447	63496585.55284417
1.7616812266571917	63746659.1678269
1.7792980389237634	53855154.95071941
1.7970910193130012	52024153.570677616
1.815061929506131	46393544.26303979
1.8332125488011928	48917970.72732141
1.8515446742892046	47832114.23025833
1.8700601210320964	50124715.822330676
1.8887607222424174	55335919.06536714
1.9076483294648416	49775878.79896519
1.92672481275949	48544034.032787085
1.9459920608870853	48360938.69565769
1.9654519814959561	49502391.63512137
1.9851065013109155	55418801.686951734
2.0049575663240247	56310123.49703448
2.025007141987265	59560774.73558538
2.0452572134071376	62978299.46158959
2.065709785541209	64256951.30753298
2.086366883396621	64669997.77812841
2.107230552230587	64802511.98642091
2.1283028577528933	65114914.853901446
2.1495858863304225	64931551.08054667
2.1710817451937263	64575684.429414034
2.1927925626456637	64241224.21136353
2.2147204882721203	63732656.05130657
2.2368676931548412	63170007.916116975
2.25923637008639	62478643.4935535
2.281828733787254	61456690.32388452
2.3046470211251266	50378044.967769645
2.327693491336378	50226873.52740829
2.3509704262497415	54337732.2516918
2.374480130512239	52559539.81096965
2.3982249318173614	51516625.21290835
2.4222071811355352	49834054.604279086
2.4464292529468903	44625429.01618881
2.4708935454763594	38021998.25726866
2.4956024809311232	31804988.327747345
2.5205585057404343	25902877.129681114
2.5457640907978387	27949075.54717937
2.5712217317058172	21645013.415676787
2.5969339490228753	24982139.1856909
2.622903288513104	30165992.589159843
2.6491323213982354	32023444.842929415
2.6756236446122177	18480786.872516856
2.7023798810583397	23713525.74619749
2.729403679868923	28726480.624569077
2.7566977166676123	26751524.56685746
2.7842646938342885	24726362.80055585
2.812107340772631	24511446.410452403
2.8402284141803578	26070646.644273173
2.8686306983221614	23511013.159365267
2.897317005305383	25865689.78302175
2.926290175358437	29269034.97114726
2.9555530771120213	29921141.601625185
2.9851086078831415	29130729.80357751
3.014959693961973	32600842.18444445
3.0451092909015927	32153067.84018826
3.0755603838106085	34256410.22541742
3.1063159876487147	35852325.33787695
3.137379147525202	35029637.63702227
3.168752939000454	36193520.69270159
3.200440468390459	35016471.69280445
3.232444873074363	35520538.78787343
3.264769321805107	35184703.6814325
3.297417015023158	34032554.79504222
3.330391185173389	33669888.752420224
3.3636950970251234	32840753.368938535
3.397332047995375	31860066.39352341
3.4313053684753285	30947823.96929707
3.465618422160081	29263912.221419264
3.5002746063816828	28232481.537387725
3.5352773524454997	27383572.05079605
3.570630125969955	26514342.520374287
3.606336427229654	25371347.972131275
3.6423997915019504	24458794.165758044
3.67882378941697	23702580.448989835
3.7156120273111397	22008679.724966295
3.7527681475842516	21193334.654481187
3.7902958290600934	19917378.05813338
3.8281987873506953	19584243.932762444
3.8664807752242023	18441128.07152461
3.905145582976444	18010976.93472723
3.9441970388062084	17693833.604151078
3.983639009194271	17948194.851859834
4.023475399286213	18034274.773533594
4.063710153279075	17995347.44865465
4.1043472548118665	18452850.781941194
4.145390727359985	18718612.642164413
4.186844634633585	18795966.451361176
4.2287130809799205	18745591.675095998
4.27100021178972	18116589.085759062
4.313710213907617	16979556.42406988
4.356847316046694	15126786.763810584
4.40041578920716	12267888.201411542
4.444419947099232	9317116.156705134
4.488864146570225	7368137.948775154
4.533752788035927	6452170.378295192
4.579090315916286	6828853.7383821625
4.624881219075449	7552678.0000231275
4.671130031266204	9314558.252717692
4.717841331578866	7911062.854071597
4.765019744894654	6650591.722622186
4.812669942343601	7247379.267746146
4.8607966417670365	8435700.100127554
4.9094046081847065	7726630.1249607
4.958498654266554	8174629.833258007
5.008083640809219	9038348.77665302
5.058164477217312	9052752.036708884
5.108746121989485	9852933.706853958
5.15983358320938	9666948.555014808
5.211431919041474	9116293.75670018
5.263546238231889	9624007.306579975
5.316181700614208	9808261.014524613
5.36934351762035	8403459.39931581
5.423036952796553	7610003.561852741
5.4772673223245185	8103360.142050917
5.532039995547764	7962919.321625598
5.587360395503242	7526429.302278539
5.643233999458275	7170838.623247517
5.6996663394528575	6516934.195536873
5.756663002847385	6587269.307731621
5.814229632875859	6399277.964597865
5.872371929204618	6084194.037991425
5.931095648496664	5943725.565393484
5.990406604981631	6743377.743302167
6.050310671031448	5832132.600072881
6.110813777741763	6508288.43983029
6.17192191551918	6012863.859000364
6.233641134674372	6768430.3316942975
6.295977546021115	6733444.084100233
6.358937321481327	6294387.8793525165
6.42252669469614	4571709.593711809
6.486751961643101	4119049.2105622124
6.551619481259532	4266052.007668161
6.617135676072128	3591747.6141743152
6.683307032832849	4203973.386914795
6.750140103161177	4174008.396813214
6.81764150419279	3905681.596853225
6.885817919234718	3927302.3863352044
6.954676098427065	3852179.51004882
7.024222859411336	3477410.038610244
7.094465088005449	3717515.6628066264
7.165409738885503	3537091.3604718596
7.237063836274358	3460996.7080936627
7.309434474637103	3686957.742801547
7.382528819383473	3470497.928533173
7.456354107577308	3030415.5100680455
7.530917648653081	3457372.236274738
7.606226825139612	2888470.856676016
7.682289093391009	3405412.8854114693
7.759111984324918	2880794.286712749
7.836703104168168	3099168.318470263
7.91507013520985	2940314.247748422
7.994220836561947	3074683.5893560825
8.074163044927568	2906172.368605953
8.154904675376844	2743693.4305041707
8.23645372213061	2828656.4268906508
8.318818259351918	2737303.572902966
8.402006441945437	2767126.996261446
8.486026506364892	2635017.683976851
8.57088677142854	2665967.2499799537
8.656595639142825	2615697.8432072406
8.743161595534254	2508314.260002994
8.830593211489598	2493593.0738383927
8.918899143604493	2446149.4834448188
9.00808813504054	2351932.380759093
9.098169016390944	2291728.918615193
9.189150706554853	2236261.5965205557
9.281042213620402	2164449.243733522
9.373852635756606	2083052.8743688306
9.467591162114172	1995985.373529026
9.562267073735315	1965043.4294673435
9.657889744472667	1892282.6145586574
9.754468641917395	1837780.9912654348
9.852013328336568	1736548.844974629
9.950533461619933	1702068.6217258275
10.050038796236134	1644744.3564004472
10.150539184198495	1589284.6561354054
10.252044576040479	1528473.2308486174
10.354565021800884	1446589.8252091354
10.458110672018893	1405494.6965425718
10.562691778739081	1375759.6519967227
10.668318696526473	1335758.6354227564
10.775001883491738	1286228.8358730525
10.882751902326655	1228864.83946461
10.991579421349924	1149454.0028618323
11.101495215563421	1157121.8514014846
11.212510167719055	1116487.430151992
11.324635269396246	1069463.305342533
11.43788162209021	1039588.0911470739
11.552260438311112	981227.3521245975
11.667783042694223	951986.5359099999
11.784460873121166	909412.0461201599
11.902305481852377	901660.8557960478
12.0213285366709	865256.387389254
12.14154182203761	837164.1079906271
12.262957240257986	782156.7915353386
12.385586812660566	735354.0455914361
12.509442680787172	728934.5975260218
12.634537107595044	710524.0093933899
12.760882478670995	680792.609223798
12.888491303457704	673193.4803238432
13.01737621649228	611118.5001669235
13.147549978657205	600410.6408859111
13.279025478443776	557819.3536537808
13.411815733228213	541662.9624401421
13.545933890560496	532122.6064623537
13.681393229466101	513043.5117726659
13.818207161760762	498800.8659378783
13.956389233378369	476559.6499470601
14.095953125712155	474866.13791874156
14.236912656969274	434217.82600929274
14.379281783538968	407522.9992513101
14.523074601374358	395923.4308334156
14.6683053473881	391654.63278281246
14.814988400861985	365373.5718279536
14.963138284870602	347337.00440364156
15.11276966771931	351695.23168633657
15.263897364396504	357258.46721587225
15.41653633804047	308828.6143280057
15.570701701420873	285688.8917347486
15.726408718435081	271253.05958073813
15.883672805619431	309504.9757360252
16.042509533675627	270472.4805881644
16.202934629012383	256836.34564565844
16.36496397530251	239047.5372057153
16.528613615055534	239799.56842907166
16.69389975120609	217174.3374674403
16.86083874871815	231865.0399495082
17.02944713620533	219384.5711872155
17.199741607567383	195092.8018823759
17.37173902364306	177084.79854847796
17.54545641387949	196554.32786105401
17.720910978018285	169396.41663373608
17.898120087798468	163874.904892427
18.077101288676452	164067.13249842657
18.257872301563214	173964.19497727134
18.44045102457885	149240.45014332526
18.62485553482464	138818.39611285686
18.811104090172883	161236.94307916155
18.999215131074614	129715.56395493628
19.189207282385357	134392.3475928326
19.381099355209216	115533.4186710347
19.574910348761303	113767.40876033781
19.77065945224892	121864.4703281571
19.968366046771408	122171.50077850005
20.16804970723912	108720.24085436197
20.369730204311512	99953.3291311612
20.573427506354626	94495.96622440829
20.779161781418175	99355.1418730562
20.98695339923236	85094.498603557
21.19682293322468	87071.66959486208
21.408791162556927	91510.82490815477
21.622879074182496	75879.01311402394
21.839107864924323	77990.21512741764
22.057498943573567	76330.0594946843
22.278073933009303	72765.80112010696
22.500854672339393	65007.96260770809
22.72586321906279	78452.06847910795
22.953121851253417	59818.140333960255
23.18265306976595	74885.07239415766
23.41447960046361	64313.787331284046
23.648624396468247	54545.31788417063
23.88511064043293	51032.378039123694
24.12396174683726	62566.825738110005
24.365201364305634	58167.13644088936
24.608853377948687	54216.8412549245
24.854941911728176	50068.18438997875
25.103491330845458	41826.58744903915
25.354526244153913	40531.12994740522
25.608071506595454	44779.768456615755
25.864152221661406	46799.37401706624
26.122793743878024	42704.35388296041
26.384021681316803	41953.66461390773
26.64786189812997	32763.393260704444
26.91434051711127	37891.46358449861
27.18348392228238	38088.776998267225
27.455318761505207	40475.833350452755
27.72987194912026	35160.86705288809
28.007170668611465	28824.31529164095
28.28724237529758	26814.478471330127
28.57011479905055	26126.619645539962
28.855815947041062	30875.54383080732
29.144374106511474	27143.796028816436
29.435817847576587	25163.929192062653
29.730176026052348	26285.852872629202
30.027477786312875	25284.112444416634
30.327752564176006	21414.179347529574
30.631030089817763	21558.78666441398
30.93734039071594	20151.28280219621
31.246713794623105	20064.51184076523
31.559180932569333	21909.39427484229
31.874772741895026	19513.487012055117
32.19352046931398	20427.108335687437
32.51545567400712	20421.00241798203
32.84061023074719	15191.192134356337
33.169016333054664	15587.627273706845
33.500706496385206	15809.019218520478
33.83571356134906	18009.88515925437
34.17407069696255	15183.441463382163
34.51581140393218	13779.210260334206
34.8609695179715	12868.464362242796
35.209579213151216	12321.444800242205
35.56167500528272	11679.192064347031
35.917291755335555	11044.481192484986
36.27646467288891	12752.610941886462
36.639229319617804	11336.644133299696
37.005621612813975	11996.446842076653
37.37567782894212	9646.8542181826
37.74943460723154	10312.456446223656
38.12692895330385	10926.501950971004
38.5081982428369	10466.62607021084
38.893280225265265	8908.686444545237
39.28221302751791	7816.251820168143
39.6750351577931	8887.780566572514
40.071785509371026	7273.316196792363
40.47250336446474	7334.6631040520415
40.87722839810939	7080.041168528251
41.28600068209048	7839.259598430003
41.69886068891139	7669.926926196247
42.1158492958005	7245.507409119831
42.53700778875851	6943.652720683865
42.962377866646094	5726.69123975577
43.392001645312554	5470.0695422065455
43.825921661765676	5369.10891757781
44.264180878383335	5398.223235349103
44.70682268716717	5120.203800678594
45.15389091403884	5116.99829419833
45.60542982317923	5187.791457028834
46.06148412141103	4743.337428901656
46.52209896262513	4279.58794886269
46.98731995225138	4093.507356923091
47.4571931517739	4588.790145834192
47.93176508329164	4028.8895702513933
48.411082734124555	4166.981118398002
48.8951935614658	3588.7438070733006
49.38414549708046	3341.9224624733506
49.877986952051266	3373.569382044317
50.37676682157178	3247.053048410899
50.88053448978749	3125.242703284497
51.38933983468537	3007.935705691414
51.903233233032225	2894.9913414371727
52.422265565362544	2786.231076169541
52.946488221016175	2681.5054696128486
53.47595310322633	2580.701293980272
54.010712634258596	2483.6315366281005
54.550819760601186	2390.1832223868096
55.0963279582072	2300.220391564983
55.647291237789275	2213.6064859992416
56.20376415016716	2130.2375088451063
56.765801791668835	2049.9694036036394
57.33345980958552	1972.7093083251
57.906794407681375	1898.330730607711
58.48586235175819	1826.7243253637516
59.070720975275776	1757.7999094208158
59.661428185028534	1691.4383292869327
60.25804246687882	1627.5608973026683
60.860622891547614	1566.0640693993885
61.46922912046309	1506.8674982587954
62.083921411667724	1449.8909426250266
62.7047606257844	1395.0356088595624
63.331808232042235	1342.2504514233708
63.965126314362664	1291.4319905021314
64.60477757750628	1242.5223503901175
65.25082535328136	1195.4520124102323
65.90333360681416	1150.143141814155
66.56236694288232	1106.5473661283695
67.22799061231113	1064.588783575296
67.90027051843424	1024.2135477204183
68.57927322361859	985.3642370167996
69.26506595585477	947.9769957115655
69.95771661541333	912.0071675058573
70.65729378156746	877.3858406792885
71.36386671938313	844.0714727455343
72.07750538657696	812.0050321959213
72.79828044044274	781.1399745986295
73.52626324484716	751.437621625274
74.26152587729563	722.845376888397
75.00414113606858	695.3318795988115
75.75418254742928	668.8532169254307
76.51172437290357	643.373338734876
77.27684161663261	618.8597898944453
78.04961003279894	595.2731440362371
78.83010613312693	572.5862967658246
79.6184071944582	550.760045317981
80.41459126640278	529.76432357538
81.2187371790668	509.5663305400059
82.03092455085748	490.1368922381721
82.85123379636605	471.4440980890628
83.6797461343297	453.4568525079659
84.51654359567301	436.1488175692408
85.36170903162974	419.4961823514276
86.21532612194603	403.4687485896819
87.0774793831655	388.0502287674378
87.94825417699715	373.21438983625166
88.82773671876713	358.94172128421627
89.71601408595481	345.21178024541484
90.61317422681435	332.00217622872066
91.5193059690825	319.2980741460586
92.43449902877332	307.0750821864383
93.35884401906105	295.31915655499404
94.29243245925167	284.0101257558498
