#wavelength	surface flux
0.428837	144.68171236140785
0.43312537	284.80860047907925
0.43745662370000005	337.7263127329949
0.4418311899370001	399.6484146879556
0.44624950183637	471.7176913461783
0.4507119968547338	554.8489880898798
0.45521911682328114	647.2732732844829
0.4597713079915139	762.5499685732974
0.4643690210714291	891.5401176692606
0.4690127112821433	1037.7540758681712
0.47370283839496474	1204.6640600700239
0.47843986677891437	1392.0196295038286
0.48322426544670355	1604.2012537910443
0.48805650810117057	1843.5318866625328
0.4929370731821824	2106.6614819162055
0.49786644391400414	2392.578204756353
0.5028451083531442	2700.0709393344146
0.5078735594366757	3022.2926470787534
0.5129522950310424	3339.6285333354544
0.5180818179813528	3647.00376840078
0.5232626361611664	4005.8881830552573
0.5284952625227781	4269.075214114466
0.5337802151480058	4435.67739613335
0.5391180172994858	4464.90288199297
0.5445091974724807	4302.488341717554
0.5499542894472055	3907.214760969839
0.5554538323416777	3256.473584740166
0.5610083706650945	2398.777361391836
0.5666184543717453	1473.8709969334075
0.5722846389154628	698.7321917443669
0.5780074853046174	229.1614923450344
0.5837875601576636	45.078304560272244
0.5896254357592402	3.328884423927422
0.5955216901168326	85.5902963519711
0.6014769070180009	472.3686578407567
0.607491676088181	1586.8417997735667
0.6135665928490629	3830.439082450988
0.6197022587775535	7381.524366961309
0.625899281365329	12224.549699238307
0.6321582741789823	18214.29198484924
0.6384798569207721	25210.0553018673
0.6448646554899798	32937.5429044852
0.6513133020448797	41678.374885984784
0.6578264350653285	50842.748977083116
0.6644046994159818	61015.7277881982
0.6710487464101416	56820.04484376974
0.677759233874243	83578.33565318979
0.6845368262129854	95946.16219796946
0.6913821944751153	105978.722103203
0.6982960164198664	120265.53013859148
0.7052789765840651	132638.71882574854
0.7123317663499058	143917.27655984924
0.7194550840134049	147791.38503144952
0.7266496348535388	148166.52864069905
0.7339161312020743	147064.93710463523
0.741255292514095	132636.5194886456
0.748667845439236	96621.14276739013
0.7561545238936284	41853.193951063186
0.7637160691325647	4082.258407441908
0.7713532298238903	3230.9271044482193
0.7790667621221293	44401.73156075627
0.7868574297433505	153644.80496859137
0.7947260040407841	143740.74807429017
0.8026732640811919	357018.2334041492
0.8106999967220039	420735.85361570644
0.8188069966892239	514652.0342061552
0.8269950666561161	589384.1132671508
0.8352650173226772	649706.8770713925
0.8436176674959041	753217.2721927819
0.852053844170863	810044.1936388571
0.8605743826125718	931377.3927592552
0.8691801264386976	1018463.4102963002
0.8778719277030844	1096974.3188034785
0.8866506469801153	1125583.4918428971
0.8955171534499164	1076420.1562540382
0.9044723249844157	1349352.4846363766
0.9135170482342599	1433412.66412945
0.9226522187166025	1488419.2109326264
0.9318787409037684	812200.4261776366
0.941197528312806	1174505.147367968
0.9506095035959342	1050396.9983063526
0.9601155986318936	1032109.4712802673
0.9697167546182125	1247545.8625787438
0.9794139221643946	1794414.0875336553
0.9892080613860387	2159928.1279595974
0.9991001419998989	2493370.2300734706
1.0090911434198981	2743055.857956072
1.019182054854097	3022370.9559884556
1.0293738754026378	3088215.442789162
1.0396676141566643	3429692.4804281318
1.050064290298231	3581409.412228554
1.0605649332012133	3816399.496026087
1.0711705825332256	3954573.2802858218
1.0818822883585577	4176272.0041912436
1.0927011112421434	4000829.6049928535
1.1036281223545648	1875321.1158044592
1.1146644035781104	1508824.944461754
1.1258110476138916	1458130.0759132006
1.1370691580900303	1844689.2287451925
1.1484398496709307	2307728.04999166
1.1599242481676402	853520.6446601824
1.1715234906493166	2133035.886271089
1.1832387255558097	4518134.274062188
1.1950711128113678	5730131.61930866
1.2070218239394814	6306508.843104656
1.2190920421788762	6885559.253814452
1.2312829626006652	7396157.372362426
1.2435957922266716	7818996.29575425
1.2560317501489384	8148079.450756852
1.2685920676504279	8283453.931991362
1.281277988326932	8328220.6119747
1.2940907682102014	7831701.478369358
1.3070316758923035	7359981.248661616
1.3201019926512265	7797601.945692283
1.3333030125777388	2203593.634156002
1.3466360427035162	259226.34166036884
1.3601024031305513	58616.87862429369
1.373703427161857	371452.5849242308
1.3874404614334754	35290.88475630112
1.4013148660478103	174216.1959704951
1.4153280147082883	123544.1069849888
1.4294812948553712	197234.3442951765
1.443776107803925	520118.57885492407
1.4582138688819641	1908959.3902573078
1.4727960075707838	1602423.0234757282
1.4875239676464918	3421897.3502216856
1.5023992073229566	4187627.224418664
1.5174231993961862	6321818.002328142
1.532597431390148	8770890.500962863
1.5479234057040496	10836668.68039783
1.5634026397610903	12129209.179810148
1.579036666158701	11534308.662126122
1.594827032820288	12973196.264222527
1.610775303148491	11573854.715732655
1.6268830561799759	7339569.673301864
1.6431518867417756	11075545.380370835
1.6595834056091934	9671423.436532227
1.6761792396652853	7597477.0316097075
1.6929410320619382	4665342.735608101
1.7098704423825577	5020539.138818778
1.7269691468063835	6785897.1745135905
1.744238838274447	4930359.157651646
1.7616812266571917	5250426.044158452
1.7792980389237634	744078.3793549326
1.7970910193130012	1451380.2114760817
1.815061929506131	321753.8693896441
1.8332125488011928	196441.48623605745
1.8515446742892046	536368.8536419901
1.8700601210320964	198755.4252005119
1.8887607222424174	1419606.8696294175
1.9076483294648416	98916.9101654921
1.92672481275949	122336.7031440068
1.9459920608870853	474618.399887464
1.9654519814959561	732993.5041306918
1.9851065013109155	2410223.4208066766
2.0049575663240247	3840878.69820411
2.025007141987265	5542837.045455349
2.0452572134071376	11143023.803553697
2.065709785541209	13235360.08038661
2.086366883396621	13475738.975558095
2.107230552230587	12137420.755537035
2.1283028577528933	10850351.92364797
2.1495858863304225	7683292.11353599
2.1710817451937263	6590303.552719813
2.1927925626456637	3090704.5695751994
2.2147204882721203	1292968.1838101847
2.2368676931548412	492730.96962323325
2.25923637008639	462968.9334689203
2.281828733787254	394501.45830910606
2.3046470211251266	650316.3286069494
2.327693491336378	263098.8481661594
2.3509704262497415	238325.06676613534
2.374480130512239	189487.48905066343
2.3982249318173614	380747.12773824536
2.4222071811355352	874670.3144253446
2.4464292529468903	996183.0116953483
2.4708935454763594	742825.5884529189
2.4956024809311232	334150.35444472806
2.5205585057404343	108622.27107211262
2.5457640907978387	251394.3885074859
2.5712217317058172	66129.87242088607
2.5969339490228753	36599.89446877511
2.622903288513104	186169.74028949393
2.6491323213982354	342050.0493118078
2.6756236446122177	15545.401597910013
2.7023798810583397	133267.0936701387
2.729403679868923	518573.59687943617
2.7566977166676123	120169.85021568227
2.7842646938342885	92086.75223332822
2.812107340772631	128376.51936707966
2.8402284141803578	388916.93832916045
2.8686306983221614	219387.05027348705
2.897317005305383	331005.5866253661
2.926290175358437	927470.8614113773
2.9555530771120213	1176950.4303466035
2.9851086078831415	1256729.1025381086
3.014959693961973	1480323.6654216475
3.0451092909015927	995150.3895143131
3.0755603838106085	1436340.8899459292
3.1063159876487147	849589.4235680226
3.137379147525202	557543.9577192726
3.168752939000454	352221.54270337906
3.200440468390459	249150.4862013575
3.232444873074363	152519.30353489815
3.264769321805107	504847.9526848961
3.297417015023158	501934.140460701
3.330391185173389	77922.95928169742
3.3636950970251234	379260.90666647285
3.397332047995375	294720.1741263161
3.4313053684753285	205761.52966115516
3.465618422160081	262256.798568487
3.5002746063816828	439645.29344541737
3.5352773524454997	559870.5183156574
3.570630125969955	850909.2448488266
3.606336427229654	1160658.1638372666
3.6423997915019504	1727607.4699248802
3.67882378941697	2381202.3988690577
3.7156120273111397	2532436.2391429455
3.7527681475842516	3340087.1810897286
3.7902958290600934	3290449.025247513
3.8281987873506953	4801784.084290451
3.8664807752242023	4764507.013264479
3.905145582976444	5033930.070426095
3.9441970388062084	6053933.530066659
3.983639009194271	6349352.493527567
4.023475399286213	7023291.406536246
4.063710153279075	7370674.326238482
4.1043472548118665	7247700.8978292765
4.145390727359985	6911170.952000977
4.186844634633585	6608612.768656864
4.2287130809799205	5824106.040054394
4.27100021178972	5420501.958197363
4.313710213907617	5455212.174975246
4.356847316046694	4700387.159983987
4.40041578920716	4493255.7307802085
4.444419947099232	4130372.9579506614
4.488864146570225	4056127.2883515786
4.533752788035927	3724775.7378646145
4.579090315916286	3884995.80477776
4.624881219075449	3435331.0017306474
4.671130031266204	3250452.8271841034
4.717841331578866	2985916.263612085
4.765019744894654	3399558.664537591
4.812669942343601	3007651.691802251
4.8607966417670365	3126159.609534075
4.9094046081847065	2791222.2229690845
4.958498654266554	1378256.9285273794
5.008083640809219	1800506.8493699299
5.058164477217312	2534025.1765056625
5.108746121989485	1898742.2084301498
5.15983358320938	1165996.633831671
5.211431919041474	799755.8670187807
5.263546238231889	1123513.3048167732
5.316181700614208	1479516.434425265
5.36934351762035	637737.9199276457
5.423036952796553	418207.8714860817
5.4772673223245185	441156.8932787647
5.532039995547764	535311.4357322564
5.587360395503242	345609.3108547447
5.643233999458275	249694.9566723974
5.6996663394528575	242560.0494074491
5.756663002847385	220015.31446265304
5.814229632875859	297357.8213223315
5.872371929204618	176534.89381625195
5.931095648496664	248027.36867905472
5.990406604981631	321331.9936640753
6.050310671031448	283251.80169855105
6.110813777741763	249492.1215269321
6.17192191551918	269552.7825886073
6.233641134674372	975030.344998106
6.295977546021115	1096901.8187618423
6.358937321481327	590215.246421446
6.42252669469614	149645.29176861513
6.486751961643101	121579.03575165966
6.551619481259532	167256.49367059467
6.617135676072128	149109.36260670263
6.683307032832849	290518.47052868083
6.750140103161177	380731.58470538416
6.81764150419279	380312.20734887914
6.885817919234718	239348.02006139417
6.954676098427065	400623.96677210723
7.024222859411336	202440.3472010945
7.094465088005449	365525.39478351467
7.165409738885503	222727.53176635996
7.237063836274358	258255.1924768986
7.309434474637103	195921.92694285855
7.382528819383473	156511.3134955497
7.456354107577308	153303.7432859616
7.530917648653081	222682.73025249632
7.606226825139612	260996.40286149058
7.682289093391009	112554.77692307517
7.759111984324918	199573.27381715243
7.836703104168168	206078.63682712973
7.91507013520985	193056.96357690325
7.994220836561947	238207.98038362412
8.074163044927568	250754.56090658216
8.154904675376844	285994.91274081613
8.23645372213061	333472.5748995378
8.318818259351918	391544.38190761255
8.402006441945437	413385.0626518422
8.486026506364892	467841.88343036437
8.57088677142854	579122.9425547419
8.656595639142825	623631.7360376188
8.743161595534254	712111.5583456227
8.830593211489598	764729.6551164321
8.918899143604493	690513.0492928902
9.00808813504054	772536.3060187008
9.098169016390944	839558.3447699276
9.189150706554853	883773.8364121132
9.281042213620402	723283.0162542602
9.373852635756606	502771.31546476117
9.467591162114172	850202.231014269
9.562267073735315	962404.5987230734
9.657889744472667	653758.9045493738
9.754468641917395	811751.9837554
9.852013328336568	718270.1164892507
9.950533461619933	925405.6659199521
10.050038796236134	839208.8880020885
10.150539184198495	909083.7337562945
10.252044576040479	760743.1049715839
10.354565021800884	335083.38737761474
10.458110672018893	490684.87110213144
10.562691778739081	625652.40888027
10.668318696526473	485879.45257035625
10.775001883491738	411530.1977954782
10.882751902326655	561096.8690730951
10.991579421349924	416971.9778562206
11.101495215563421	574430.399032917
11.212510167719055	453530.5272088647
11.324635269396246	484624.58600511926
11.43788162209021	573651.8126829432
11.552260438311112	349773.70107011474
11.667783042694223	400905.9941101005
11.784460873121166	352397.3040983382
11.902305481852377	429617.37420554535
12.0213285366709	425432.6406666925
12.14154182203761	475559.3229363505
12.262957240257986	329263.0595127747
12.385586812660566	270874.91375899833
12.509442680787172	264432.613196988
12.634537107595044	328307.77875031345
12.760882478670995	311942.74385868915
12.888491303457704	273108.25524649944
13.01737621649228	242852.71976283155
13.147549978657205	266619.96542506106
13.279025478443776	189951.21646064677
13.411815733228213	180197.56858506837
13.545933890560496	249856.0793418141
13.681393229466101	201596.87307998107
13.818207161760762	170729.00663048326
13.956389233378369	201862.1317306179
14.095953125712155	205984.93795034743
14.236912656969274	186236.38712207417
14.379281783538968	131537.4501102419
14.523074601374358	124654.91077622253
14.6683053473881	176736.40428620335
14.814988400861985	159939.56056411754
14.963138284870602	139970.94685737192
15.11276966771931	154777.55465514626
15.263897364396504	173008.38166632122
15.41653633804047	135509.1527541634
15.570701701420873	86403.25879516051
15.726408718435081	76196.95439454606
15.883672805619431	154047.77701757217
16.042509533675627	97647.12225186608
16.202934629012383	96810.42990634662
16.36496397530251	98391.93246521553
16.528613615055534	90378.19990466132
16.69389975120609	75081.89279632736
16.86083874871815	67392.6300391145
17.02944713620533	92214.86608110402
17.199741607567383	62073.821160123094
17.37173902364306	56402.02529419109
17.54545641387949	60186.49266910365
17.720910978018285	62510.24830746424
17.898120087798468	58937.14874628204
18.077101288676452	62531.82627939118
18.257872301563214	51061.57490285511
18.44045102457885	56824.103170081136
18.62485553482464	48106.96734834053
18.811104090172883	78044.98601343665
18.999215131074614	40422.186207042556
19.189207282385357	42511.75404995634
19.381099355209216	33678.77274394867
19.574910348761303	36315.803246739175
19.77065945224892	37521.053504464115
19.968366046771408	49581.07931409926
20.16804970723912	43201.210204187475
20.369730204311512	33525.82367873621
20.573427506354626	28401.30611345031
20.779161781418175	35151.98493550433
20.98695339923236	26503.458613672403
21.19682293322468	24794.622183794356
21.408791162556927	34882.0482277989
21.622879074182496	24366.50714329849
21.839107864924323	20153.780743328927
22.057498943573567	21987.321289859352
22.278073933009303	26001.275861092898
22.500854672339393	18331.497311565723
22.72586321906279	36168.58498840974
22.953121851253417	17527.869488191875
23.18265306976595	29587.323569429278
23.41447960046361	24723.684859918212
23.648624396468247	14587.736822511664
23.88511064043293	12973.178149040665
24.12396174683726	28363.796304066535
24.365201364305634	26111.157763178853
24.608853377948687	24487.913111886006
24.854941911728176	19433.159367455763
25.103491330845458	10406.162668481476
25.354526244153913	10809.02484406743
25.608071506595454	19829.31193783025
25.864152221661406	14325.886361153163
26.122793743878024	14686.20866279452
26.384021681316803	16352.570702363768
26.64786189812997	8118.356134061192
26.91434051711127	12428.178812089558
27.18348392228238	15114.433350043637
27.455318761505207	18572.928438772306
27.72987194912026	14368.515670570241
28.007170668611465	7779.125055281093
28.28724237529758	6664.964767190052
28.57011479905055	6692.16979999052
28.855815947041062	10526.996745146498
29.144374106511474	7261.8806597924195
29.435817847576587	9107.426876538471
29.730176026052348	7233.978597073142
30.027477786312875	9708.751521388409
30.327752564176006	6057.086010919068
30.631030089817763	6807.797671828808
30.93734039071594	5981.241712433467
31.246713794623105	7845.595462590046
31.559180932569333	9000.322816680342
31.874772741895026	6401.195047043589
32.19352046931398	8107.1367555316665
32.51545567400712	7112.039857273987
32.84061023074719	3874.6283872096296
33.169016333054664	4320.889467455707
33.500706496385206	4826.84634868864
33.83571356134906	8051.117693729071
34.17407069696255	4935.065025666941
34.51581140393218	3588.983635180722
34.8609695179715	4515.113780710203
35.209579213151216	3761.6714336996947
35.56167500528272	2944.263356106573
35.917291755335555	2699.4698895575543
36.27646467288891	3886.8494157700848
36.639229319617804	3863.464245106358
37.005621612813975	5433.316830767705
37.37567782894212	2960.674666551877
37.74943460723154	3531.691424819978
38.12692895330385	5078.679558003952
38.5081982428369	4570.884330362026
38.893280225265265	2699.339369035157
39.28221302751791	1900.1649264878615
39.6750351577931	3364.472648469435
40.071785509371026	1996.9566167868404
40.47250336446474	1981.0810869473098
40.87722839810939	2065.887616236681
41.28600068209048	3466.9681489055747
41.69886068891139	3357.3097082151544
42.1158492958005	2347.114548522721
42.53700778875851	2523.091252937405
42.962377866646094	1797.1719386842017
43.392001645312554	1685.561865299437
43.825921661765676	1362.006258099962
44.264180878383335	1448.8401885459962
44.70682268716717	1451.4545394408174
45.15389091403884	1551.2963078435864
45.60542982317923	2176.692394353711
46.06148412141103	1717.6925818830543
46.52209896262513	1280.2799237266738
46.98731995225138	1266.781072224561
47.4571931517739	1865.9180760601043
47.93176508329164	1048.9799592675251
48.411082734124555	1657.6891097809828
48.8951935614658	1010.8740961460021
49.38414549708046	863.0221046581642
49.877986952051266	950.2701555592009
50.37676682157178	917.4054277639999
50.88053448978749	885.6370058185885
51.38933983468537	854.9220581744801
51.903233233032225	825.2345210048833
52.422265565362544	796.5372477371916
52.946488221016175	768.7980818386721
53.47595310322633	741.995343217709
54.010712634258596	716.0894839359822
54.550819760601186	691.0569359052182
55.0963279582072	666.8686157054761
55.647291237789275	643.4961189124716
56.20376415016716	620.9174439485628
56.765801791668835	599.1016761147192
57.33345980958552	578.028714519099
57.906794407681375	557.672766683674
58.48586235175819	538.0091576015321
59.070720975275776	519.0190714324552
59.661428185028534	500.67543965513715
60.25804246687882	482.9626155303789
60.860622891547614	465.85556583557
61.46922912046309	449.3367037811457
62.083921411667724	433.38721022501545
62.7047606257844	417.98484179747396
63.331808232042235	403.11701509031815
63.965126314362664	388.7619902601264
64.60477757750628	374.9029342511076
65.25082535328136	361.5255496739564
65.90333360681416	348.6103670606845
66.56236694288232	336.1466273190032
67.22799061231113	324.11549458746737
67.90027051843424	312.5034874711431
68.57927322361859	301.29738886944676
69.26506595585477	290.48191451900306
69.95771661541333	280.0460757220147
70.65729378156746	269.97519552516434
71.36386671938313	260.2577949332081
72.07750538657696	250.8817280706385
72.79828044044274	241.83460441327787
73.52626324484716	233.10721975298293
74.26152587729563	224.68651965785176
75.00414113606858	216.56387619087897
75.75418254742928	208.72783621931544
76.51172437290357	201.16851969077337
77.27684161663261	193.87797131484123
78.04961003279894	186.84469684177347
78.83010613312693	180.06217842472145
79.6184071944582	173.52003642568548
80.41459126640278	167.21044842491645
81.2187371790668	161.12637613038603
82.03092455085748	155.25821626118812
82.85123379636605	149.6002924944287
83.6797461343297	144.14390227585375
84.51654359567301	138.8826774325129
85.36170903162974	133.80999350945498
86.21532612194603	128.91855865034674
87.0774793831655	124.20328138320674
87.94825417699715	119.6566946355711
88.82773671876713	115.27373025171322
89.71601408595481	111.04860283339724
90.61317422681435	106.97492594834694
91.5193059690825	103.0487287750254
92.43449902877332	99.26347182405458
93.35884401906105	95.61538480063385
