#wavelength	surface flux
0.428837	1357.2965929395953
0.43312537	2619.460273053618
0.43745662370000005	3029.313030073271
0.4418311899370001	3496.353081014234
0.44624950183637	4017.8943052862546
0.4507119968547338	4591.177122104089
0.45521911682328114	5133.659524406185
0.4597713079915139	5935.494357945121
0.4643690210714291	6735.825927874631
0.4690127112821433	7577.140223435169
0.47370283839496474	8477.058308999196
0.47843986677891437	9389.558044074785
0.48322426544670355	10372.921907547832
0.48805650810117057	11427.95460092266
0.4929370731821824	12421.974581864693
0.49786644391400414	13310.40944347459
0.5028451083531442	14123.990313449423
0.5078735594366757	14665.36238217358
0.5129522950310424	14825.504928125387
0.5180818179813528	14728.695321601619
0.5232626361611664	14918.65623993875
0.5284952625227781	14170.024072123679
0.5337802151480058	12861.649153781307
0.5391180172994858	11089.0251870307
0.5445091974724807	8956.125977848067
0.5499542894472055	6664.001158833857
0.5554538323416777	4464.589282028633
0.5610083706650945	2617.9684096198157
0.5666184543717453	1298.883978659166
0.5722846389154628	528.8547180610981
0.5780074853046174	175.6411662572707
0.5837875601576636	47.15098379937504
0.5896254357592402	5.220473233624845
0.5955216901168326	85.59073520380556
0.6014769070180009	369.1308680266918
0.607491676088181	1221.2567883956342
0.6135665928490629	3258.9311208869713
0.6197022587775535	7247.0470950045565
0.625899281365329	13948.373935950855
0.6321582741789823	23943.21152182224
0.6384798569207721	37619.80123939262
0.6448646554899798	54950.513340881764
0.6513133020448797	76247.30058602571
0.6578264350653285	100663.88304458956
0.6644046994159818	127797.33530500045
0.6710487464101416	108435.9060419371
0.677759233874243	190982.37183599843
0.6845368262129854	226018.53868338204
0.6913821944751153	255071.60895440853
0.6982960164198664	288870.5972231199
0.7052789765840651	314407.04996366135
0.7123317663499058	330726.13182796177
0.7194550840134049	325693.15201176214
0.7266496348535388	303675.08306838176
0.7339161312020743	263460.5931985491
0.741255292514095	195589.74595244005
0.748667845439236	109102.15367858578
0.7561545238936284	35240.041950315375
0.7637160691325647	3780.3335034584798
0.7713532298238903	3099.39967759064
0.7790667621221293	36369.56956723482
0.7868574297433505	169239.28653110738
0.7947260040407841	189178.67875291774
0.8026732640811919	610549.6424392844
0.8106999967220039	841637.2380599757
0.8188069966892239	1114005.4074883198
0.8269950666561161	1389225.9043652762
0.8352650173226772	1630219.1173166062
0.8436176674959041	1946858.6557258104
0.852053844170863	1991704.9796397407
0.8605743826125718	2522851.842836145
0.8691801264386976	2806773.6993346056
0.8778719277030844	3099122.11550193
0.8866506469801153	3286605.5307642254
0.8955171534499164	3117446.5862132087
0.9044723249844157	3948938.8193348716
0.9135170482342599	4209399.401552054
0.9226522187166025	4384061.725392132
0.9318787409037684	2755616.529359582
0.941197528312806	3778990.6432576585
0.9506095035959342	3512529.561596188
0.9601155986318936	3444238.062956074
0.9697167546182125	3928427.611730909
0.9794139221643946	5345088.50477632
0.9892080613860387	6191759.888773997
0.9991001419998989	6913876.420795957
1.0090911434198981	7543064.011795386
1.019182054854097	8242833.942957036
1.0293738754026378	8569489.775466422
1.0396676141566643	9229685.96507663
1.050064290298231	9614424.400796946
1.0605649332012133	10110557.944887506
1.0711705825332256	10421106.854401477
1.0818822883585577	10889537.200912435
1.0927011112421434	10341103.636092924
1.1036281223545648	5453783.480421106
1.1146644035781104	4557706.306713725
1.1258110476138916	4984254.65124628
1.1370691580900303	5409718.011428669
1.1484398496709307	6768415.974027943
1.1599242481676402	3249946.4221689464
1.1715234906493166	6054662.603030395
1.1832387255558097	11239858.015604183
1.1950711128113678	13752239.95747782
1.2070218239394814	14927021.291492805
1.2190920421788762	16151118.31034036
1.2312829626006652	17214865.380842578
1.2435957922266716	17990487.481819015
1.2560317501489384	18683301.31822106
1.2685920676504279	19002682.75141659
1.281277988326932	19039786.338259872
1.2940907682102014	18179457.62516637
1.3070316758923035	17338586.893410206
1.3201019926512265	17984049.67813017
1.3333030125777388	5777194.638086732
1.3466360427035162	947797.1640721941
1.3601024031305513	295310.4765928199
1.373703427161857	1458281.5425137554
1.3874404614334754	211253.83152891946
1.4013148660478103	690135.5058937321
1.4153280147082883	531254.2086055051
1.4294812948553712	823558.6406248307
1.443776107803925	1639756.3525384848
1.4582138688819641	4717173.330893658
1.4727960075707838	4348883.717760679
1.4875239676464918	7637602.787486603
1.5023992073229566	9416434.681959976
1.5174231993961862	12640469.819131691
1.532597431390148	16922324.5970064
1.5479234057040496	20991070.22687659
1.5634026397610903	23807148.729772158
1.579036666158701	24212313.095523197
1.594827032820288	25237216.4550174
1.610775303148491	23445062.36463669
1.6268830561799759	17283975.6436066
1.6431518867417756	22552323.20561417
1.6595834056091934	20113270.646687932
1.6761792396652853	17079115.21245009
1.6929410320619382	12035287.302200105
1.7098704423825577	12329306.632745951
1.7269691468063835	14470808.082482193
1.744238838274447	10398389.949944556
1.7616812266571917	10632771.566191133
1.7792980389237634	2077463.507131084
1.7970910193130012	3178778.1198857008
1.815061929506131	974692.0493544904
1.8332125488011928	704994.1138365738
1.8515446742892046	1423802.3992863502
1.8700601210320964	756362.7608192752
1.8887607222424174	3259925.1252054307
1.9076483294648416	500074.1627071601
1.92672481275949	503565.56886785623
1.9459920608870853	1251411.1978345022
1.9654519814959561	1698572.5317683332
1.9851065013109155	4461550.839251386
2.0049575663240247	6367863.668236898
2.025007141987265	8370564.422906
2.0452572134071376	14187095.231959907
2.065709785541209	16190610.965029435
2.086366883396621	16225757.153679762
2.107230552230587	14921463.118239138
2.1283028577528933	14024863.81358941
2.1495858863304225	11373721.119193554
2.1710817451937263	10114469.304585826
2.1927925626456637	5771933.14289163
2.2147204882721203	3207716.3854742195
2.2368676931548412	1691800.0904930674
2.25923637008639	1582660.3709497864
2.281828733787254	1363672.2909402028
2.3046470211251266	1916212.56429141
2.327693491336378	917515.8578017144
2.3509704262497415	901893.1051234114
2.374480130512239	712464.0162899843
2.3982249318173614	1268214.264252015
2.4222071811355352	2288565.084055479
2.4464292529468903	2336145.3669192735
2.4708935454763594	1659729.8665226977
2.4956024809311232	836247.492686582
2.5205585057404343	332438.7784736879
2.5457640907978387	640106.0821191109
2.5712217317058172	204983.6419485876
2.5969339490228753	147797.76402381374
2.622903288513104	514383.2400473823
2.6491323213982354	813056.495587625
2.6756236446122177	66357.20790954254
2.7023798810583397	378396.9538313992
2.729403679868923	1138936.5841787644
2.7566977166676123	407021.4878876655
2.7842646938342885	314742.7210096027
2.812107340772631	388281.91490133567
2.8402284141803578	926105.5511125235
2.8686306983221614	541494.2748831094
2.897317005305383	743100.204330449
2.926290175358437	1931446.871366698
2.9555530771120213	2251760.0973229725
2.9851086078831415	2337263.538159989
3.014959693961973	2865195.0583910523
3.0451092909015927	2132382.7818882484
3.0755603838106085	2586404.976557309
3.1063159876487147	1638430.3371144375
3.137379147525202	1095397.0350877966
3.168752939000454	749290.0393878167
3.200440468390459	576237.9734599175
3.232444873074363	378131.12701749784
3.264769321805107	1143508.8308053142
3.297417015023158	1176733.3438624467
3.330391185173389	200336.43999992643
3.3636950970251234	867592.2844883418
3.397332047995375	700197.599694604
3.4313053684753285	516816.08806745225
3.465618422160081	604165.3792958059
3.5002746063816828	917182.3878614935
3.5352773524454997	1223423.307386499
3.570630125969955	1716016.9449751826
3.606336427229654	2336316.963565566
3.6423997915019504	3268152.875072579
3.67882378941697	4377381.208013998
3.7156120273111397	4810124.189150609
3.7527681475842516	5957625.1242839005
3.7902958290600934	5991543.44059888
3.8281987873506953	7907251.150187918
3.8664807752242023	7983442.966935871
3.905145582976444	8441279.110475853
3.9441970388062084	9543258.224101912
3.983639009194271	9971599.545381881
4.023475399286213	10517617.331365509
4.063710153279075	10873197.994295748
4.1043472548118665	10380771.410648318
4.145390727359985	9705155.485260498
4.186844634633585	9211935.827913582
4.2287130809799205	8341959.280431332
4.27100021178972	7709334.199238022
4.313710213907617	7567757.982695528
4.356847316046694	6765820.30261319
4.40041578920716	6513671.230077424
4.444419947099232	6117278.366396772
4.488864146570225	6005266.195995785
4.533752788035927	5568365.273026911
4.579090315916286	5787178.377419764
4.624881219075449	5092007.833715158
4.671130031266204	4823714.131950043
4.717841331578866	4419059.735924095
4.765019744894654	4993684.152544709
4.812669942343601	4405545.52751585
4.8607966417670365	4442984.775506625
4.9094046081847065	4003272.0577572067
4.958498654266554	2111660.21563806
5.008083640809219	2691468.6814172477
5.058164477217312	3532005.596589709
5.108746121989485	2765520.8076881184
5.15983358320938	1817441.1872147222
5.211431919041474	1268900.5566870165
5.263546238231889	1740201.345406237
5.316181700614208	2156433.3499729824
5.36934351762035	1060955.839074724
5.423036952796553	738004.9653231553
5.4772673223245185	798834.6316083192
5.532039995547764	930471.447879681
5.587360395503242	642425.4361888183
5.643233999458275	502659.62007698085
5.6996663394528575	473828.44276206085
5.756663002847385	451977.69155472406
5.814229632875859	549387.4938047114
5.872371929204618	380980.34243066335
5.931095648496664	461314.6186229695
5.990406604981631	590874.7013870178
6.050310671031448	507862.2670467397
6.110813777741763	487100.500310125
6.17192191551918	503422.6813180045
6.233641134674372	1473194.700856146
6.295977546021115	1619520.3843609176
6.358937321481327	972659.7696692625
6.42252669469614	302193.3533496611
6.486751961643101	259556.4729356917
6.551619481259532	334310.4932397885
6.617135676072128	284389.57523790246
6.683307032832849	492912.89688476844
6.750140103161177	595718.4729662982
6.81764150419279	589707.0019095402
6.885817919234718	418980.3962691336
6.954676098427065	603101.8849310577
7.024222859411336	357981.4487108927
7.094465088005449	558928.4328634517
7.165409738885503	376136.804557197
7.237063836274358	412413.2249217723
7.309434474637103	339403.6535659295
7.382528819383473	291686.229007667
7.456354107577308	279851.75457617396
7.530917648653081	388523.14099756145
7.606226825139612	416792.8891538033
7.682289093391009	216935.91891541853
7.759111984324918	332089.9588085418
7.836703104168168	361716.59608990175
7.91507013520985	338780.16035089066
7.994220836561947	402126.3768619994
8.074163044927568	401688.59189845173
8.154904675376844	435501.6406089753
8.23645372213061	465482.0284760087
8.318818259351918	556039.254944695
8.402006441945437	573853.8983071035
8.486026506364892	583653.7132720267
8.57088677142854	757406.0317442578
8.656595639142825	772753.7574971155
8.743161595534254	868415.0979078896
8.830593211489598	892537.028583669
8.918899143604493	815772.1320941449
9.00808813504054	929227.5214777536
9.098169016390944	967368.6382214761
9.189150706554853	1014744.1046516633
9.281042213620402	792917.709565788
9.373852635756606	605209.1565098264
9.467591162114172	913846.5247478826
9.562267073735315	1043795.7861854056
9.657889744472667	729557.8156985786
9.754468641917395	850069.6134079501
9.852013328336568	843267.3875543354
9.950533461619933	1012202.8720808134
10.050038796236134	936730.9336265613
10.150539184198495	1006915.5400538204
10.252044576040479	873094.8202408816
10.354565021800884	334677.0473567244
10.458110672018893	508685.3223587345
10.562691778739081	656335.1695107007
10.668318696526473	492409.83904266433
10.775001883491738	400261.25104174804
10.882751902326655	617143.8137089445
10.991579421349924	484718.00472874544
11.101495215563421	609801.9056080445
11.212510167719055	484806.36458078306
11.324635269396246	561657.1369905908
11.43788162209021	640605.1988238217
11.552260438311112	402540.81654154486
11.667783042694223	468451.56560397515
11.784460873121166	385149.3549197332
11.902305481852377	483805.26199169096
12.0213285366709	461149.4388211663
12.14154182203761	521876.6061693582
12.262957240257986	369078.25479808915
12.385586812660566	314904.73884680326
12.509442680787172	312506.01713150536
12.634537107595044	362300.37421113893
12.760882478670995	348285.1594601022
12.888491303457704	311915.32552221976
13.01737621649228	278924.4063840433
13.147549978657205	297680.5781702341
13.279025478443776	228001.02213619623
13.411815733228213	214687.79472558646
13.545933890560496	279540.4849521029
13.681393229466101	236393.74258394435
13.818207161760762	202244.44285646823
13.956389233378369	231012.17815405646
14.095953125712155	225332.83986798243
14.236912656969274	208574.27126508346
14.379281783538968	162360.4307991649
14.523074601374358	152599.20056751155
14.6683053473881	202539.55002471252
14.814988400861985	183189.08619678902
14.963138284870602	162462.6420597253
15.11276966771931	181013.05338541607
15.263897364396504	193112.91715576613
15.41653633804047	153824.67739207414
15.570701701420873	107146.59057701871
15.726408718435081	95520.90988752843
15.883672805619431	162399.9152893071
16.042509533675627	108416.94623314543
16.202934629012383	114652.40661334261
16.36496397530251	112548.20778598875
16.528613615055534	106372.78654230527
16.69389975120609	89650.6228389876
16.86083874871815	85106.70094240448
17.02944713620533	105763.71709854399
17.199741607567383	75129.60085043451
17.37173902364306	68480.31726498659
17.54545641387949	75247.38059759737
17.720910978018285	72855.05634848378
17.898120087798468	68552.04277244581
18.077101288676452	72549.01647240312
18.257872301563214	63898.51168319092
18.44045102457885	66085.6388253099
18.62485553482464	56510.499991518845
18.811104090172883	87760.35990368728
18.999215131074614	49286.443098952004
19.189207282385357	51368.10917999576
19.381099355209216	40855.578545849916
19.574910348761303	43298.752096411496
19.77065945224892	45969.90224641917
19.968366046771408	58271.337757592424
20.16804970723912	49553.80129081225
20.369730204311512	39647.43290343276
20.573427506354626	34650.57706406012
20.779161781418175	41401.0790532259
20.98695339923236	31619.97401943167
21.19682293322468	30857.64209300466
21.408791162556927	41350.68345592508
21.622879074182496	28845.962585106474
21.839107864924323	25550.88188113779
22.057498943573567	26804.340670946556
22.278073933009303	30359.182918339873
22.500854672339393	22499.436651198095
22.72586321906279	41962.84221162431
22.953121851253417	21191.64804274265
23.18265306976595	36254.613873767354
23.41447960046361	29075.220077038757
23.648624396468247	18143.07618080806
23.88511064043293	16410.749187488735
24.12396174683726	32514.905294708402
24.365201364305634	29629.33566989662
24.608853377948687	27698.462187088237
24.854941911728176	22382.239312780683
25.103491330845458	13150.820328512658
25.354526244153913	13384.405167156654
25.608071506595454	22401.977117719907
25.864152221661406	18240.1500156631
26.122793743878024	17387.04212131432
26.384021681316803	19097.21904229573
26.64786189812997	10295.199302544082
26.91434051711127	15145.067814728225
27.18348392228238	17498.673667269028
27.455318761505207	21380.26182027244
27.72987194912026	16441.33698806528
28.007170668611465	9787.804173165978
28.28724237529758	8490.706268919752
28.57011479905055	8469.989857639213
28.855815947041062	12525.516570970365
29.144374106511474	9025.758728279732
29.435817847576587	10660.484226434734
29.730176026052348	9121.070436299997
30.027477786312875	11207.648752738278
30.327752564176006	7482.143424247003
30.631030089817763	8130.052954073165
30.93734039071594	7304.669297689147
31.246713794623105	8951.47521307683
31.559180932569333	10218.873291460808
31.874772741895026	7609.729603603564
32.19352046931398	9327.779780971416
32.51545567400712	7830.069603054659
32.84061023074719	4983.157249103909
33.169016333054664	5404.601662241977
33.500706496385206	5826.813843884206
33.83571356134906	9075.03564178439
34.17407069696255	5839.666759900934
34.51581140393218	4577.606522807626
34.8609695179715	5260.591480974181
35.209579213151216	4561.941291447861
35.56167500528272	3790.1885079538256
35.917291755335555	3529.935655948912
36.27646467288891	4779.611411337029
36.639229319617804	4485.494772713713
37.005621612813975	5817.188597889057
37.37567782894212	3603.2888984490196
37.74943460723154	4199.4820069373245
38.12692895330385	5741.685033774707
38.5081982428369	5159.595037136708
38.893280225265265	3330.857597284904
39.28221302751791	2509.661851142061
39.6750351577931	3884.597527190022
40.071785509371026	2528.1317596383888
40.47250336446474	2528.0029335543177
40.87722839810939	2561.8251482964197
41.28600068209048	3881.3848580722843
41.69886068891139	3688.529225145518
42.1158492958005	2835.6484498282093
42.53700778875851	2935.0648235338954
42.962377866646094	2161.7514398692106
43.392001645312554	2039.101972509099
43.825921661765676	1772.3643426139206
44.264180878383335	1838.8228040912795
44.70682268716717	1818.5178366932125
45.15389091403884	1930.2085159146213
45.60542982317923	2470.9332254820456
46.06148412141103	2003.5789812324224
46.52209896262513	1570.1839206392885
46.98731995225138	1536.5378127961271
47.4571931517739	2195.327808571704
47.93176508329164	1347.7390874829755
48.411082734124555	1917.8926996073635
48.8951935614658	1279.9276363899405
49.38414549708046	1125.3998921877933
49.877986952051266	1197.4506872443826
50.37676682157178	1155.1661222206378
50.88053448978749	1114.3345100489498
51.38933983468537	1074.8960855626442
51.903233233032225	1036.8152296189562
52.422265565362544	1000.0407001049883
52.946488221016175	964.528869305964
53.47595310322633	930.2488739135517
54.010712634258596	897.1472748350906
54.550819760601186	865.1909358929109
55.0963279582072	834.3416474595549
55.647291237789275	804.5597696068995
56.20376415016716	775.8154145499087
56.765801791668835	748.0672399361991
57.33345980958552	721.2868179115977
57.906794407681375	695.4406093500902
58.48586235175819	670.4946704123736
59.070720975275776	646.4238927139128
59.661428185028534	623.1919536081025
60.25804246687882	600.777456655247
60.860622891547614	579.1471050498707
61.46922912046309	558.2773853171344
62.083921411667724	538.1431153752371
62.7047606257844	518.7148848899352
63.331808232042235	499.9757266879832
63.965126314362664	481.8960033947488
64.60477757750628	464.4551223785503
65.25082535328136	447.6325078257748
65.90333360681416	431.4032615915751
66.56236694288232	415.75276867520313
67.22799061231113	400.6564856837193
67.90027051843424	386.09662005973075
68.57927322361859	372.0555179469316
69.26506595585477	358.51315528463937
69.95771661541333	345.4555490730078
70.65729378156746	332.8629070227139
71.36386671938313	320.7203467488049
72.07750538657696	309.012325226748
72.79828044044274	297.72255125831873
73.52626324484716	286.83849992222633
74.26152587729563	276.344020757812
75.00414113606858	266.2270508138089
75.75418254742928	256.47367234594367
76.51172437290357	247.0701747936985
77.27684161663261	238.00643849050036
78.04961003279894	229.2681768879939
78.83010613312693	220.84638885279577
79.6184071944582	212.72787272066768
80.41459126640278	204.9024627896875
81.2187371790668	197.36101785881337
82.03092455085748	190.0916385449895
82.85123379636605	183.08650020040545
83.6797461343297	176.33463115804852
84.51654359567301	169.82769591926197
85.36170903162974	163.55771161874392
86.21532612194603	157.51479201682162
87.0774793831655	151.6925151663354
87.94825417699715	146.08159219819416
88.82773671876713	140.67542637100124
89.71601408595481	135.46635779477194
90.61317422681435	130.44681247717332
91.5193059690825	125.61140053742282
92.43449902877332	120.95193238317322
93.35884401906105	116.46337210525884
