#wavelength	surface flux
0.428837	35.02274564061273
0.43312537	69.61596617371703
0.43745662370000005	83.53571461912203
0.4418311899370001	100.03521133163206
0.44624950183637	119.58573330810499
0.4507119968547338	142.61451556192193
0.45521911682328114	169.53506767959863
0.4597713079915139	201.6391217332039
0.4643690210714291	239.10455245781588
0.4690127112821433	282.73845019404865
0.47370283839496474	333.85064630951865
0.47843986677891437	393.16848231886775
0.48322426544670355	462.0003407735362
0.48805650810117057	541.8909095804531
0.4929370731821824	633.8711033713248
0.49786644391400414	739.2601968516203
0.5028451083531442	859.7897424186577
0.5078735594366757	996.8790161656922
0.5129522950310424	1150.0714713743196
0.5180818179813528	1320.462137929377
0.5232626361611664	1517.837620901362
0.5284952625227781	1727.8649994220993
0.5337802151480058	1948.6849833262434
0.5391180172994858	2174.0627816665074
0.5445091974724807	2385.555670078808
0.5499542894472055	2556.9329508076676
0.5554538323416777	2634.7944535305796
0.5610083706650945	2543.32934026196
0.5666184543717453	2173.090572264363
0.5722846389154628	1474.5435233474716
0.5780074853046174	620.6622169855257
0.5837875601576636	100.77139028200652
0.5896254357592402	4.553644999769104
0.5955216901168326	196.72375057417437
0.6014769070180009	1212.72611478472
0.607491676088181	3273.8970853512146
0.6135665928490629	5929.725460178255
0.6197022587775535	8805.32115748564
0.625899281365329	11780.386340586154
0.6321582741789823	14840.877534150713
0.6384798569207721	18027.945053515286
0.6448646554899798	21335.16370558485
0.6513133020448797	24952.756399169182
0.6578264350653285	28727.60834846036
0.6644046994159818	32969.0491073849
0.6710487464101416	34106.46004338615
0.677759233874243	42496.78704130884
0.6845368262129854	47869.7505125242
0.6913821944751153	52918.93967469089
0.6982960164198664	59587.58387106933
0.7052789765840651	66220.24840977076
0.7123317663499058	73171.72471438795
0.7194550840134049	78684.39912916414
0.7266496348535388	83945.13055906024
0.7339161312020743	90694.99900222161
0.741255292514095	94625.58937999012
0.748667845439236	89768.54850686058
0.7561545238936284	61286.77150897294
0.7637160691325647	8568.960494887331
0.7713532298238903	6652.181857814452
0.7790667621221293	70725.45516417999
0.7868574297433505	144743.6948553583
0.7947260040407841	119786.42758217652
0.8026732640811919	220664.74416424506
0.8106999967220039	242210.09767513792
0.8188069966892239	276085.1687419313
0.8269950666561161	304274.76104358333
0.8352650173226772	329882.1169306084
0.8436176674959041	369768.4490935616
0.852053844170863	403813.5633920623
0.8605743826125718	444462.25566135184
0.8691801264386976	482957.67218909453
0.8778719277030844	519207.4445746318
0.8866506469801153	542514.1738816334
0.8955171534499164	549229.1092113089
0.9044723249844157	645293.6599624179
0.9135170482342599	690957.4420275905
0.9226522187166025	730673.7950503934
0.9318787409037684	504947.20606209245
0.941197528312806	670737.9356102139
0.9506095035959342	640101.9617833706
0.9601155986318936	654763.4403453409
0.9697167546182125	767613.9579525953
0.9794139221643946	986951.4406477867
0.9892080613860387	1137500.5869053404
0.9991001419998989	1277512.0263640815
1.0090911434198981	1388307.0220007787
1.019182054854097	1507688.3087733586
1.0293738754026378	1558400.9137561624
1.0396676141566643	1715036.2134930284
1.050064290298231	1808950.0084472913
1.0605649332012133	1930483.5839787934
1.0711705825332256	2026932.1311760359
1.0818822883585577	2149468.084366996
1.0927011112421434	2169294.9465407375
1.1036281223545648	1396037.5270745857
1.1146644035781104	1180060.9583596154
1.1258110476138916	1200587.1502409198
1.1370691580900303	1373965.4277391143
1.1484398496709307	1667913.6733014719
1.1599242481676402	881919.4089660026
1.1715234906493166	1738620.785824517
1.1832387255558097	2847760.345027026
1.1950711128113678	3345325.656510298
1.2070218239394814	3614216.0834794277
1.2190920421788762	3878531.419161249
1.2312829626006652	4119447.6474477476
1.2435957922266716	4343739.494250294
1.2560317501489384	4546287.187086668
1.2685920676504279	4683570.771938987
1.281277988326932	4802669.941205274
1.2940907682102014	4723662.621584433
1.3070316758923035	4633639.736027508
1.3201019926512265	4871934.597612233
1.3333030125777388	2064937.632240884
1.3466360427035162	395635.59439812135
1.3601024031305513	99678.75698113255
1.373703427161857	545504.5632028213
1.3874404614334754	62587.459184155574
1.4013148660478103	270206.60448507394
1.4153280147082883	198884.59221004506
1.4294812948553712	313168.5877984538
1.443776107803925	729217.799463222
1.4582138688819641	2225351.5869130385
1.4727960075707838	1956769.4508614673
1.4875239676464918	3633339.740920951
1.5023992073229566	4213911.36818896
1.5174231993961862	5600648.161555322
1.532597431390148	6989555.905866357
1.5479234057040496	7913847.448318112
1.5634026397610903	8444962.186978647
1.579036666158701	7948542.5439959485
1.594827032820288	8995112.614265788
1.610775303148491	8405999.03107363
1.6268830561799759	6176556.170419869
1.6431518867417756	8262480.600514024
1.6595834056091934	7658749.085577152
1.6761792396652853	6561911.755018113
1.6929410320619382	4711200.167020775
1.7098704423825577	5004774.003255169
1.7269691468063835	6454746.669679187
1.744238838274447	5310769.067783499
1.7616812266571917	5472562.0477147885
1.7792980389237634	1039841.1231771089
1.7970910193130012	1761663.6642142786
1.815061929506131	468338.9119625164
1.8332125488011928	294335.5953800545
1.8515446742892046	734781.0552500532
1.8700601210320964	299526.2583882982
1.8887607222424174	1856600.270121755
1.9076483294648416	160648.65800391592
1.92672481275949	186710.8554019908
1.9459920608870853	691682.3979441351
1.9654519814959561	985556.2955287485
1.9851065013109155	3192147.075782627
2.0049575663240247	4690139.860363891
2.025007141987265	6878394.7201207
2.0452572134071376	11058989.839762807
2.065709785541209	12448340.17533735
2.086366883396621	12702450.292435799
2.107230552230587	11989833.122167617
2.1283028577528933	11049560.185675083
2.1495858863304225	8601192.700188013
2.1710817451937263	7754904.215030557
2.1927925626456637	4081497.8284468325
2.2147204882721203	1865259.5837774102
2.2368676931548412	734478.0376619524
2.25923637008639	696913.4042398254
2.281828733787254	577003.4143662084
2.3046470211251266	962199.5358301181
2.327693491336378	373210.16082420317
2.3509704262497415	347129.5303392697
2.374480130512239	272816.3669104744
2.3982249318173614	535880.6577164802
2.4222071811355352	1191484.4686426546
2.4464292529468903	1296618.6063639335
2.4708935454763594	945112.0261423148
2.4956024809311232	425956.1814314907
2.5205585057404343	145000.6286570154
2.5457640907978387	326343.1606130722
2.5712217317058172	88970.58900482192
2.5969339490228753	52195.09803337408
2.622903288513104	243476.34159186398
2.6491323213982354	436400.76781214774
2.6756236446122177	22231.07118279514
2.7023798810583397	173796.02121908314
2.729403679868923	641611.8248613535
2.7566977166676123	165388.78649697642
2.7842646938342885	126185.50949420099
2.812107340772631	173632.8723516485
2.8402284141803578	492374.8657882776
2.8686306983221614	286931.68971921527
2.897317005305383	427424.2482213504
2.926290175358437	1161519.2928002004
2.9555530771120213	1429182.2109061894
2.9851086078831415	1522003.2011087395
3.014959693961973	1817123.4090381723
3.0451092909015927	1376099.5672799207
3.0755603838106085	1716840.2792126965
3.1063159876487147	1030337.5678089408
3.137379147525202	677453.9964777443
3.168752939000454	427348.79173563514
3.200440468390459	307949.14568989817
3.232444873074363	191709.2975315001
3.264769321805107	622847.422511035
3.297417015023158	624967.1366877004
3.330391185173389	98435.93838557144
3.3636950970251234	468433.2015944874
3.397332047995375	366878.2802614396
3.4313053684753285	259423.72682328182
3.465618422160081	323347.4067161695
3.5002746063816828	529897.6080257592
3.5352773524454997	685556.8722945555
3.570630125969955	1022446.7227566728
3.606336427229654	1400344.9003163765
3.6423997915019504	2056112.6679698236
3.67882378941697	2826927.8570053168
3.7156120273111397	3052551.2355171256
3.7527681475842516	3945356.488607016
3.7902958290600934	3927289.634966297
3.8281987873506953	5427174.511776528
3.8664807752242023	5431607.65141225
3.905145582976444	5678156.39361495
3.9441970388062084	6503865.186837702
3.983639009194271	6633501.059493258
4.023475399286213	7144841.378754283
4.063710153279075	7296672.061833589
4.1043472548118665	7262062.172902833
4.145390727359985	7033538.360882137
4.186844634633585	6764190.925457012
4.2287130809799205	6195162.721866874
4.27100021178972	5789791.996096668
4.313710213907617	5789401.324862421
4.356847316046694	5029929.693763994
4.40041578920716	4597031.948964823
4.444419947099232	4181622.7283894424
4.488864146570225	3989659.3303316683
4.533752788035927	3621378.082989132
4.579090315916286	3768252.9007707285
4.624881219075449	3437641.399549653
4.671130031266204	3369364.448760503
4.717841331578866	3046439.537052623
4.765019744894654	3343204.894783737
4.812669942343601	3092291.295362074
4.8607966417670365	3244100.1856653336
4.9094046081847065	2900916.3062265557
4.958498654266554	1529035.7129797798
5.008083640809219	1980733.563672737
5.058164477217312	2738826.283999991
5.108746121989485	2045603.138375204
5.15983358320938	1309367.7199685075
5.211431919041474	904643.3240495449
5.263546238231889	1271610.1113237224
5.316181700614208	1656096.156039921
5.36934351762035	726061.9303078167
5.423036952796553	488194.90118686866
5.4772673223245185	519924.557546598
5.532039995547764	617341.3617107109
5.587360395503242	403631.8865226853
5.643233999458275	296826.26156947383
5.6996663394528575	286875.6332455375
5.756663002847385	263829.42089632474
5.814229632875859	346334.8867365084
5.872371929204618	214057.1644988322
5.931095648496664	293041.5066257093
5.990406604981631	391249.2905734035
6.050310671031448	328864.4764074271
6.110813777741763	330703.3945927126
6.17192191551918	331364.8731070155
6.233641134674372	1092777.4120114753
6.295977546021115	1224398.3049721087
6.358937321481327	673292.1825735164
6.42252669469614	178502.55173793054
6.486751961643101	150225.17503020962
6.551619481259532	198492.9777934224
6.617135676072128	174750.653430643
6.683307032832849	331432.32034136663
6.750140103161177	427712.2788878818
6.81764150419279	426194.91350088787
6.885817919234718	274606.6787247901
6.954676098427065	444242.4326599221
7.024222859411336	232813.23666109666
7.094465088005449	407202.1512521828
7.165409738885503	253521.93036175153
7.237063836274358	289485.1965631813
7.309434474637103	224010.00074279023
7.382528819383473	182403.10459152973
7.456354107577308	177896.86943060777
7.530917648653081	255593.73811411503
7.606226825139612	293096.62557799177
7.682289093391009	132469.37513826007
7.759111984324918	226432.13900488068
7.836703104168168	237267.56468599118
7.91507013520985	222559.57133787844
7.994220836561947	271362.52515912405
8.074163044927568	282114.61937286024
8.154904675376844	317545.8707995743
8.23645372213061	376415.8603516341
8.318818259351918	427863.6063588431
8.402006441945437	451333.3471351559
8.486026506364892	548133.3163609545
8.57088677142854	622252.479133651
8.656595639142825	685888.2875398274
8.743161595534254	763923.1402968252
8.830593211489598	832959.5269928369
8.918899143604493	782681.9321672781
9.00808813504054	835078.0260696058
9.098169016390944	915006.7200748238
9.189150706554853	949797.3514416489
9.281042213620402	866480.582510644
9.373852635756606	669695.8011048179
9.467591162114172	935117.3760902283
9.562267073735315	1024744.4056062454
9.657889744472667	781247.427737076
9.754468641917395	946064.542094934
9.852013328336568	763498.5567714586
9.950533461619933	955260.3000456746
10.050038796236134	877605.1923824245
10.150539184198495	915918.1772856879
10.252044576040479	788979.8435874555
10.354565021800884	477562.8570278396
10.458110672018893	588150.789204768
10.562691778739081	697912.3081048641
10.668318696526473	616235.0052761262
10.775001883491738	568287.8288396462
10.882751902326655	597806.2999789959
10.991579421349924	445146.9426107336
11.101495215563421	627138.8041903414
11.212510167719055	486572.8532014378
11.324635269396246	525301.5985479865
11.43788162209021	586243.9011411028
11.552260438311112	375440.6718594861
11.667783042694223	420393.2812834043
11.784460873121166	399350.68229726993
11.902305481852377	454685.4579462013
12.0213285366709	460046.4017438034
12.14154182203761	493775.65076552704
12.262957240257986	351883.52212340024
12.385586812660566	284407.60689767083
12.509442680787172	282470.86287551065
12.634537107595044	354064.13633805857
12.760882478670995	329309.3985871091
12.888491303457704	301607.589950348
13.01737621649228	256142.96112243098
13.147549978657205	280645.6207019055
13.279025478443776	199940.91425522338
13.411815733228213	190914.30553248216
13.545933890560496	259234.835880365
13.681393229466101	212029.49231997607
13.818207161760762	205026.80186425283
13.956389233378369	213046.08313485378
14.095953125712155	223097.41222831368
14.236912656969274	196104.44144809042
14.379281783538968	138740.16746594053
14.523074601374358	131584.7514281945
14.6683053473881	183773.45976255328
14.814988400861985	165681.8128021592
14.963138284870602	145535.52287082578
15.11276966771931	161335.82352017402
15.263897364396504	180362.38115413862
15.41653633804047	140043.86993977637
15.570701701420873	95314.85228353622
15.726408718435081	83346.18768733529
15.883672805619431	165391.65253929375
16.042509533675627	109172.53977325944
16.202934629012383	101986.68154310052
16.36496397530251	101729.61976166855
16.528613615055534	94123.08459565128
16.69389975120609	78474.08262910925
16.86083874871815	71420.76201505747
17.02944713620533	95411.83228255436
17.199741607567383	65032.64650879573
17.37173902364306	59141.72846656085
17.54545641387949	63615.1663567489
17.720910978018285	64908.87824008099
17.898120087798468	61142.06599739203
18.077101288676452	65019.71973624965
18.257872301563214	53950.564347959575
18.44045102457885	58982.31924508859
18.62485553482464	50031.58913999519
18.811104090172883	80928.00845519424
18.999215131074614	42417.351157476915
19.189207282385357	44495.815736103774
19.381099355209216	35255.138287387774
19.574910348761303	37874.51308169822
19.77065945224892	39425.00279828844
19.968366046771408	51641.467971519814
20.16804970723912	44660.71609933461
20.369730204311512	34903.863242149106
20.573427506354626	29785.338276236485
20.779161781418175	36570.38280876724
20.98695339923236	27626.987365476834
21.19682293322468	26139.980458387807
21.408791162556927	36479.10140054961
21.622879074182496	25352.019223903728
21.839107864924323	21333.076154068094
22.057498943573567	23040.77873132396
22.278073933009303	26984.269514638818
22.500854672339393	19234.310497777682
22.72586321906279	37473.23161064392
22.953121851253417	18321.80778979344
23.18265306976595	31173.284676793723
23.41447960046361	25733.40620610261
23.648624396468247	15352.470807710859
23.88511064043293	13722.561608065189
24.12396174683726	29359.783526973
24.365201364305634	26943.518920947765
24.608853377948687	25276.06106579472
24.854941911728176	20106.378472918743
25.103491330845458	10995.705901382911
25.354526244153913	11361.824397293982
25.608071506595454	20437.22431365117
25.864152221661406	15210.505643259914
26.122793743878024	15300.533892627087
26.384021681316803	17016.531859978586
26.64786189812997	8587.099938144156
26.91434051711127	13044.47486388717
27.18348392228238	15666.094021558341
27.455318761505207	19435.129262276343
27.72987194912026	14938.89049592154
28.007170668611465	8219.897191224365
28.28724237529758	7062.652781215323
28.57011479905055	7084.173713552941
28.855815947041062	11169.13812496757
29.144374106511474	7739.360750505738
29.435817847576587	9455.274097620593
29.730176026052348	7650.850074573194
30.027477786312875	10051.749711878674
30.327752564176006	6379.424218412222
30.631030089817763	7144.132835601966
30.93734039071594	6277.909833674385
31.246713794623105	8103.163440684356
31.559180932569333	9363.811426914754
31.874772741895026	6667.331285342503
32.19352046931398	8559.138445833425
32.51545567400712	7936.128258499632
32.84061023074719	4132.204200672014
33.169016333054664	4611.519370997327
33.500706496385206	5044.365463439531
33.83571356134906	8435.702604661681
34.17407069696255	5191.301354489287
34.51581140393218	3809.628132996038
34.8609695179715	4678.694767199252
35.209579213151216	3939.3921372730197
35.56167500528272	3137.311506613276
35.917291755335555	2894.356476245772
36.27646467288891	4127.062391527556
36.639229319617804	4050.8508745048434
37.005621612813975	5746.49116803138
37.37567782894212	3102.3374934160315
37.74943460723154	3680.4296656744796
38.12692895330385	5238.714533989722
38.5081982428369	4721.577178534857
38.893280225265265	2797.1310154442053
39.28221302751791	2048.880509328359
39.6750351577931	3536.620303526456
40.071785509371026	2119.520887491277
40.47250336446474	2106.9105906839936
40.87722839810939	2177.119979595467
41.28600068209048	3591.286619222746
41.69886068891139	3543.6659383515935
42.1158492958005	2592.3871742848896
42.53700778875851	2629.8297432272793
42.962377866646094	1876.6551754126322
43.392001645312554	1763.0366139505384
43.825921661765676	1460.5737263227334
44.264180878383335	1538.160792852843
44.70682268716717	1534.7376342669352
45.15389091403884	1638.175682918792
45.60542982317923	2246.0114583524405
46.06148412141103	1782.2337640466724
46.52209896262513	1345.0076168484254
46.98731995225138	1326.1980134733042
47.4571931517739	1944.465889350803
47.93176508329164	1119.1622293489932
48.411082734124555	1717.8097063834932
48.8951935614658	1076.9770010012712
49.38414549708046	928.4453931034717
49.877986952051266	1007.0831889980607
50.37676682157178	972.0610498506402
50.88053448978749	938.2161581701886
51.38933983468537	905.5020431005806
51.903233233032225	873.8910024733088
52.422265565362544	843.3419602069305
52.946488221016175	813.8208492210217
53.47595310322633	785.3034852184657
54.010712634258596	757.7468661642923
54.550819760601186	731.1259789380797
55.0963279582072	705.4096529094751
55.647291237789275	680.5665355440914
56.20376415016716	656.5723137161702
56.765801791668835	633.3946210886405
57.33345980958552	611.0114319201655
57.906794407681375	589.3948697898127
58.48586235175819	568.5178830902546
59.070720975275776	548.3606156626146
59.661428185028534	528.8941109324567
60.25804246687882	510.10097869345265
60.860622891547614	491.95441258456805
61.46922912046309	474.43549104925114
62.083921411667724	457.5241064815642
62.7047606257844	441.1962837748047
63.331808232042235	425.4382406448258
63.965126314362664	410.226450910947
64.60477757750628	395.5439573867519
65.25082535328136	381.37383546989355
65.90333360681416	367.6965309186783
66.56236694288232	354.49958178959656
67.22799061231113	341.7629611024471
67.90027051843424	329.47266810676285
68.57927322361859	317.6141878141184
69.26506595585477	306.1709698039056
69.95771661541333	295.1317230272596
70.65729378156746	284.480299396173
71.36386671938313	274.20421526819024
72.07750538657696	264.291201569735
72.79828044044274	254.72772033813462
73.52626324484716	245.50349468358073
74.26152587729563	236.60518784796133
75.00414113606858	228.02308948507283
75.75418254742928	219.74531239878448
76.51172437290357	211.76118220891513
77.27684161663261	204.06197569202362
78.04961003279894	196.63564849910333
78.83010613312693	189.47543431085302
79.6184071944582	182.57003869958538
80.41459126640278	175.91102673297732
81.2187371790668	169.49088492525775
82.03092455085748	163.29979942819867
82.85123379636605	157.33124102151754
83.6797461343297	151.57616822668845
84.51654359567301	146.02748944515088
85.36170903162974	140.67889326038508
86.21532612194603	135.5219153186973
87.0774793831655	130.55112542353703
87.94825417699715	125.75916099849506
88.82773671876713	121.14003323961983
89.71601408595481	116.68782006895741
90.61317422681435	112.39606839760648
91.5193059690825	108.26013105451695
92.43449902877332	104.27314628899336
93.35884401906105	100.43111219811426
