#wavelength	surface flux
0.428837	1509.5675871071935
0.43312537	2922.3197124355215
0.43745662370000005	3393.8905835168043
0.4418311899370001	3944.4487299864104
0.44624950183637	4572.661794533328
0.4507119968547338	5267.369911909553
0.45521911682328114	6082.541913134803
0.4597713079915139	7034.036743573377
0.4643690210714291	8090.470175304519
0.4690127112821433	9279.92382867054
0.47370283839496474	10626.338920723438
0.47843986677891437	12055.457618074162
0.48322426544670355	13765.558822607165
0.48805650810117057	15765.730318355092
0.4929370731821824	17894.85419950504
0.49786644391400414	20172.404170287333
0.5028451083531442	22670.113488311308
0.5078735594366757	25132.916658361726
0.5129522950310424	26866.86859155767
0.5180818179813528	28402.430823514045
0.5232626361611664	34863.692677233536
0.5284952625227781	38671.1487056742
0.5337802151480058	41849.85258879577
0.5391180172994858	44768.77289301731
0.5445091974724807	46770.77057780137
0.5499542894472055	47230.16583912169
0.5554538323416777	45326.540413106624
0.5610083706650945	40048.44923545592
0.5666184543717453	30434.73262883804
0.5722846389154628	17801.537793342057
0.5780074853046174	6319.650765961629
0.5837875601576636	816.2459746680289
0.5896254357592402	18.118605007320724
0.5955216901168326	1600.3635793807287
0.6014769070180009	11572.18658690491
0.607491676088181	34842.11519300609
0.6135665928490629	68624.40820179724
0.6197022587775535	107851.72787183333
0.625899281365329	149175.08831775907
0.6321582741789823	190933.0916693994
0.6384798569207721	234105.02934796
0.6448646554899798	277147.5858372549
0.6513133020448797	321939.0245331309
0.6578264350653285	366753.71151802666
0.6644046994159818	412701.4516094001
0.6710487464101416	344701.8846615117
0.677759233874243	516190.8993974916
0.6845368262129854	573384.8127065387
0.6913821944751153	623123.9004302343
0.6982960164198664	688555.3264598269
0.7052789765840651	748361.1232453976
0.7123317663499058	806964.0193457279
0.7194550840134049	850982.9932877413
0.7266496348535388	889148.4835750984
0.7339161312020743	914464.9252457913
0.741255292514095	894660.7743445549
0.748667845439236	767652.3050827222
0.7561545238936284	444233.3427877677
0.7637160691325647	53137.448677577966
0.7713532298238903	40056.86033104392
0.7790667621221293	465680.8923420191
0.7868574297433505	1122613.6803468775
0.7947260040407841	927569.3538344761
0.8026732640811919	1858573.6110220007
0.8106999967220039	2074625.1955694237
0.8188069966892239	2320951.2476691045
0.8269950666561161	2560380.9212508104
0.8352650173226772	2761460.858109092
0.8436176674959041	3020781.3962448854
0.852053844170863	3197670.4446627195
0.8605743826125718	3472821.3437117413
0.8691801264386976	3702592.773088153
0.8778719277030844	3943867.5099105407
0.8866506469801153	4171234.3771662763
0.8955171534499164	4242340.352540491
0.9044723249844157	4766116.1967652505
0.9135170482342599	5033978.2751632845
0.9226522187166025	5247530.097849919
0.9318787409037684	4234756.465601422
0.941197528312806	5131093.595757409
0.9506095035959342	5070533.890175352
0.9601155986318936	5114352.257956678
0.9697167546182125	5577881.678574314
0.9794139221643946	6682178.873019438
0.9892080613860387	7340268.48688104
0.9991001419998989	7921621.910458348
1.0090911434198981	8451744.97351566
1.019182054854097	9057364.011831582
1.0293738754026378	9286690.615401594
1.0396676141566643	10016318.398398142
1.050064290298231	10423497.239181982
1.0605649332012133	10965971.189495536
1.0711705825332256	11381662.32720579
1.0818822883585577	11894726.634195065
1.0927011112421434	11874324.89628848
1.1036281223545648	8646172.802133502
1.1146644035781104	8070754.241067557
1.1258110476138916	8811101.976607064
1.1370691580900303	8838802.699301349
1.1484398496709307	10503262.356351806
1.1599242481676402	7366159.748679681
1.1715234906493166	10416404.27968233
1.1832387255558097	14476986.337834127
1.1950711128113678	16221858.384287985
1.2070218239394814	17064087.60555669
1.2190920421788762	18112256.644756228
1.2312829626006652	18965620.06518212
1.2435957922266716	19702746.06532163
1.2560317501489384	20255610.930636108
1.2685920676504279	20751985.00185247
1.281277988326932	21125315.803250063
1.2940907682102014	20942941.89616834
1.3070316758923035	20785420.796757806
1.3201019926512265	21407064.844671644
1.3333030125777388	10727245.440139337
1.3466360427035162	3401914.545458276
1.3601024031305513	1430993.8960191598
1.373703427161857	4961658.136566226
1.3874404614334754	1110475.6796721963
1.4013148660478103	2541993.248996372
1.4153280147082883	2132131.1799609354
1.4294812948553712	3109794.7145222514
1.443776107803925	4948719.432316221
1.4582138688819641	10602897.720390767
1.4727960075707838	10479744.642656043
1.4875239676464918	15427464.46552977
1.5023992073229566	18005746.97417288
1.5174231993961862	21218137.132964335
1.532597431390148	25054680.001991067
1.5479234057040496	27632625.71209121
1.5634026397610903	29139266.073476303
1.579036666158701	28833237.844434734
1.594827032820288	31261333.274902474
1.610775303148491	30713292.359399147
1.6268830561799759	27956726.351457007
1.6431518867417756	31751526.471824653
1.6595834056091934	30508518.099676657
1.6761792396652853	29172184.57289655
1.6929410320619382	25122150.330026153
1.7098704423825577	25217387.95473688
1.7269691468063835	27140616.727631643
1.744238838274447	21304914.4204676
1.7616812266571917	22039872.348705012
1.7792980389237634	6011434.051866935
1.7970910193130012	7928212.119721791
1.815061929506131	3224852.313473379
1.8332125488011928	2565399.601364759
1.8515446742892046	4086974.5871932507
1.8700601210320964	2772372.973000384
1.8887607222424174	8478114.557587022
1.9076483294648416	2222397.2352545676
1.92672481275949	1965413.833850072
1.9459920608870853	3873688.970704843
1.9654519814959561	4608162.166691603
1.9851065013109155	11255208.29363748
2.0049575663240247	14420317.641428623
2.025007141987265	20628328.78490494
2.0452572134071376	29432203.276635755
2.065709785541209	32984241.203136977
2.086366883396621	34049790.25908059
2.107230552230587	33152722.107901048
2.1283028577528933	32910835.143190596
2.1495858863304225	29415887.621576183
2.1710817451937263	27477160.73511609
2.1927925626456637	18838552.41287062
2.2147204882721203	12106732.733465487
2.2368676931548412	7304702.6390625555
2.25923637008639	7000548.013424571
2.281828733787254	5514384.573491344
2.3046470211251266	6148258.970899266
2.327693491336378	3046693.4543465627
2.3509704262497415	3297090.3694281727
2.374480130512239	2564676.35787295
2.3982249318173614	4105778.7008010494
2.4222071811355352	6454319.050181592
2.4464292529468903	5633156.253117154
2.4708935454763594	3787822.1641018763
2.4956024809311232	1959664.4031252668
2.5205585057404343	941628.3556527625
2.5457640907978387	1577976.7410095793
2.5712217317058172	610195.8945184967
2.5969339490228753	531076.0874230841
2.622903288513104	1340606.490076592
2.6491323213982354	1952880.6720173415
2.6756236446122177	264597.52093829453
2.7023798810583397	989157.5748348742
2.729403679868923	2409871.950253605
2.7566977166676123	1213005.7033922528
2.7842646938342885	947288.2755518247
2.812107340772631	1081026.6001940265
2.8402284141803578	2107748.64844209
2.8686306983221614	1354011.533169548
2.897317005305383	1792140.765744857
2.926290175358437	3942345.5898987018
2.9555530771120213	4280716.454194155
2.9851086078831415	4339401.500675881
3.014959693961973	5522442.799090509
3.0451092909015927	5085835.54802686
3.0755603838106085	4683429.829728357
3.1063159876487147	3088524.894191452
3.137379147525202	2125041.759791038
3.168752939000454	1535541.0811821574
3.200440468390459	1268926.0884322354
3.232444873074363	896999.9886793419
3.264769321805107	2412082.7544851163
3.297417015023158	2568916.827421207
3.330391185173389	499016.58411622746
3.3636950970251234	1845121.9136976493
3.397332047995375	1571170.1002631357
3.4313053684753285	1223713.4800376198
3.465618422160081	1333061.1151254256
3.5002746063816828	1823675.6624087892
3.5352773524454997	2444599.566614677
3.570630125969955	3194087.289771205
3.606336427229654	4385934.263435266
3.6423997915019504	5966522.046291675
3.67882378941697	8125076.580533435
3.7156120273111397	9465201.866361678
3.7527681475842516	11193380.604311168
3.7902958290600934	11357175.907601327
3.8281987873506953	13322790.387016768
3.8664807752242023	13392637.121460758
3.905145582976444	13623221.653635863
3.9441970388062084	14202930.165249227
3.983639009194271	14246940.165206501
4.023475399286213	14547580.02702267
4.063710153279075	14521099.307843145
4.1043472548118665	14351937.124238448
4.145390727359985	13571680.525784256
4.186844634633585	12855371.111231185
4.2287130809799205	12019403.071699405
4.27100021178972	11068760.479079984
4.313710213907617	10670926.966887832
4.356847316046694	8823086.99627862
4.40041578920716	6912206.489562739
4.444419947099232	5687060.714418597
4.488864146570225	4918053.554679391
4.533752788035927	4357532.196123744
4.579090315916286	4563127.118530761
4.624881219075449	4605406.465536018
4.671130031266204	5053664.315011294
4.717841331578866	4386587.248150341
4.765019744894654	4197851.586175643
4.812669942343601	4297659.792576079
4.8607966417670365	4721306.270518573
4.9094046081847065	4262941.150762086
4.958498654266554	2993746.697080008
5.008083640809219	3621038.546743956
5.058164477217312	4460608.141734534
5.108746121989485	3707184.6822551736
5.15983358320938	2755078.904990285
5.211431919041474	2028128.194017021
5.263546238231889	2671276.3125143964
5.316181700614208	3202675.3677822496
5.36934351762035	1738890.646778128
5.423036952796553	1283657.4686412553
5.4772673223245185	1448324.7339689
5.532039995547764	1574329.9034241613
5.587360395503242	1165685.3279107052
5.643233999458275	978769.7321301884
5.6996663394528575	902873.7726511897
5.756663002847385	896177.0034540328
5.814229632875859	993419.2248224171
5.872371929204618	776677.058515586
5.931095648496664	872783.8173721704
5.990406604981631	1162325.6283184856
6.050310671031448	915319.6619100269
6.110813777741763	1376435.3663484263
6.17192191551918	1006248.7063012777
6.233641134674372	2236481.940673121
6.295977546021115	2402295.016171349
6.358937321481327	1586999.1752807647
6.42252669469614	599920.4098595193
6.486751961643101	540700.8645774638
6.551619481259532	640096.6308186975
6.617135676072128	531626.6216819576
6.683307032832849	821157.824113571
6.750140103161177	934985.7526870235
6.81764150419279	906085.5508716545
6.885817919234718	719135.5629092855
6.954676098427065	911152.0569739708
7.024222859411336	619551.5242025197
7.094465088005449	850519.9106059141
7.165409738885503	630502.265948489
7.237063836274358	655393.2740467299
7.309434474637103	578195.6053988739
7.382528819383473	524743.398672234
7.456354107577308	494275.47801469767
7.530917648653081	656120.7807795461
7.606226825139612	650925.9692700488
7.682289093391009	402957.5910027645
7.759111984324918	536605.3487510672
7.836703104168168	603463.2002448847
7.91507013520985	573638.0432295644
7.994220836561947	656737.0029078688
8.074163044927568	631990.4870473826
8.154904675376844	653697.8229259705
8.23645372213061	722741.4950165622
8.318818259351918	783229.2790242865
8.402006441945437	805548.4376590867
8.486026506364892	937868.6963391043
8.57088677142854	993945.8100143751
8.656595639142825	1080873.4097549606
8.743161595534254	1140184.1461634035
8.830593211489598	1238154.4002565893
8.918899143604493	1238382.0917767182
9.00808813504054	1252077.8195417009
9.098169016390944	1350373.085606555
9.189150706554853	1387018.6907330554
9.281042213620402	1372525.1812582323
9.373852635756606	1265495.1009350559
9.467591162114172	1314559.135933736
9.562267073735315	1453747.179883064
9.657889744472667	1276825.4017507972
9.754468641917395	1414621.4987142426
9.852013328336568	1105214.654438422
9.950533461619933	1318980.5883228474
10.050038796236134	1227826.1160349075
10.150539184198495	1263007.4844565177
10.252044576040479	1117867.4927808892
10.354565021800884	879566.4277124293
10.458110672018893	903585.8307759584
10.562691778739081	1003488.9651734082
10.668318696526473	990033.4576898778
10.775001883491738	943344.0282433815
10.882751902326655	830172.9574118245
10.991579421349924	626048.3116336388
11.101495215563421	868836.3065292379
11.212510167719055	762950.6010256422
11.324635269396246	747095.5761985675
11.43788162209021	789876.1491394897
11.552260438311112	554131.6804638292
11.667783042694223	591503.3085964635
11.784460873121166	559978.4118160472
11.902305481852377	626393.5932020585
12.0213285366709	629157.3571933751
12.14154182203761	647807.5774478484
12.262957240257986	478229.57311551325
12.385586812660566	393016.6019091565
12.509442680787172	404099.9031452655
12.634537107595044	466308.8916379205
12.760882478670995	434876.54956157616
12.888491303457704	431502.21047317877
13.01737621649228	348302.5380033125
13.147549978657205	365375.3746032329
13.279025478443776	279314.3893190153
13.411815733228213	273902.0320413491
13.545933890560496	326307.52846759086
13.681393229466101	286364.6389491494
13.818207161760762	311750.82345020724
13.956389233378369	279135.31014934654
14.095953125712155	295328.2335146876
14.236912656969274	254279.7366453826
14.379281783538968	198989.0539680165
14.523074601374358	189065.17289407866
14.6683053473881	234729.8501528748
14.814988400861985	210271.00819090256
14.963138284870602	188978.7755533946
15.11276966771931	211083.3739484136
15.263897364396504	230754.43387910153
15.41653633804047	175452.92637733996
15.570701701420873	139919.8536756432
15.726408718435081	126340.60940122546
15.883672805619431	208379.26782520217
16.042509533675627	148716.39828073652
16.202934629012383	138470.04912210646
16.36496397530251	128968.73522251112
16.528613615055534	124960.99377229177
16.69389975120609	107512.32868282811
16.86083874871815	106967.8863180948
17.02944713620533	122117.41261367679
17.199741607567383	91196.24697177052
17.37173902364306	83182.24234472838
17.54545641387949	93282.97461098827
17.720910978018285	85228.02211406146
17.898120087798468	80388.16381130453
18.077101288676452	85011.73314025463
18.257872301563214	79793.13039732452
18.44045102457885	76970.58619964732
18.62485553482464	66844.9784943077
18.811104090172883	102054.14589486782
18.999215131074614	60164.95384716268
19.189207282385357	62489.74844639002
19.381099355209216	50193.1375872022
19.574910348761303	52185.98874412729
19.77065945224892	56506.7603991398
19.968366046771408	68648.27668577881
20.16804970723912	57206.08024244607
20.369730204311512	47327.30587037744
20.573427506354626	42639.00175981636
20.779161781418175	49136.377188793056
20.98695339923236	38302.661168316175
21.19682293322468	38530.66095874222
21.408791162556927	49912.30407107247
21.622879074182496	34686.02269185977
21.839107864924323	32569.70761494593
22.057498943573567	33095.374980919805
22.278073933009303	35791.17867030792
22.500854672339393	28017.474698765305
22.72586321906279	48108.080688816364
22.953121851253417	26105.113089173712
23.18265306976595	43438.69154849076
23.41447960046361	34158.33253041538
23.648624396468247	22913.786504957916
23.88511064043293	21006.37298461422
24.12396174683726	37126.95947457008
24.365201364305634	33698.65283898303
24.608853377948687	31460.99838157653
24.854941911728176	26031.16567143911
25.103491330845458	16936.722097823684
25.354526244153913	16929.468564622366
25.608071506595454	25414.391445882793
25.864152221661406	22994.553370253627
26.122793743878024	20815.343457338193
26.384021681316803	22425.45225511383
26.64786189812997	13340.327626964978
26.91434051711127	18499.148582143487
27.18348392228238	20404.33515376464
27.455318761505207	25427.872450281648
27.72987194912026	19390.615502457164
28.007170668611465	12416.156005688994
28.28724237529758	11003.313543983275
28.57011479905055	10905.631127547416
28.855815947041062	15654.455218567193
29.144374106511474	11674.477756716293
29.435817847576587	12613.333164036245
29.730176026052348	11545.986343075785
30.027477786312875	13086.694191701112
30.327752564176006	9413.514815004166
30.631030089817763	10029.452735415724
30.93734039071594	9041.607641961045
31.246713794623105	10390.35425463739
31.559180932569333	12057.94370116485
31.874772741895026	9169.23989044062
32.19352046931398	11387.622969228214
32.51545567400712	11223.856485169978
32.84061023074719	6463.378394669944
33.169016333054664	6948.384048421492
33.500706496385206	7142.782592559256
33.83571356134906	10839.61601842685
34.17407069696255	7233.251458620238
34.51581140393218	5867.397918147023
34.8609695179715	6238.950419962159
35.209579213151216	5613.521582003545
35.56167500528272	4912.404333134347
35.917291755335555	4624.62902843884
36.27646467288891	6058.2686552425985
36.639229319617804	5485.918870590653
37.005621612813975	7174.698593284885
37.37567782894212	4438.517560801716
37.74943460723154	5043.70639904388
38.12692895330385	6529.955967136443
38.5081982428369	5933.301316945102
38.893280225265265	3932.680569786455
39.28221302751791	3297.424767850033
39.6750351577931	4767.9418806945
40.071785509371026	3219.668603093702
40.47250336446474	3227.3511438149003
40.87722839810939	3199.0476884353125
41.28600068209048	4492.060341778945
41.69886068891139	4530.962783873303
42.1158492958005	3857.1050045936663
42.53700778875851	3525.253490096411
42.962377866646094	2651.7396660184427
43.392001645312554	2512.9276533484203
43.825921661765676	2298.338319828205
44.264180878383335	2342.1698157416636
44.70682268716717	2289.4810583498784
45.15389091403884	2402.3443050804185
45.60542982317923	2843.9127995683607
46.06148412141103	2375.130630046464
46.52209896262513	1952.2000187152228
46.98731995225138	1894.0144103749392
47.4571931517739	2569.5793198431347
47.93176508329164	1728.6751910091143
48.411082734124555	2235.143907365132
48.8951935614658	1618.858025746154
49.38414549708046	1456.6511946390103
49.877986952051266	1514.1561534258499
50.37676682157178	1459.72191148821
50.88053448978749	1407.203625273684
51.38933983468537	1356.518569802453
51.903233233032225	1307.6232802652403
52.422265565362544	1260.4468054989854
52.946488221016175	1214.9275582653336
53.47595310322633	1171.0193604705016
54.010712634258596	1128.6621715706583
54.550819760601186	1087.8000752174676
55.0963279582072	1048.3850622806606
55.647291237789275	1010.3658402101793
56.20376415016716	973.6995974673704
56.765801791668835	938.333663572938
57.33345980958552	904.2235680388848
57.906794407681375	871.3299927132337
58.48586235175819	839.6058185446922
59.070720975275776	809.0173024326427
59.661428185028534	779.5162832612697
60.25804246687882	751.0736041500484
60.860622891547614	723.6462429205811
61.46922912046309	697.2012287027552
62.083921411667724	671.7065687584684
62.7047606257844	647.1222522125686
63.331808232042235	623.4263422318953
63.965126314362664	600.5798351858859
64.60477757750628	578.5551649834507
65.25082535328136	557.3247749858069
65.90333360681416	536.8570335546214
66.56236694288232	517.1316016005429
67.22799061231113	498.1166870055846
67.90027051843424	479.78888745987547
68.57927322361859	462.12525365223723
69.26506595585477	445.0993743820233
69.95771661541333	428.69298056844474
70.65729378156746	412.8799763322732
71.36386671938313	397.6413579856505
72.07750538657696	382.95626787215394
72.79828044044274	368.80450231879536
73.52626324484716	355.16887555473227
74.26152587729563	342.02840703108757
75.00414113606858	329.3680995116341
75.75418254742928	317.1691072828407
76.51172437290357	305.4145167269123
77.27684161663261	294.09073091019343
78.04961003279894	283.1790017330828
78.83010613312693	272.66832823999994
79.6184071944582	262.5412606850065
80.41459126640278	252.78502195594757
81.2187371790668	243.38733665776863
82.03092455085748	234.33326027397896
82.85123379636605	225.61261616326425
83.6797461343297	217.21139121871337
84.51654359567301	209.11899596802832
85.36170903162974	201.3249506263161
86.21532612194603	193.81662928384793
87.0774793831655	186.5860303175331
87.94825417699715	179.6209634317375
88.82773671876713	172.9131393878851
89.71601408595481	166.4529241146095
90.61317422681435	160.23048944414543
91.5193059690825	154.23898763487173
92.43449902877332	148.46791800061956
93.35884401906105	142.91107826329707
