#wavelength	surface flux
0.428837	514.8729975401437
0.43312537	994.2924998078464
0.43745662370000005	1153.9820867810383
0.4418311899370001	1338.5491232310628
0.44624950183637	1549.9694110982136
0.4507119968547338	1786.7545818772633
0.45521911682328114	2068.2993762297338
0.4597713079915139	2385.1841845319814
0.4643690210714291	2745.6184975397664
0.4690127112821433	3152.3223832842946
0.47370283839496474	3619.9010389166615
0.47843986677891437	4134.732909334003
0.48322426544670355	4735.560383992474
0.48805650810117057	5426.139359289045
0.4929370731821824	6189.77452441979
0.49786644391400414	7037.5290665822695
0.5028451083531442	7995.859262936923
0.5078735594366757	9026.319257987972
0.5129522950310424	10020.015299846986
0.5180818179813528	11039.299298165659
0.5232626361611664	13128.446813698925
0.5284952625227781	14901.61734116714
0.5337802151480058	16765.35796957129
0.5391180172994858	18867.974815204023
0.5445091974724807	21165.31088293581
0.5499542894472055	23656.003512838426
0.5554538323416777	26339.803976678868
0.5610083706650945	29182.10500082383
0.5666184543717453	31876.745706438352
0.5722846389154628	33999.351756412325
0.5780074853046174	33140.9574479544
0.5837875601576636	20709.52990818507
0.5896254357592402	1397.5551601313484
0.5955216901168326	30339.817340386606
0.6014769070180009	52268.441369912274
0.607491676088181	64942.388457619694
0.6135665928490629	74691.24418501482
0.6197022587775535	84891.59118458544
0.625899281365329	95035.17465889872
0.6321582741789823	105591.23996067229
0.6384798569207721	117233.25156059781
0.6448646554899798	129530.4809245847
0.6513133020448797	142870.6431501981
0.6578264350653285	157078.90879307973
0.6644046994159818	172587.5643216756
0.6710487464101416	181750.25538264684
0.677759233874243	207743.24199059457
0.6845368262129854	227450.78296354326
0.6913821944751153	247711.88387627163
0.6982960164198664	271288.72825710644
0.7052789765840651	295743.89867999125
0.7123317663499058	321906.454182709
0.7194550840134049	348914.7285088399
0.7266496348535388	378319.21039837593
0.7339161312020743	409982.6205583048
0.741255292514095	443268.6723572977
0.748667845439236	475744.31736680574
0.7561545238936284	494515.6221902393
0.7637160691325647	303236.18533654814
0.7713532298238903	248142.07180482964
0.7790667621221293	613113.4229400364
0.7868574297433505	699467.0929250815
0.7947260040407841	670890.3106399061
0.8026732640811919	822282.8158390521
0.8106999967220039	880370.9604055919
0.8188069966892239	948502.385898849
0.8269950666561161	1018000.34741483
0.8352650173226772	1089591.2341554146
0.8436176674959041	1168829.4277427415
0.852053844170863	1250824.676021501
0.8605743826125718	1332862.9989379568
0.8691801264386976	1421237.2547410608
0.8778719277030844	1514941.2253784845
0.8866506469801153	1614654.2166975741
0.8955171534499164	1705695.6896539752
0.9044723249844157	1828465.5371991617
0.9135170482342599	1939985.1989027688
0.9226522187166025	2050412.3597691297
0.9318787409037684	2048946.3295017339
0.941197528312806	2239669.581298073
0.9506095035959342	2339642.790315779
0.9601155986318936	2446897.0576370587
0.9697167546182125	2598568.629998837
0.9794139221643946	2824152.636035331
0.9892080613860387	3003940.850681451
0.9991001419998989	3183189.1468549254
1.0090911434198981	3363925.7634994327
1.019182054854097	3558678.8687624885
1.0293738754026378	3723376.739802665
1.0396676141566643	3937740.394980859
1.050064290298231	4128914.703015513
1.0605649332012133	4335879.719260933
1.0711705825332256	4538088.848313752
1.0818822883585577	4752973.085642615
1.0927011112421434	4923130.944585965
1.1036281223545648	4758625.272738819
1.1146644035781104	4865987.350348952
1.1258110476138916	5190724.740911254
1.1370691580900303	5296903.10525534
1.1484398496709307	5727611.495899206
1.1599242481676402	5555588.829291819
1.1715234906493166	6112122.272145674
1.1832387255558097	6729350.596005771
1.1950711128113678	7098096.026124977
1.2070218239394814	7390133.382635
1.2190920421788762	7713085.53202813
1.2312829626006652	8019919.23467483
1.2435957922266716	8321345.42064371
1.2560317501489384	8611950.460871166
1.2685920676504279	8891704.797259748
1.281277988326932	9171957.753696319
1.2940907682102014	9409838.563408224
1.3070316758923035	9653112.715440392
1.3201019926512265	9957830.528979568
1.3333030125777388	8550387.792954223
1.3466360427035162	6665302.9459209815
1.3601024031305513	5120196.942638797
1.373703427161857	7893617.225034931
1.3874404614334754	5238653.703694581
1.4013148660478103	6248382.614296661
1.4153280147082883	6198415.88090293
1.4294812948553712	7180395.252637636
1.443776107803925	8418663.910206797
1.4582138688819641	10563223.520450339
1.4727960075707838	10852879.276662413
1.4875239676464918	12039528.180245977
1.5023992073229566	12740482.646301683
1.5174231993961862	13396548.567649975
1.532597431390148	14113406.783320574
1.5479234057040496	14659350.107668076
1.5634026397610903	15018880.553092565
1.579036666158701	15290831.866626853
1.594827032820288	15860928.42653782
1.610775303148491	16196801.331492564
1.6268830561799759	16582729.38962743
1.6431518867417756	16958890.676187847
1.6595834056091934	17183016.71295844
1.6761792396652853	17511909.781087004
1.6929410320619382	17625486.66664514
1.7098704423825577	17777627.308613297
1.7269691468063835	17880108.301115837
1.744238838274447	17023114.483075816
1.7616812266571917	17343812.850987766
1.7792980389237634	12500456.63667926
1.7970910193130012	12148933.443043593
1.815061929506131	9037257.770696115
1.8332125488011928	9520033.363889461
1.8515446742892046	10308387.947139375
1.8700601210320964	10514034.334893733
1.8887607222424174	14028483.887333374
1.9076483294648416	9819850.232175365
1.92672481275949	9781398.113228494
1.9459920608870853	11064581.229445042
1.9654519814959561	12000577.961975073
1.9851065013109155	15768880.825387934
2.0049575663240247	16804026.47102326
2.025007141987265	18718467.05576768
2.0452572134071376	20452734.605543807
2.065709785541209	21150076.957282845
2.086366883396621	21492281.593758788
2.107230552230587	21644742.642656744
2.1283028577528933	21979774.568687208
2.1495858863304225	22031222.196205378
2.1710817451937263	22084701.379089665
2.1927925626456637	22068700.14937183
2.2147204882721203	21996122.885948654
2.2368676931548412	21816834.773516703
2.25923637008639	21610169.114538632
2.281828733787254	21204491.064414483
2.3046470211251266	14603517.274590176
2.327693491336378	13524865.72512712
2.3509704262497415	16990812.147628818
2.374480130512239	15708629.131658075
2.3982249318173614	16198546.144599475
2.4222071811355352	16645009.429259425
2.4464292529468903	14790941.608538203
2.4708935454763594	11523679.013849327
2.4956024809311232	8197654.430236426
2.5205585057404343	5420539.223177886
2.5457640907978387	6589013.997444674
2.5712217317058172	3925550.127834387
2.5969339490228753	4503705.362950832
2.622903288513104	6828929.276822713
2.6491323213982354	7687319.037915845
2.6756236446122177	2772655.2440460995
2.7023798810583397	5339849.56915231
2.729403679868923	8168449.731619401
2.7566977166676123	6315771.8142171
2.7842646938342885	5659212.525497593
2.812107340772631	5784559.800961933
2.8402284141803578	7407211.061800171
2.8686306983221614	6052772.34203642
2.897317005305383	7190528.032122695
2.926290175358437	10042913.355985152
2.9555530771120213	10624284.679528078
2.9851086078831415	10445938.188063975
3.014959693961973	12354589.343139255
3.0451092909015927	12243929.517736975
3.0755603838106085	13769233.271518636
3.1063159876487147	14530591.933408592
3.137379147525202	13561107.215299375
3.168752939000454	14068370.141612321
3.200440468390459	12856650.942907043
3.232444873074363	11717092.304591034
3.264769321805107	15202874.189393345
3.297417015023158	14376349.305928392
3.330391185173389	7619312.066130113
3.3636950970251234	14126243.011758296
3.397332047995375	13252533.69954161
3.4313053684753285	13127171.051418275
3.465618422160081	13049460.587797305
3.5002746063816828	13296872.238016691
3.5352773524454997	13637035.355396098
3.570630125969955	13524442.513533186
3.606336427229654	13279635.056962091
3.6423997915019504	12998928.256282398
3.67882378941697	12707080.122519301
3.7156120273111397	12023820.464721471
3.7527681475842516	11690511.0751516
3.7902958290600934	11164683.791296205
3.8281987873506953	10952269.462333234
3.8664807752242023	10354724.374119822
3.905145582976444	10111968.974945452
3.9441970388062084	9958533.163758151
3.983639009194271	10062860.276839895
4.023475399286213	10118390.412495395
4.063710153279075	10077518.116732033
4.1043472548118665	10394847.181850549
4.145390727359985	10518683.641010934
4.186844634633585	10455874.203176241
4.2287130809799205	10238609.085219508
4.27100021178972	9510890.014200348
4.313710213907617	8586416.790325299
4.356847316046694	7502626.716896948
4.40041578920716	5921215.392138361
4.444419947099232	3968726.516866817
4.488864146570225	2709315.6576204225
4.533752788035927	2135573.0181330303
4.579090315916286	2378502.876662112
4.624881219075449	2759141.5118228463
4.671130031266204	3759186.208740272
4.717841331578866	3042519.7306845593
4.765019744894654	2392525.5742248055
4.812669942343601	2901868.2123920717
4.8607966417670365	3798722.501403934
4.9094046081847065	3429150.154595951
4.958498654266554	3704131.0560946604
5.008083640809219	4397292.262829283
5.058164477217312	4667509.495992694
5.108746121989485	5130574.863994049
5.15983358320938	4940280.191732542
5.211431919041474	4226199.031600867
5.263546238231889	4916369.593113742
5.316181700614208	5304612.317180637
5.36934351762035	3911554.6210931544
5.423036952796553	3271275.3301865812
5.4772673223245185	3645755.805750027
5.532039995547764	3709120.922990326
5.587360395503242	3223769.563518854
5.643233999458275	2961295.409062379
5.6996663394528575	2657755.910449777
5.756663002847385	2718224.345316939
5.814229632875859	2718132.70061618
5.872371929204618	2445135.4771887804
5.931095648496664	2468581.507097045
5.990406604981631	3094571.3682057303
6.050310671031448	2483334.5574523504
6.110813777741763	3224773.2901960867
6.17192191551918	2683943.986002311
6.233641134674372	3847074.8083594204
6.295977546021115	3948342.594700345
6.358937321481327	3349279.4689849257
6.42252669469614	1846671.491525566
6.486751961643101	1685957.663320539
6.551619481259532	1840302.749113775
6.617135676072128	1520233.5474108364
6.683307032832849	1975337.6552639646
6.750140103161177	2050714.6493889429
6.81764150419279	1942064.3211004965
6.885817919234718	1813431.280771345
6.954676098427065	1916518.5605004814
7.024222859411336	1584960.2421170934
7.094465088005449	1860074.1938804819
7.165409738885503	1620240.463988938
7.237063836274358	1676068.0960408174
7.309434474637103	1834010.9647113197
7.382528819383473	1669459.5263229941
7.456354107577308	1437142.657462593
7.530917648653081	1858021.6259969668
7.606226825139612	1465197.391275724
7.682289093391009	1568509.444556176
7.759111984324918	1431673.7959417643
7.836703104168168	1695102.9295920858
7.91507013520985	1595181.6961583549
7.994220836561947	1868326.623520776
8.074163044927568	1672730.9614025615
8.154904675376844	1575516.4079977616
8.23645372213061	1706679.6915737877
8.318818259351918	1712394.2873260677
8.402006441945437	1772867.2727221705
8.486026506364892	1673242.28226349
8.57088677142854	1742326.342563285
8.656595639142825	1718108.0724453405
8.743161595534254	1649531.4660316058
8.830593211489598	1660019.917367896
8.918899143604493	1628640.6505911679
9.00808813504054	1564019.2080671582
9.098169016390944	1540078.8514339917
9.189150706554853	1504795.384624865
9.281042213620402	1460473.8672190695
9.373852635756606	1398027.225910474
9.467591162114172	1352434.2855770618
9.562267073735315	1337458.9985521652
9.657889744472667	1284436.1164002237
9.754468641917395	1257130.08592964
9.852013328336568	1172729.5599400816
9.950533461619933	1169174.306454492
10.050038796236134	1129647.67095333
10.150539184198495	1095970.523220065
10.252044576040479	1050346.628640343
10.354565021800884	989425.8188738294
10.458110672018893	963463.0809651247
10.562691778739081	951943.6497929478
10.668318696526473	926707.2961154253
10.775001883491738	894078.2273006809
10.882751902326655	850071.8389812388
10.991579421349924	775343.2183138978
11.101495215563421	809333.129522478
11.212510167719055	781399.0440629345
11.324635269396246	746531.8235755955
11.43788162209021	731195.5176537939
11.552260438311112	680823.44183773
11.667783042694223	653371.7617997364
11.784460873121166	633022.4187521785
11.902305481852377	634367.6293893198
12.0213285366709	612929.7928917169
12.14154182203761	597457.3166374142
12.262957240257986	544751.0844427504
12.385586812660566	497368.88078591553
12.509442680787172	502539.3400423713
12.634537107595044	504976.5987515276
12.760882478670995	483818.8601045287
12.888491303457704	479293.5854873965
13.01737621649228	425720.6439595031
13.147549978657205	425750.11709506175
13.279025478443776	380000.716674282
13.411815733228213	365963.7664305193
13.545933890560496	381228.72114191187
13.681393229466101	361449.64197700133
13.818207161760762	360944.7962309804
13.956389233378369	340109.94304973935
14.095953125712155	339998.4494981221
14.236912656969274	307935.82929693296
14.379281783538968	279825.6429735086
14.523074601374358	268396.8995736447
14.6683053473881	282892.09127549274
14.814988400861985	262642.202755488
14.963138284870602	245024.48425206923
15.11276966771931	254429.4401307987
15.263897364396504	257228.7189083221
15.41653633804047	221699.6053149141
15.570701701420873	196492.50966320458
15.726408718435081	184421.81988866508
15.883672805619431	226622.7596239114
16.042509533675627	191692.37567055554
16.202934629012383	181721.10116111676
16.36496397530251	168884.5925776359
16.528613615055534	168108.06827361407
16.69389975120609	149132.27233411497
16.86083874871815	157183.35778874118
17.02944713620533	155198.46961780614
17.199741607567383	131818.1131332844
17.37173902364306	119959.97174154775
17.54545641387949	134602.53932432513
17.720910978018285	116917.86426761952
17.898120087798468	111762.56054047296
18.077101288676452	114458.00738533323
18.257872301563214	118004.1378833884
18.44045102457885	104166.12054661654
18.62485553482464	94277.2484109263
18.811104090172883	117913.32527467479
18.999215131074614	87475.72682298828
19.189207282385357	90823.17465694417
19.381099355209216	75902.66989444471
19.574910348761303	76207.67569140473
19.77065945224892	82824.41298322965
19.968366046771408	87163.99577597945
20.16804970723912	76442.10688790437
20.369730204311512	67789.59700316253
20.573427506354626	63296.096836972545
20.779161781418175	68317.13934296544
20.98695339923236	56754.291641363714
21.19682293322468	58218.524495140424
21.408791162556927	64528.007307096595
21.622879074182496	50926.98855167084
21.839107864924323	51045.8320112677
22.057498943573567	50185.6093276371
22.278073933009303	50121.92812666911
22.500854672339393	43048.41050158009
22.72586321906279	58544.77898279164
22.953121851253417	39654.33424284191
23.18265306976595	55295.962643871426
23.41447960046361	45593.04690914167
23.648624396468247	35893.35578564215
23.88511064043293	33350.451532527164
24.12396174683726	46191.706782860354
24.365201364305634	42726.20850948446
24.608853377948687	39891.5532408269
24.854941911728176	35255.53482972676
25.103491330845458	27246.70474268228
25.354526244153913	26650.857551032404
25.608071506595454	32710.10613634133
25.864152221661406	33137.0184747945
26.122793743878024	29499.23820036758
26.384021681316803	29979.58428012928
26.64786189812997	21512.28597251089
26.91434051711127	26515.589383714752
27.18348392228238	27151.436903630303
27.455318761505207	30445.59463787712
27.72987194912026	25222.988264677566
28.007170668611465	19284.741229563035
28.28724237529758	17644.56713345098
28.57011479905055	17271.487572272683
28.855815947041062	21691.551263314737
29.144374106511474	17996.46051096906
29.435817847576587	17654.012721914136
29.730176026052348	17720.26634687465
30.027477786312875	17877.025854251882
30.327752564176006	14391.207645942237
30.631030089817763	14715.24932173181
30.93734039071594	13594.31703414473
31.246713794623105	14175.718420809058
31.559180932569333	15734.815012574973
31.874772741895026	13310.722869237305
32.19352046931398	14663.120883149704
32.51545567400712	14926.261491488718
32.84061023074719	10182.066202308297
33.169016333054664	10565.360358023647
33.500706496385206	10653.537612754646
33.83571356134906	13375.408691436962
34.17407069696255	10257.3760278852
34.51581140393218	9159.229536298966
34.8609695179715	8920.815761678921
35.209579213151216	8386.201393092388
35.56167500528272	7759.832418826631
35.917291755335555	7353.45598056764
36.27646467288891	8880.3815510049
36.639229319617804	7832.478577988009
37.005621612813975	8879.371041091765
37.37567782894212	6618.048098586836
37.74943460723154	7197.422610163558
38.12692895330385	8169.727801515578
38.5081982428369	7660.805780362169
38.893280225265265	5913.339503300635
39.28221302751791	5222.622999073243
39.6750351577931	6417.874716668643
40.071785509371026	4949.471049620538
40.47250336446474	4966.281067915917
40.87722839810939	4823.044499733357
41.28600068209048	5730.841084701607
41.69886068891139	5569.031869634411
42.1158492958005	5253.5009425848075
42.53700778875851	4906.920298315396
42.962377866646094	3938.499200711121
43.392001645312554	3754.9268576633667
43.825921661765676	3594.9333345967825
44.264180878383335	3613.7844594461963
44.70682268716717	3474.2220717492814
45.15389091403884	3545.7998781004
45.60542982317923	3764.224261036377
46.06148412141103	3333.853426697689
46.52209896262513	2928.287463213478
46.98731995225138	2816.932136610662
47.4571931517739	3383.0299674478524
47.93176508329164	2682.116257317065
48.411082734124555	3009.333470190339
48.8951935614658	2444.5382062771846
49.38414549708046	2258.2643328576332
49.877986952051266	2301.6376332768837
50.37676682157178	2216.7786049253823
50.88053448978749	2135.007635406702
51.38933983468537	2056.1939809785777
51.903233233032225	1980.247941375289
52.422265565362544	1907.0678111639268
52.946488221016175	1836.5389395513994
53.47595310322633	1768.5926162330086
54.010712634258596	1703.111810833426
54.550819760601186	1640.0283162529554
55.0963279582072	1579.2440231251048
55.647291237789275	1520.6752352893925
56.20376415016716	1464.2544394249762
56.765801791668835	1409.8940029507107
57.33345980958552	1357.5231934906521
57.906794407681375	1307.0728179264029
58.48586235175819	1258.4696821683108
59.070720975275776	1211.6562052777447
59.661428185028534	1166.5529154358003
60.25804246687882	1123.1122852367375
60.860622891547614	1081.2636055538471
61.46922912046309	1040.9574801151603
62.083921411667724	1002.1335453855584
62.7047606257844	964.7351490219376
63.331808232042235	928.7259288882167
63.965126314362664	894.0371200025895
64.60477757750628	860.6281376871352
65.25082535328136	828.4564236138895
65.90333360681416	797.4670103877836
66.56236694288232	767.6319597507382
67.22799061231113	738.8960900388613
67.90027051843424	711.2214557748039
68.57927322361859	684.5744550729139
69.26506595585477	658.9122277060493
69.95771661541333	634.2036480242499
70.65729378156746	610.4086881581062
71.36386671938313	587.4995706948296
72.07750538657696	565.4414895584654
72.79828044044274	544.2016163815077
73.52626324484716	523.7537952336384
74.26152587729563	504.06431581412926
75.00414113606858	485.10910817270775
75.75418254742928	466.8582294645386
76.51172437290357	449.2856858828967
77.27684161663261	432.36976411411456
78.04961003279894	416.0820602134009
78.83010613312693	400.404584088828
79.6184071944582	385.3110547125464
80.41459126640278	370.78110884532447
81.2187371790668	356.7956581801214
82.03092455085748	343.33163133805266
82.85123379636605	330.3729605496845
83.6797461343297	317.8979188178592
84.51654359567301	305.8894698401637
85.36170903162974	294.33149401898214
86.21532612194603	283.2045808416335
87.0774793831655	272.49599582705446
87.94825417699715	262.1876991397447
88.82773671876713	252.2666350375476
89.71601408595481	242.71809880301032
90.61317422681435	233.52724009469168
91.5193059690825	224.6835121399313
92.43449902877332	216.17055814250202
