#wavelength	surface flux
0.428837	1288.503046975329
0.43312537	2473.4161741035705
0.43745662370000005	2854.6081131082465
0.4418311899370001	3288.743374007444
0.44624950183637	3780.848631334839
0.4507119968547338	4334.237925155676
0.45521911682328114	4983.868145943686
0.4597713079915139	5708.823349585443
0.4643690210714291	6536.524017916425
0.4690127112821433	7458.436903631106
0.47370283839496474	8510.186860363308
0.47843986677891437	9666.890912420726
0.48322426544670355	11016.85919903945
0.48805650810117057	12538.203578396697
0.4929370731821824	14213.504671020757
0.49786644391400414	16052.718792302063
0.5028451083531442	18177.4261982234
0.5078735594366757	20415.028157315883
0.5129522950310424	22611.13144590418
0.5180818179813528	24480.376682938444
0.5232626361611664	29111.43715600663
0.5284952625227781	32943.23180652609
0.5337802151480058	36848.983982908634
0.5391180172994858	41365.55068226127
0.5445091974724807	46271.59170691503
0.5499542894472055	51622.45169044268
0.5554538323416777	57539.170722263334
0.5610083706650945	64025.62402669166
0.5666184543717453	70927.81975538557
0.5722846389154628	78298.76780297104
0.5780074853046174	84553.2872471926
0.5837875601576636	79901.8099199408
0.5896254357592402	15321.599063317184
0.5955216901168326	103625.32780077269
0.6014769070180009	127763.89538167763
0.607491676088181	143961.27395512036
0.6135665928490629	158609.98572599745
0.6197022587775535	175682.20032226792
0.625899281365329	194031.44179072106
0.6321582741789823	213009.29680586266
0.6384798569207721	234904.92534405686
0.6448646554899798	257760.31924086227
0.6513133020448797	282259.1098445881
0.6578264350653285	308125.24006222305
0.6644046994159818	336295.7448148464
0.6710487464101416	361166.9403140644
0.677759233874243	400456.6214967624
0.6845368262129854	436053.1930768632
0.6913821944751153	471959.32818232616
0.6982960164198664	515173.6096106818
0.7052789765840651	558870.6463574914
0.7123317663499058	605552.0850538777
0.7194550840134049	654854.0776724314
0.7266496348535388	707815.994939245
0.7339161312020743	764468.2204881584
0.741255292514095	824666.9340234667
0.748667845439236	887775.5658940229
0.7561545238936284	949147.9055371679
0.7637160691325647	810200.20700532
0.7713532298238903	675062.0033076688
0.7790667621221293	1174675.8555111503
0.7868574297433505	1273801.8063804952
0.7947260040407841	1315971.0812176445
0.8026732640811919	1465270.6563709746
0.8106999967220039	1564846.7472525083
0.8188069966892239	1673877.454319815
0.8269950666561161	1787153.510644282
0.8352650173226772	1905450.9811004577
0.8436176674959041	2031518.3940226291
0.852053844170863	2163271.2102824175
0.8605743826125718	2297471.161035223
0.8691801264386976	2440209.0957808676
0.8778719277030844	2590905.0703708753
0.8866506469801153	2748756.3227344924
0.8955171534499164	2907277.046305614
0.9044723249844157	3085580.5884046485
0.9135170482342599	3262789.885640263
0.9226522187166025	3443909.023278964
0.9318787409037684	3570656.893008644
0.941197528312806	3803955.0921404078
0.9506095035959342	3995188.280564737
0.9601155986318936	4192231.819664989
0.9697167546182125	4415973.755732217
0.9794139221643946	4687113.11739773
0.9892080613860387	4932713.573622555
0.9991001419998989	5188446.46355357
1.0090911434198981	5447902.259753566
1.019182054854097	5723198.910179666
1.0293738754026378	5985700.14466977
1.0396676141566643	6277721.896577678
1.050064290298231	6563085.014167614
1.0605649332012133	6859354.405691564
1.0711705825332256	7159191.299307752
1.0818822883585577	7468826.366090268
1.0927011112421434	7757893.031467733
1.1036281223545648	7878883.151040149
1.1146644035781104	8156245.165018552
1.1258110476138916	8547391.011185566
1.1370691580900303	8807215.869126877
1.1484398496709307	9259412.372611057
1.1599242481676402	9403452.211626947
1.1715234906493166	9900555.905824432
1.1832387255558097	10450419.329968968
1.1950711128113678	10875398.801239535
1.2070218239394814	11264158.044384476
1.2190920421788762	11672370.462856695
1.2312829626006652	12073751.454106996
1.2435957922266716	12474049.472405229
1.2560317501489384	12871068.97508758
1.2685920676504279	13264556.53449267
1.281277988326932	13658530.636729911
1.2940907682102014	14036648.305070426
1.3070316758923035	14416533.37243208
1.3201019926512265	14820517.51254001
1.3333030125777388	14213523.28618134
1.3466360427035162	13232550.461281572
1.3601024031305513	12183283.7100372
1.373703427161857	14635215.263282843
1.3874404614334754	12815656.60165802
1.4013148660478103	13651010.353007158
1.4153280147082883	13700244.341064187
1.4294812948553712	14714598.414264916
1.443776107803925	15865787.856519338
1.4582138688819641	17488403.206426628
1.4727960075707838	17917406.748742536
1.4875239676464918	18787981.555053685
1.5023992073229566	19437989.405813757
1.5174231993961862	19992387.525854673
1.532597431390148	20589932.89075565
1.5479234057040496	21116845.39108783
1.5634026397610903	21539618.217745055
1.579036666158701	21914576.211229485
1.594827032820288	22391850.39039505
1.610775303148491	22776288.36964153
1.6268830561799759	23173296.83057395
1.6431518867417756	23545208.817052722
1.6595834056091934	23855987.761467904
1.6761792396652853	24212852.86358403
1.6929410320619382	24469269.569343798
1.7098704423825577	24717479.44774831
1.7269691468063835	24915453.791887015
1.744238838274447	24641473.958845384
1.7616812266571917	24942260.770185106
1.7792980389237634	22230981.204678476
1.7970910193130012	21669233.95627317
1.815061929506131	19541522.599127438
1.8332125488011928	20504622.54678718
1.8515446742892046	20671967.196083926
1.8700601210320964	21467326.73598937
1.8887607222424174	23848134.66513942
1.9076483294648416	21226892.939804673
1.92672481275949	21185180.08422499
1.9459920608870853	21743068.84685918
1.9654519814959561	22550003.010433424
1.9851065013109155	25096787.125556126
2.0049575663240247	25689073.18175721
2.025007141987265	26892798.277160656
2.0452572134071376	27898823.736849748
2.065709785541209	28312062.270215582
2.086366883396621	28519432.695418216
2.107230552230587	28630522.619423945
2.1283028577528933	28807942.045429572
2.1495858863304225	28855633.427591782
2.1710817451937263	28888304.24083578
2.1927925626456637	28916350.956226874
2.2147204882721203	28901994.965362698
2.2368676931548412	28871693.799696818
2.25923637008639	28775328.129611373
2.281828733787254	28584383.198428564
2.3046470211251266	24773359.572932027
2.327693491336378	24516560.078906015
2.3509704262497415	26496069.62116963
2.374480130512239	25779458.744535923
2.3982249318173614	25716072.917111658
2.4222071811355352	25618241.000419956
2.4464292529468903	23946000.6436734
2.4708935454763594	20855616.85582397
2.4956024809311232	17564931.331580885
2.5205585057404343	14029519.143797163
2.5457640907978387	15236847.766733713
2.5712217317058172	11346343.609219888
2.5969339490228753	13273266.45551374
2.622903288513104	16310509.75689792
2.6491323213982354	17332166.974179666
2.6756236446122177	9662698.716606004
2.7023798810583397	13382056.669821555
2.729403679868923	16703810.401873725
2.7566977166676123	14840113.435348697
2.7842646938342885	13845604.025313832
2.812107340772631	13893847.87291949
2.8402284141803578	15051767.34702062
2.8686306983221614	13844569.753051385
2.897317005305383	15339621.505800854
2.926290175358437	17657937.790250205
2.9555530771120213	18254111.32148556
2.9851086078831415	17924568.672242664
3.014959693961973	19694275.642649166
3.0451092909015927	19544353.58330553
3.0755603838106085	20624471.46405569
3.1063159876487147	21324066.43982875
3.137379147525202	20910630.84190557
3.168752939000454	21501876.835123554
3.200440468390459	20734991.45612686
3.232444873074363	20873588.23965712
3.264769321805107	20890639.57610927
3.297417015023158	20280591.235168766
3.330391185173389	19656171.396669123
3.3636950970251234	19748497.512760274
3.397332047995375	19291760.35444112
3.4313053684753285	18770384.15447906
3.465618422160081	17376424.189186733
3.5002746063816828	16474690.156481395
3.5352773524454997	15837889.4973864
3.570630125969955	15296312.820949499
3.606336427229654	14549369.24672731
3.6423997915019504	14009171.123833558
3.67882378941697	13612727.179369973
3.7156120273111397	12656976.153583912
3.7527681475842516	12282475.501684926
3.7902958290600934	11583647.91373739
3.8281987873506953	11369695.480284078
3.8664807752242023	10623745.442428302
3.905145582976444	10340181.044661002
3.9441970388062084	10177155.8044392
3.983639009194271	10363350.38971612
4.023475399286213	10474120.103124088
4.063710153279075	10522492.220337411
4.1043472548118665	10956543.100062445
4.145390727359985	11245823.156582495
4.186844634633585	11387505.491263812
4.2287130809799205	11584470.212730773
4.27100021178972	11582322.163210142
4.313710213907617	11168512.18214836
4.356847316046694	10348996.238531778
4.40041578920716	8778952.699010635
4.444419947099232	6587236.948194868
4.488864146570225	4978183.54842163
4.533752788035927	4225129.447118788
4.579090315916286	4537163.612709583
4.624881219075449	5095565.386813708
4.671130031266204	6473184.156315954
4.717841331578866	5335894.755713861
4.765019744894654	4472589.188292225
4.812669942343601	5037003.290117817
4.8607966417670365	5885529.857828876
4.9094046081847065	5557885.2552195825
4.958498654266554	5909582.6786429705
5.008083640809219	6590233.355157684
5.058164477217312	6660258.634599064
5.108746121989485	7073319.352253538
5.15983358320938	7018085.460378044
5.211431919041474	6554134.216993131
5.263546238231889	6942544.552818006
5.316181700614208	7062293.716436245
5.36934351762035	6021342.991247384
5.423036952796553	5432955.120971918
5.4772673223245185	5789187.411515575
5.532039995547764	5734823.210477579
5.587360395503242	5381290.148631134
5.643233999458275	5105516.004760761
5.6996663394528575	4675852.697368433
5.756663002847385	4704060.501922199
5.814229632875859	4599704.597290428
5.872371929204618	4348999.507353317
5.931095648496664	4277618.4976288825
5.990406604981631	4884279.528997737
6.050310671031448	4216238.761312513
6.110813777741763	4716793.610054022
6.17192191551918	4359220.61359766
6.233641134674372	4937095.195919287
6.295977546021115	4896639.4449064955
6.358937321481327	4568970.928181297
6.42252669469614	3279756.521425976
6.486751961643101	3012722.437493174
6.551619481259532	3157288.258041945
6.617135676072128	2656903.226218065
6.683307032832849	3177638.075345646
6.750140103161177	3176773.4696475943
6.81764150419279	3002940.391052765
6.885817919234718	2956850.8220897284
6.954676098427065	2920710.432998427
7.024222859411336	2621226.3535135686
7.094465088005449	2847113.7056605923
7.165409738885503	2663866.421240473
7.237063836274358	2661292.854826236
7.309434474637103	2817448.881009938
7.382528819383473	2676846.602116597
7.456354107577308	2324160.396263753
7.530917648653081	2682759.892240673
7.606226825139612	2240934.668613843
7.682289093391009	2621984.5075896815
7.759111984324918	2243404.693493625
7.836703104168168	2415468.8561499934
7.91507013520985	2301459.0885536936
7.994220836561947	2395084.3495444474
8.074163044927568	2271889.4633445735
8.154904675376844	2157801.8921288582
8.23645372213061	2205230.8640464023
8.318818259351918	2150649.1887710993
8.402006441945437	2154051.7646418926
8.486026506364892	2063875.9772692374
8.57088677142854	2063832.9720868364
8.656595639142825	2013372.9772168496
8.743161595534254	1940930.0269371353
8.830593211489598	1909786.6216532649
8.918899143604493	1861608.613019972
9.00808813504054	1796798.3703413538
9.098169016390944	1747702.785589732
9.189150706554853	1697282.7051516222
9.281042213620402	1642888.4808329265
9.373852635756606	1584081.064035903
9.467591162114172	1528854.56416089
9.562267073735315	1488923.6102465102
9.657889744472667	1436663.9820263502
9.754468641917395	1391317.3338112317
9.852013328336568	1330644.3006743349
9.950533461619933	1295668.498165688
10.050038796236134	1252317.3233217122
10.150539184198495	1210447.0565095393
10.252044576040479	1168201.134757298
10.354565021800884	1120911.3623003624
10.458110672018893	1086299.735155235
10.562691778739081	1055728.7452600482
10.668318696526473	1021984.9865998961
10.775001883491738	987548.246917242
10.882751902326655	952040.6330294491
10.991579421349924	905589.4888743277
11.101495215563421	892831.0919705945
11.212510167719055	862714.1628459805
11.324635269396246	832374.3005298905
11.43788162209021	806953.2739348657
11.552260438311112	772998.5260337564
11.667783042694223	746655.284710783
11.784460873121166	721665.5271336122
11.902305481852377	706072.2495932308
12.0213285366709	681336.637764122
12.14154182203761	659621.0277202254
12.262957240257986	627296.8226148628
12.385586812660566	594060.7711626048
12.509442680787172	585760.6239991988
12.634537107595044	571278.4015106491
12.760882478670995	550209.3996432731
12.888491303457704	537436.2950239241
13.01737621649228	500086.85580277763
13.147549978657205	490858.0256495992
13.279025478443776	460322.7859423664
13.411815733228213	444756.5564033677
13.545933890560496	440012.81884035404
13.681393229466101	423533.6212808149
13.818207161760762	412467.444973656
13.956389233378369	395442.65742134367
14.095953125712155	388124.9060639827
14.236912656969274	361512.2711780814
14.379281783538968	342094.83729957417
14.523074601374358	330871.51220743265
14.6683053473881	328405.6175190107
14.814988400861985	309903.78483789676
14.963138284870602	294645.7880764145
15.11276966771931	294999.97768176754
15.263897364396504	293253.84142478387
15.41653633804047	263996.13255797204
15.570701701420873	244039.45521181973
15.726408718435081	231622.9362892373
15.883672805619431	255472.71742040195
16.042509533675627	229275.38201444232
16.202934629012383	218602.02901055268
16.36496397530251	205549.6991925944
16.528613615055534	204306.30870195528
16.69389975120609	185409.60271701368
16.86083874871815	194674.78086153817
17.02944713620533	185420.46836664458
17.199741607567383	166725.63721018034
17.37173902364306	152005.97082152302
17.54545641387949	166314.71864599065
17.720910978018285	145927.7952502369
17.898120087798468	140701.53096521614
18.077101288676452	140673.82769594702
18.257872301563214	145831.98617693124
18.44045102457885	128647.22835243678
18.62485553482464	119399.69721237532
18.811104090172883	134666.7153314349
18.999215131074614	110915.49743855944
19.189207282385357	114571.1554392704
19.381099355209216	98642.1693468077
19.574910348761303	97492.73498038252
19.77065945224892	103792.45995274752
19.968366046771408	102726.73958643436
20.16804970723912	93761.12575143311
20.369730204311512	85954.73241788478
20.573427506354626	80559.75794128516
20.779161781418175	84933.04948539296
20.98695339923236	72935.92902590895
21.19682293322468	74739.24918772432
21.408791162556927	76882.06742266649
21.622879074182496	65207.1290103429
21.839107864924323	66599.26857270388
22.057498943573567	65101.462223080875
22.278073933009303	62737.43577342961
22.500854672339393	55678.86747976663
22.72586321906279	66997.4876726529
22.953121851253417	51112.04628307592
23.18265306976595	63213.22217370613
23.41447960046361	55030.77527990153
23.648624396468247	46697.43366621852
23.88511064043293	43535.98057825811
24.12396174683726	53529.59856075574
24.365201364305634	50238.6675318396
24.608853377948687	47263.23859140071
24.854941911728176	43264.39602677725
25.103491330845458	35696.9577976372
25.354526244153913	34682.694594197565
25.608071506595454	39244.92199378233
25.864152221661406	40014.94275358805
26.122793743878024	36711.401891603295
26.384021681316803	36156.10642310481
26.64786189812997	28057.13413736201
26.91434051711127	32832.74838782879
27.18348392228238	32772.337509937555
27.455318761505207	34021.104921790335
27.72987194912026	30118.922104317106
28.007170668611465	24853.251121773385
28.28724237529758	22974.25193358885
28.57011479905055	22372.140390701086
28.855815947041062	26564.577050133834
29.144374106511474	23267.32011661286
29.435817847576587	21969.072528382036
29.730176026052348	22611.153737403674
30.027477786312875	21965.9803933447
30.327752564176006	18427.46826344817
30.631030089817763	18629.467437476847
30.93734039071594	17386.027450808528
31.246713794623105	17514.262582201955
31.559180932569333	18858.866289840553
31.874772741895026	16856.746987352297
32.19352046931398	17585.865242996842
32.51545567400712	17474.099689788625
32.84061023074719	13098.227374034703
33.169016333054664	13473.931768297976
33.500706496385206	13625.739941667214
33.83571356134906	15310.378916854002
34.17407069696255	13034.940304566913
34.51581140393218	11841.007628107262
34.8609695179715	11207.164880851067
35.209579213151216	10671.264026342715
35.56167500528272	10033.431841934707
35.917291755335555	9497.614322025498
36.27646467288891	11007.154302753168
36.639229319617804	9839.95532967109
37.005621612813975	10336.669732557797
37.37567782894212	8379.994375049173
37.74943460723154	8976.184025875078
38.12692895330385	9484.58218904439
38.5081982428369	9063.26576926549
38.893280225265265	7575.063776257843
39.28221302751791	6724.35769406997
39.6750351577931	7710.833243909208
40.071785509371026	6303.059141233035
40.47250336446474	6347.210863188673
40.87722839810939	6135.139726814731
41.28600068209048	6823.713402836863
41.69886068891139	6627.862517240453
42.1158492958005	6313.0683595300125
42.53700778875851	6021.6963687975585
42.962377866646094	4976.868592094113
43.392001645312554	4751.800144670422
43.825921661765676	4624.864831908426
44.264180878383335	4647.755668513098
44.70682268716717	4429.027936649497
45.15389091403884	4450.9477860640145
45.60542982317923	4544.859864444999
46.06148412141103	4139.56925062244
46.52209896262513	3712.3261826512176
46.98731995225138	3557.6907106231793
47.4571931517739	4014.9799844587615
47.93176508329164	3462.0935926179045
48.411082734124555	3638.6037833951823
48.8951935614658	3100.898060892924
49.38414549708046	2886.4205497848975
49.877986952051266	2927.117251565696
50.37676682157178	2817.9678713306757
50.88053448978749	2712.8501947025343
51.38933983468537	2611.594561932606
51.903233233032225	2514.0809486043654
52.422265565362544	2420.158725589991
52.946488221016175	2329.693133713813
53.47595310322633	2242.590168296079
54.010712634258596	2158.6896183449608
54.550819760601186	2077.8994311933902
55.0963279582072	2000.0947699046058
55.647291237789275	1925.1652702732613
56.20376415016716	1853.0217288139756
56.765801791668835	1783.5418176978285
57.33345980958552	1716.6447708639769
57.906794407681375	1652.2310692384472
58.48586235175819	1590.2024261834229
59.070720975275776	1530.4851234983971
59.661428185028534	1472.9807980816583
60.25804246687882	1417.6176907878325
60.860622891547614	1364.3089179658682
61.46922912046309	1312.9881857416144
62.083921411667724	1263.5770566948725
62.7047606257844	1216.0040959640246
63.331808232042235	1170.212699231414
63.965126314362664	1126.1275429154641
64.60477757750628	1083.6841964405617
65.25082535328136	1042.8280831578768
65.90333360681416	1003.493457565082
66.56236694288232	965.6357995348857
67.22799061231113	929.1858457986673
67.90027051843424	894.0979266748864
68.57927322361859	860.3234073200343
69.26506595585477	827.8111284794877
69.95771661541333	796.5181381340132
70.65729378156746	766.397901324407
71.36386671938313	737.4078924872176
72.07750538657696	709.5083827246369
72.79828044044274	682.6568852706141
73.52626324484716	656.8167731351838
74.26152587729563	631.9434437754778
75.00414113606858	608.0054040628058
75.75418254742928	584.9627479602281
76.51172437290357	562.7807132266247
77.27684161663261	541.4355599847225
78.04961003279894	520.8881933086271
78.83010613312693	501.11779952546397
79.6184071944582	482.09233516051745
80.41459126640278	463.78499868638426
81.2187371790668	446.1701212197328
82.03092455085748	429.21961181097413
82.85123379636605	412.9114403298422
83.6797461343297	397.21747632868795
84.51654359567301	382.11473730064756
85.36170903162974	367.5816731686213
86.21532612194603	353.5935816675533
87.0774793831655	340.13378053077037
87.94825417699715	327.18050846691574
88.82773671876713	314.71753397915285
89.71601408595481	302.72737213350416
90.61317422681435	291.1911857611105
91.5193059690825	280.09534565458
92.43449902877332	269.41814079500756
