#wavelength	surface flux
0.428837	2.3057877580853674
0.43312537	4.627081871547667
0.43745662370000005	5.615679034121122
0.4418311899370001	6.803097916420544
0.44624950183637	8.226556451957522
0.4507119968547338	9.928041146894842
0.45521911682328114	11.962344807852562
0.4597713079915139	14.386281788541222
0.4643690210714291	17.26949471331695
0.4690127112821433	20.693550889784085
0.47370283839496474	24.752253202888934
0.47843986677891437	29.55479076503372
0.48322426544670355	35.22606319014474
0.48805650810117057	41.915736353468
0.4929370731821824	49.785267321443875
0.49786644391400414	59.030842482269435
0.5028451083531442	69.87114616563734
0.5078735594366757	82.55116566357898
0.5129522950310424	97.35018882764601
0.5180818179813528	114.53767379137054
0.5232626361611664	134.80629112082158
0.5284952625227781	158.2196398860371
0.5337802151480058	185.3396024853831
0.5391180172994858	216.73435149500534
0.5445091974724807	252.9542818880608
0.5499542894472055	294.6451363456611
0.5554538323416777	342.41764171986847
0.5610083706650945	396.74187428662447
0.5666184543717453	457.53357275202023
0.5722846389154628	522.7146659254917
0.5780074853046174	579.397378746946
0.5837875601576636	522.8643208257972
0.5896254357592402	74.84065874191823
0.5955216901168326	754.2927441318103
0.6014769070180009	1031.5994815102347
0.607491676088181	1227.6600741353177
0.6135665928490629	1425.7976863963295
0.6197022587775535	1642.5459247147
0.625899281365329	1884.1234944197834
0.6321582741789823	2155.0497738264125
0.6384798569207721	2459.9175155112243
0.6448646554899798	2801.9439093687693
0.6513133020448797	3187.170487082287
0.6578264350653285	3618.491815352038
0.6644046994159818	4103.539698952015
0.6710487464101416	4629.80304368021
0.677759233874243	5252.654512259189
0.6845368262129854	5929.676993604912
0.6913821944751153	6677.629903365221
0.6982960164198664	7521.6230269143625
0.7052789765840651	8455.376823519171
0.7123317663499058	9491.362790622974
0.7194550840134049	10623.347479895561
0.7266496348535388	11877.864620801043
0.7339161312020743	13284.34211206386
0.741255292514095	14833.558106911136
0.748667845439236	16515.16152642016
0.7561545238936284	18214.894740068536
0.7637160691325647	15362.181095861852
0.7713532298238903	13245.551407923027
0.7790667621221293	24896.40852850713
0.7868574297433505	27972.917623637477
0.7947260040407841	29741.581915714494
0.8026732640811919	34346.526924903395
0.8106999967220039	37845.331650193235
0.8188069966892239	41810.85600327897
0.8269950666561161	46049.21368554738
0.8352650173226772	50622.139789174165
0.8436176674959041	55711.730895077395
0.852053844170863	61191.782410294785
0.8605743826125718	67099.74828220205
0.8691801264386976	73469.84943496413
0.8778719277030844	80296.77350728521
0.8866506469801153	87603.86093950541
0.8955171534499164	95184.95041945225
0.9044723249844157	104265.4488289014
0.9135170482342599	113471.08717840009
0.9226522187166025	123247.9984216785
0.9318787409037684	129395.384682347
0.941197528312806	143038.70375511752
0.9506095035959342	153705.0284649606
0.9601155986318936	165842.9773868632
0.9697167546182125	180617.52611678198
0.9794139221643946	197861.51834209723
0.9892080613860387	214691.32612646034
0.9991001419998989	232323.78557784762
1.0090911434198981	250577.90706297528
1.019182054854097	270000.40779476706
1.0293738754026378	289539.79863859277
1.0396676141566643	311852.7908724768
1.050064290298231	334425.20034641435
1.0605649332012133	358605.45156140026
1.0711705825332256	383774.7323127288
1.0818822883585577	410558.9222121362
1.0927011112421434	437504.27180951595
1.1036281223545648	450711.9328668921
1.1146644035781104	470226.0047031469
1.1258110476138916	504461.80865579617
1.1370691580900303	532494.0360964858
1.1484398496709307	577529.0340026119
1.1599242481676402	586676.5779295089
1.1715234906493166	653289.4767162127
1.1832387255558097	713562.6265805692
1.1950711128113678	761181.9414087498
1.2070218239394814	807050.97479568
1.2190920421788762	854938.1490301312
1.2312829626006652	904356.4765299435
1.2435957922266716	955355.3158362049
1.2560317501489384	1007972.9039395904
1.2685920676504279	1061555.3448299966
1.281277988326932	1116954.7331218931
1.2940907682102014	1171251.3106667425
1.3070316758923035	1227056.1739048236
1.3201019926512265	1289734.4654180557
1.3333030125777388	1250624.6319569808
1.3466360427035162	1097027.0288158816
1.3601024031305513	828155.239444777
1.373703427161857	1243360.9264367963
1.3874404614334754	899127.2618368628
1.4013148660478103	1082195.5089766697
1.4153280147082883	1121462.7749415569
1.4294812948553712	1297560.910765195
1.443776107803925	1538215.747143358
1.4582138688819641	1851654.639273109
1.4727960075707838	1908242.3248644925
1.4875239676464918	2091303.1475807633
1.5023992073229566	2193482.2005377333
1.5174231993961862	2316610.3357309634
1.532597431390148	2435692.095319175
1.5479234057040496	2538450.570089398
1.5634026397610903	2630419.149834477
1.579036666158701	2701093.2353185616
1.594827032820288	2828591.5242031193
1.610775303148491	2915420.7753000823
1.6268830561799759	2973747.494589696
1.6431518867417756	3109294.469809938
1.6595834056091934	3190556.5386128253
1.6761792396652853	3271422.5436815545
1.6929410320619382	3313153.692216044
1.7098704423825577	3414795.411924341
1.7269691468063835	3560184.723861707
1.744238838274447	3597222.08191077
1.7616812266571917	3693561.0047487523
1.7792980389237634	3113580.9954121616
1.7970910193130012	2975668.5046561426
1.815061929506131	2230371.858892345
1.8332125488011928	2344844.583723686
1.8515446742892046	2655160.112693827
1.8700601210320964	2713965.4962977157
1.8887607222424174	3649575.493815459
1.9076483294648416	2397245.304046267
1.92672481275949	2641393.531316778
1.9459920608870853	3236530.4583034264
1.9654519814959561	3618130.6424974794
1.9851065013109155	4511496.268424056
2.0049575663240247	4765649.750454736
2.025007141987265	5096231.163034731
2.0452572134071376	5336802.601252399
2.065709785541209	5467042.038672883
2.086366883396621	5570089.910318536
2.107230552230587	5651922.40384431
2.1283028577528933	5728750.848031799
2.1495858863304225	5753586.873906478
2.1710817451937263	5819700.076364679
2.1927925626456637	5668348.047290457
2.2147204882721203	5509318.564979186
2.2368676931548412	5123893.47482002
2.25923637008639	5132212.999671972
2.281828733787254	5032737.315436157
2.3046470211251266	4830748.845537865
2.327693491336378	4157702.271211413
2.3509704262497415	4437240.581645254
2.374480130512239	4032013.893347512
2.3982249318173614	4779885.659792012
2.4222071811355352	5374780.853600608
2.4464292529468903	5249910.66615474
2.4708935454763594	4364061.825523141
2.4956024809311232	3190851.259390915
2.5205585057404343	1895723.8432150346
2.5457640907978387	2396984.019498219
2.5712217317058172	1218052.7803049367
2.5969339490228753	1356239.7624407155
2.622903288513104	2426347.0426091407
2.6491323213982354	2686038.2308265264
2.6756236446122177	755166.2537471399
2.7023798810583397	2020260.6013697416
2.729403679868923	3384994.019408978
2.7566977166676123	2211574.504140009
2.7842646938342885	2021059.1031904847
2.812107340772631	2164048.3736901293
2.8402284141803578	3005774.481050432
2.8686306983221614	2517614.8195095225
2.897317005305383	3087485.12496119
2.926290175358437	4503887.491334744
2.9555530771120213	4967169.230577847
2.9851086078831415	4961681.614879639
3.014959693961973	5630970.866840106
3.0451092909015927	5484928.053795872
3.0755603838106085	5589470.015236907
3.1063159876487147	4729693.214090049
3.137379147525202	3736209.3206025674
3.168752939000454	2983737.5329464665
3.200440468390459	2605467.9164411845
3.232444873074363	1958644.5098505893
3.264769321805107	4377019.495206852
3.297417015023158	4452065.689105604
3.330391185173389	1025873.8995292834
3.3636950970251234	3565628.9476958043
3.397332047995375	3101009.737869281
3.4313053684753285	2602371.866769047
3.465618422160081	2717342.2735662083
3.5002746063816828	3410372.332065496
3.5352773524454997	4280578.231015199
3.570630125969955	4825058.5972867645
3.606336427229654	5328544.457230003
3.6423997915019504	5507206.943878246
3.67882378941697	5481194.07080499
3.7156120273111397	5203803.877131318
3.7527681475842516	5063126.143767528
3.7902958290600934	4890341.404219798
3.8281987873506953	4768266.506695341
3.8664807752242023	4579830.119509383
3.905145582976444	4457535.438787198
3.9441970388062084	4375846.923259817
3.983639009194271	4366828.074773519
4.023475399286213	4372172.991063126
4.063710153279075	4346285.766115827
4.1043472548118665	4540341.586570145
4.145390727359985	4685961.284451864
4.186844634633585	4764002.044235643
4.2287130809799205	4887400.876065901
4.27100021178972	4951128.128051609
4.313710213907617	4887640.203655976
4.356847316046694	4720260.591041631
4.40041578920716	4353656.624364939
4.444419947099232	3660816.220446231
4.488864146570225	3064119.837139084
4.533752788035927	2707323.8644942082
4.579090315916286	2820691.9946286
4.624881219075449	3002894.5415436123
4.671130031266204	3436199.2615347095
4.717841331578866	2979777.121611727
4.765019744894654	2731731.798501934
4.812669942343601	2937647.950033356
4.8607966417670365	3164777.6569453003
4.9094046081847065	3095120.7959967717
4.958498654266554	2864472.4835027973
5.008083640809219	3127497.1076133186
5.058164477217312	3384100.3206041446
5.108746121989485	3236776.260205045
5.15983358320938	3044510.8177560284
5.211431919041474	2411225.641408685
5.263546238231889	2932177.37104314
5.316181700614208	3155503.0570991198
5.36934351762035	2243075.058831375
5.423036952796553	1819395.6969897852
5.4772673223245185	2029683.0288415593
5.532039995547764	2125717.5741921617
5.587360395503242	1765252.9606376486
5.643233999458275	1566553.9144708223
5.6996663394528575	1426725.6775907963
5.756663002847385	1435899.446365651
5.814229632875859	1480741.1258457147
5.872371929204618	1270533.1172239666
5.931095648496664	1333404.2987329566
5.990406604981631	1724931.4625650938
6.050310671031448	1372307.6366160007
6.110813777741763	1778956.1731862882
6.17192191551918	1496071.4931552848
6.233641134674372	2298407.2121682833
6.295977546021115	2354083.9394979943
6.358937321481327	1910166.061617171
6.42252669469614	956599.4279795864
6.486751961643101	886538.0897958896
6.551619481259532	1013992.3910669559
6.617135676072128	837004.5156284003
6.683307032832849	1175196.7468436859
6.750140103161177	1270269.841646054
6.81764150419279	1224038.1613578107
6.885817919234718	1061685.771709091
6.954676098427065	1180406.0767196133
7.024222859411336	921834.2289958218
7.094465088005449	1146260.9843250674
7.165409738885503	920934.4678947468
7.237063836274358	928922.1483655387
7.309434474637103	858608.0228578564
7.382528819383473	801036.2465350047
7.456354107577308	745297.2297169438
7.530917648653081	956925.7931953219
7.606226825139612	897442.054873307
7.682289093391009	628265.4956378768
7.759111984324918	760809.741169936
7.836703104168168	863729.8516600438
7.91507013520985	829055.9541831483
7.994220836561947	934342.5245037356
8.074163044927568	875643.9278924033
8.154904675376844	877489.7407141655
8.23645372213061	938153.2761033406
8.318818259351918	990194.9087609148
8.402006441945437	1004593.4540969426
8.486026506364892	1066225.786871216
8.57088677142854	1088955.4586543469
8.656595639142825	1100124.467697728
8.743161595534254	1090440.7906084254
8.830593211489598	1085875.7660531949
8.918899143604493	1061136.5612266085
9.00808813504054	1034356.1356608897
9.098169016390944	1017171.6676256096
9.189150706554853	990436.3895227769
9.281042213620402	965187.345316107
9.373852635756606	930089.3771034224
9.467591162114172	907787.1586591827
9.562267073735315	885242.6356955695
9.657889744472667	855316.0234338028
9.754468641917395	832371.7628471248
9.852013328336568	794796.0268228214
9.950533461619933	780415.9117538579
10.050038796236134	755455.3256652952
10.150539184198495	733060.6650543705
10.252044576040479	707817.6950936717
10.354565021800884	681436.8067536692
10.458110672018893	661354.5474784512
10.562691778739081	645104.7014113584
10.668318696526473	626217.3339023534
10.775001883491738	606799.1998699356
10.882751902326655	585730.32020275
10.991579421349924	553445.2103011678
11.101495215563421	552974.9917402884
11.212510167719055	533437.4182577685
11.324635269396246	517074.4791683279
11.43788162209021	503627.7232642941
11.552260438311112	479668.105482065
11.667783042694223	461543.06802205043
11.784460873121166	452240.7995100467
11.902305481852377	443141.4307883279
12.0213285366709	430062.20421753114
12.14154182203761	418024.26474772074
12.262957240257986	395061.75078300515
12.385586812660566	367680.254510818
12.509442680787172	365032.21797616576
12.634537107595044	364863.39188471175
12.760882478670995	352217.4801408442
12.888491303457704	342617.08665130736
13.01737621649228	317526.3344566754
13.147549978657205	316460.8739405645
13.279025478443776	287028.6495002317
13.411815733228213	272789.3660338039
13.545933890560496	287337.24245148804
13.681393229466101	272825.9327614778
13.818207161760762	271098.7148483638
13.956389233378369	257861.261333347
14.095953125712155	253296.55264480427
14.236912656969274	234023.11667316192
14.379281783538968	215249.16239720408
14.523074601374358	204380.9694389049
14.6683053473881	218593.89974302152
14.814988400861985	206358.86838984906
14.963138284870602	192816.0315216038
15.11276966771931	195851.62081925359
15.263897364396504	192459.89014742
15.41653633804047	176983.55638410465
15.570701701420873	154961.44091438342
15.726408718435081	143652.09683082468
15.883672805619431	170384.2439425261
16.042509533675627	150185.8968557535
16.202934629012383	143352.05478656967
16.36496397530251	136414.64352275082
16.528613615055534	133605.82635973883
16.69389975120609	117523.0030455089
16.86083874871815	119749.22476604425
17.02944713620533	121659.52903377006
17.199741607567383	103705.83684051299
17.37173902364306	94741.4328431143
17.54545641387949	104632.91209385442
17.720910978018285	94147.90989866314
17.898120087798468	89590.49177585372
18.077101288676452	91644.85985916191
18.257872301563214	90728.73493278687
18.44045102457885	84010.42525362222
18.62485553482464	75416.78796967397
18.811104090172883	91027.12259326711
18.999215131074614	68512.30606553957
19.189207282385357	70842.92864690268
19.381099355209216	59000.00869328833
19.574910348761303	60078.54493311975
19.77065945224892	64727.78595890269
19.968366046771408	67484.70761467432
20.16804970723912	61679.33594866862
20.369730204311512	53870.451793035616
20.573427506354626	49267.14521082604
20.779161781418175	54129.668261667925
20.98695339923236	44388.605221489524
21.19682293322468	45384.56021574394
21.408791162556927	49716.31883212522
21.622879074182496	40068.77855986993
21.839107864924323	39073.52115743782
22.057498943573567	38955.2013453302
22.278073933009303	40121.193780096015
22.500854672339393	33237.15694838082
22.72586321906279	46594.90616872996
22.953121851253417	30582.519953920095
23.18265306976595	43562.413955095144
23.41447960046361	36166.196158690014
23.648624396468247	27533.2637876648
23.88511064043293	25354.723113556254
24.12396174683726	37264.15433044972
24.365201364305634	34868.366681702224
24.608853377948687	32920.87796474924
24.854941911728176	28465.083996431327
25.103491330845458	20646.013721223215
25.354526244153913	20383.906808326843
25.608071506595454	27157.88819117704
25.864152221661406	25910.87518917452
26.122793743878024	23538.285474969485
26.384021681316803	24252.331744380976
26.64786189812997	16308.57620964885
26.91434051711127	21183.071494709242
27.18348392228238	21795.40964044022
27.455318761505207	23982.00598915862
27.72987194912026	20188.81449473882
28.007170668611465	14906.1960020622
28.28724237529758	13421.443714051415
28.57011479905055	13194.885772818508
28.855815947041062	17645.105428149
29.144374106511474	13951.084573869848
29.435817847576587	14333.14451475586
29.730176026052348	13746.50491098106
30.027477786312875	14561.746534908458
30.327752564176006	11182.991423458392
30.631030089817763	11653.20174275486
30.93734039071594	10662.454964163117
31.246713794623105	11594.41550116153
31.559180932569333	12654.40110903182
31.874772741895026	10605.667961940706
32.19352046931398	12181.445943225657
32.51545567400712	12078.029148676478
32.84061023074719	7838.196205739489
33.169016333054664	8264.886841436644
33.500706496385206	8389.402042877735
33.83571356134906	10835.514553899158
34.17407069696255	8354.97712358886
34.51581140393218	7071.396196943072
34.8609695179715	7177.801764791715
35.209579213151216	6609.849355567112
35.56167500528272	5960.184012782135
35.917291755335555	5636.646756238569
36.27646467288891	7057.249404752389
36.639229319617804	6305.461830635838
37.005621612813975	7208.708217011853
37.37567782894212	5228.675231874816
37.74943460723154	5790.050263938065
38.12692895330385	6710.460811166648
38.5081982428369	6318.73797636191
38.893280225265265	4675.498953362973
39.28221302751791	4018.294761302198
39.6750351577931	5235.497300610085
40.071785509371026	3859.6181493660456
40.47250336446474	3869.348789172229
40.87722839810939	3792.3813189041134
41.28600068209048	4800.152057121388
41.69886068891139	4754.9347412762245
42.1158492958005	4328.694698598976
42.53700778875851	3980.636653515809
42.962377866646094	3118.7173264569246
43.392001645312554	2965.0118393520565
43.825921661765676	2778.9792591229852
44.264180878383335	2808.4489902853284
44.70682268716717	2724.684114956998
45.15389091403884	2816.211120570573
45.60542982317923	3126.6263414063196
46.06148412141103	2708.8936034300546
46.52209896262513	2309.640978042121
46.98731995225138	2230.6319824706266
47.4571931517739	2807.543183042879
47.93176508329164	2078.936382050512
48.411082734124555	2475.8938099547468
48.8951935614658	1919.630107838914
49.38414549708046	1756.2375624831022
49.877986952051266	1805.0668817382866
50.37676682157178	1739.4085196214291
50.88053448978749	1676.10042699009
51.38933983468537	1615.0438478363533
51.903233233032225	1556.169512085384
52.422265565362544	1499.3989857553743
52.946488221016175	1444.650985294096
53.47595310322633	1391.8762873317871
54.010712634258596	1340.9844395106522
54.550819760601186	1291.9212512148874
55.0963279582072	1244.618202234545
55.647291237789275	1199.0151150103907
56.20376415016716	1155.0560998140056
56.765801791668835	1112.673829981279
57.33345980958552	1071.821620301557
57.906794407681375	1032.4475340917652
58.48586235175819	994.4886952705484
59.070720975275776	957.9082296251745
59.661428185028534	922.6431303107338
60.25804246687882	888.661628377831
60.860622891547614	855.9058132515843
61.46922912046309	824.3380594051307
62.083921411667724	793.9207108296346
62.7047606257844	764.6019852159402
63.331808232042235	736.3545603908706
63.965126314362664	709.1320298574531
64.60477757750628	682.9003712884861
65.25082535328136	657.6260703588872
65.90333360681416	633.269741217412
66.56236694288232	609.806517301885
67.22799061231113	587.1976803547632
67.90027051843424	565.4143898973053
68.57927322361859	544.4288452430836
69.26506595585477	524.2088968989262
69.95771661541333	504.7324025048873
70.65729378156746	485.96794536164936
71.36386671938313	467.89246378471984
72.07750538657696	450.4807999990202
72.79828044044274	433.7078734372608
73.52626324484716	417.5533766756797
74.26152587729563	401.99091805289004
75.00414113606858	387.00248539961814
75.75418254742928	372.5647290261374
76.51172437290357	358.65745780045586
77.27684161663261	345.2643490757844
78.04961003279894	332.36299279259725
78.83010613312693	319.9401729013328
79.6184071944582	307.9751811787757
80.41459126640278	296.45220359604235
81.2187371790668	285.3571596187955
82.03092455085748	274.67163832824235
82.85123379636605	264.38282697810433
83.6797461343297	254.47452408582285
84.51654359567301	244.9331692694883
85.36170903162974	235.7462126455939
86.21532612194603	226.89854173029866
87.0774793831655	218.38028124027048
87.94825417699715	210.17748107085413
88.82773671876713	202.27986396178002
89.71601408595481	194.676289502297
90.61317422681435	187.35496787396713
91.5193059690825	180.307892023529
92.43449902877332	173.52197903876382
93.35884401906105	166.98990766425266
