#wavelength	surface flux
0.428837	364.63104823093545
0.43312537	712.8849630245115
0.43745662370000005	838.6797377310173
0.4418311899370001	985.79992405203
0.44624950183637	1156.2855867759774
0.4507119968547338	1350.6843365488019
0.45521911682328114	1575.998265451794
0.4597713079915139	1841.85884966366
0.4643690210714291	2143.198260888617
0.4690127112821433	2487.291997488566
0.47370283839496474	2881.787931766957
0.47843986677891437	3322.0754882449132
0.48322426544670355	3832.4907291890954
0.48805650810117057	4420.694719040085
0.4929370731821824	5073.500528627219
0.49786644391400414	5799.129512301808
0.5028451083531442	6604.776101477978
0.5078735594366757	7468.377176763082
0.5129522950310424	8296.696713237941
0.5180818179813528	9101.414237371633
0.5232626361611664	10679.784748654969
0.5284952625227781	11913.087476398801
0.5337802151480058	13076.12707233957
0.5391180172994858	14163.37375873015
0.5445091974724807	15012.475623337654
0.5499542894472055	15425.609292368888
0.5554538323416777	15086.283423207851
0.5610083706650945	13608.57624489678
0.5666184543717453	10620.259163860861
0.5722846389154628	6405.744207215267
0.5780074853046174	2340.6784285544045
0.5837875601576636	307.06863566220346
0.5896254357592402	8.199359730752576
0.5955216901168326	610.6437713154121
0.6014769070180009	4422.692133206397
0.607491676088181	13201.11333802721
0.6135665928490629	25769.960947118885
0.6197022587775535	40301.53401881236
0.625899281365329	55668.870570177605
0.6321582741789823	71460.5124520524
0.6384798569207721	87738.98944611996
0.6448646554899798	104277.28947320733
0.6513133020448797	121891.30500690862
0.6578264350653285	139825.37434927342
0.6644046994159818	159060.10149647313
0.6710487464101416	145240.94188726088
0.677759233874243	201794.66597532443
0.6845368262129854	225479.88673234425
0.6913821944751153	246565.41690285818
0.6982960164198664	274553.95178976725
0.7052789765840651	301031.1095904012
0.7123317663499058	327666.1886047658
0.7194550840134049	346786.92940965114
0.7266496348535388	364482.2594371896
0.7339161312020743	381409.29353229684
0.741255292514095	381711.32493867463
0.748667845439236	338072.382762924
0.7561545238936284	204847.13241682173
0.7637160691325647	24999.700529474714
0.7713532298238903	19002.096329111402
0.7790667621221293	222405.79624740532
0.7868574297433505	514965.5235216357
0.7947260040407841	426071.14113702974
0.8026732640811919	837339.5865459199
0.8106999967220039	925520.9251121739
0.8188069966892239	1050785.681095062
0.8269950666561161	1156808.2810931627
0.8352650173226772	1248701.2807656648
0.8436176674959041	1383625.5911070616
0.852053844170863	1485513.328414384
0.8605743826125718	1627027.6331935623
0.8691801264386976	1749416.0853160105
0.8778719277030844	1865370.7968484077
0.8866506469801153	1960722.0840071365
0.8955171534499164	1969485.6478974258
0.9044723249844157	2274689.3737970064
0.9135170482342599	2412181.573000118
0.9226522187166025	2517833.5521422406
0.9318787409037684	1803969.7816195274
0.941197528312806	2328345.9354205835
0.9506095035959342	2235155.4521239894
0.9601155986318936	2244108.6079155793
0.9697167546182125	2537224.7124760826
0.9794139221643946	3217238.199657484
0.9892080613860387	3641642.8745040246
0.9991001419998989	4029290.230422758
1.0090911434198981	4347605.643105853
1.019182054854097	4700246.770643087
1.0293738754026378	4798859.973321349
1.0396676141566643	5262703.932440374
1.050064290298231	5494663.545675825
1.0605649332012133	5825559.370153751
1.0711705825332256	6064924.674634481
1.0818822883585577	6376421.969646504
1.0927011112421434	6329196.781985323
1.1036281223545648	4059590.7891403344
1.1146644035781104	3589771.3374913214
1.1258110476138916	3835708.7918998543
1.1370691580900303	4087362.900572115
1.1484398496709307	4982028.770335016
1.1599242481676402	2881921.721809466
1.1715234906493166	4936213.702274418
1.1832387255558097	7775180.08268321
1.1950711128113678	9030843.154371465
1.2070218239394814	9630802.56375114
1.2190920421788762	10327915.590067808
1.2312829626006652	10911383.643786332
1.2435957922266716	11422710.304631801
1.2560317501489384	11826082.798307711
1.2685920676504279	12099491.693246486
1.281277988326932	12319689.434595041
1.2940907682102014	12060349.933302255
1.3070316758923035	11824435.07830314
1.3201019926512265	12306160.47931145
1.3333030125777388	5198205.698216379
1.3466360427035162	1141893.371283337
1.3601024031305513	362747.37168528227
1.373703427161857	1684481.2547983895
1.3874404614334754	252180.3996153809
1.4013148660478103	818854.0179813992
1.4153280147082883	635378.6803511803
1.4294812948553712	978815.1938550347
1.443776107803925	1893082.1353246772
1.4582138688819641	5058920.535454721
1.4727960075707838	4748479.330352274
1.4875239676464918	8116098.75360369
1.5023992073229566	9678858.360072987
1.5174231993961862	12218152.306449885
1.532597431390148	15184989.610038953
1.5479234057040496	17118977.45195006
1.5634026397610903	18185425.13576792
1.579036666158701	17468125.48385109
1.594827032820288	19654031.123045493
1.610775303148491	18796121.026035406
1.6268830561799759	15507568.021031942
1.6431518867417756	19201502.977985702
1.6595834056091934	18018690.734699626
1.6761792396652853	16358030.029217606
1.6929410320619382	12743511.767783176
1.7098704423825577	13046299.67900217
1.7269691468063835	15273086.880839577
1.744238838274447	11627831.856197836
1.7616812266571917	12178751.40179251
1.7792980389237634	2456888.2023569345
1.7970910193130012	3862809.8768916614
1.815061929506131	1239143.2134165089
1.8332125488011928	849304.2960304542
1.8515446742892046	1701741.0749774002
1.8700601210320964	882297.1513259435
1.8887607222424174	3992542.0894162618
1.9076483294648416	589562.2766402825
1.92672481275949	579866.7021667181
1.9459920608870853	1608951.8334298786
1.9654519814959561	2048525.0383372675
1.9851065013109155	6082061.325275796
2.0049575663240247	8453319.550741611
2.025007141987265	12932359.07407289
2.0452572134071376	20039350.657746285
2.065709785541209	22890850.442452822
2.086366883396621	23660997.27197341
2.107230552230587	22644987.96156782
2.1283028577528933	21802634.480191134
2.1495858863304225	18053481.610123754
2.1710817451937263	16392491.251038315
2.1927925626456637	9397219.501736639
2.2147204882721203	4811465.846513556
2.2368676931548412	2238546.808114355
2.25923637008639	2132047.776650114
2.281828733787254	1686902.903436071
2.3046470211251266	2424360.054449847
2.327693491336378	1020004.3448184567
2.3509704262497415	1024659.0718313348
2.374480130512239	796938.5049311559
2.3982249318173614	1422968.6502236568
2.4222071811355352	2706719.3894615425
2.4464292529468903	2629887.700485716
2.4708935454763594	1833024.847234335
2.4956024809311232	878945.8314941751
2.5205585057404343	357146.971140774
2.5457640907978387	692626.6493060007
2.5712217317058172	222143.44178927527
2.5969339490228753	162446.13946045155
2.622903288513104	549280.8545581315
2.6491323213982354	883136.4748597142
2.6756236446122177	74258.65808632078
2.7023798810583397	402613.74970602524
2.729403679868923	1197482.3376604912
2.7566977166676123	438131.21384559
2.7842646938342885	339672.65563007584
2.812107340772631	425376.2900989426
2.8402284141803578	985440.6051005949
2.8686306983221614	612422.2171433235
2.897317005305383	853098.0650326238
2.926290175358437	2101771.1172590987
2.9555530771120213	2409828.5619808487
2.9851086078831415	2512166.642606035
3.014959693961973	3093707.835655359
3.0451092909015927	2713844.4419097737
3.0755603838106085	2757829.0137187536
3.1063159876487147	1741743.4902721106
3.137379147525202	1172975.6869966094
3.168752939000454	785813.3047508304
3.200440468390459	609189.934609742
3.232444873074363	401827.6481486169
3.264769321805107	1192672.2467140444
3.297417015023158	1229825.0024993876
3.330391185173389	215508.87298838721
3.3636950970251234	909821.4784599983
3.397332047995375	736885.3966902732
3.4313053684753285	550242.3745063402
3.465618422160081	638545.0324892765
3.5002746063816828	957820.7831961616
3.5352773524454997	1275377.0873966215
3.570630125969955	1772081.7960058972
3.606336427229654	2422425.2571061514
3.6423997915019504	3405568.760016403
3.67882378941697	4677008.798090543
3.7156120273111397	5308697.512761591
3.7527681475842516	6670010.97556928
3.7902958290600934	6764875.107350563
3.8281987873506953	8793598.305151938
3.8664807752242023	8912527.0798777
3.905145582976444	9274858.856002275
3.9441970388062084	10183975.0062445
3.983639009194271	10337915.46516668
4.023475399286213	10878544.698175708
4.063710153279075	11032946.184952214
4.1043472548118665	10866766.184712477
4.145390727359985	10276022.137785511
4.186844634633585	9739194.14599626
4.2287130809799205	8884848.35410598
4.27100021178972	8161705.44347507
4.313710213907617	8014234.459104252
4.356847316046694	6692624.932022405
4.40041578920716	5541428.530464498
4.444419947099232	4729810.442721008
4.488864146570225	4230581.52033557
4.533752788035927	3764755.023519518
4.579090315916286	3941162.152594619
4.624881219075449	3820402.8966209134
4.671130031266204	4026473.496477907
4.717841331578866	3523141.2576987995
4.765019744894654	3568509.481010753
4.812669942343601	3538493.1951494887
4.8607966417670365	3822547.3470396423
4.9094046081847065	3417475.413568848
4.958498654266554	2101985.892763244
5.008083640809219	2643354.2121316944
5.058164477217312	3461245.823396462
5.108746121989485	2708368.5478781504
5.15983358320938	1863698.0465878546
5.211431919041474	1328164.9261663544
5.263546238231889	1815984.831551594
5.316181700614208	2268759.8762474423
5.36934351762035	1100845.4097998212
5.423036952796553	779477.2982177663
5.4772673223245185	857778.020153601
5.532039995547764	971550.2214569148
5.587360395503242	674800.2787463426
5.643233999458275	531071.128157284
5.6996663394528575	502033.30245073425
5.756663002847385	481529.2666249284
5.814229632875859	575984.3277238081
5.872371929204618	405586.04275725124
5.931095648496664	497644.30930408
5.990406604981631	671908.8039419997
6.050310671031448	539901.6483386067
6.110813777741763	739434.7390747581
6.17192191551918	583347.5381791305
6.233641134674372	1539183.2012472549
6.295977546021115	1687038.9954132235
6.358937321481327	1017065.4384565528
6.42252669469614	322964.0631729604
6.486751961643101	286807.32670857
6.551619481259532	353959.16381436924
6.617135676072128	300996.2519774138
6.683307032832849	514442.27239647147
6.750140103161177	622880.1440761774
6.81764150419279	613300.870545616
6.885817919234718	438204.7842842214
6.954676098427065	624204.371790032
7.024222859411336	375036.63438929024
7.094465088005449	579885.4463780262
7.165409738885503	393832.8374741897
7.237063836274358	428202.1290305144
7.309434474637103	354952.09587570163
7.382528819383473	307076.39619972924
7.456354107577308	294376.9003763655
7.530917648653081	406077.75824825
7.606226825139612	432257.81466231163
7.682289093391009	230111.64814146268
7.759111984324918	345938.33745070477
7.836703104168168	378077.0680086002
7.91507013520985	356299.5336142134
7.994220836561947	418975.14236238104
8.074163044927568	417989.1622229737
8.154904675376844	450284.76119727746
8.23645372213061	516821.55071125546
8.318818259351918	571328.2656785916
8.402006441945437	594894.4617589752
8.486026506364892	724132.8002134447
8.57088677142854	775085.6746037472
8.656595639142825	854108.2200135145
8.743161595534254	920764.0536095266
8.830593211489598	1005705.7716386595
8.918899143604493	986386.2346232807
9.00808813504054	1015013.6629870172
9.098169016390944	1111312.1742222847
9.189150706554853	1150503.7578238382
9.281042213620402	1134251.9093530567
9.373852635756606	1002170.9539082096
9.467591162114172	1122273.446124967
9.562267073735315	1248340.4385025864
9.657889744472667	1059516.6043898398
9.754468641917395	1215741.2903193943
9.852013328336568	919213.67623074
9.950533461619933	1151202.2569421956
10.050038796236134	1055398.9170164631
10.150539184198495	1106410.2175313504
10.252044576040479	954492.6885818944
10.354565021800884	704140.0591692119
10.458110672018893	759878.0532688663
10.562691778739081	857883.9351207549
10.668318696526473	834874.8593136516
10.775001883491738	799708.79157311
10.882751902326655	708625.2272012825
10.991579421349924	522887.7155316484
11.101495215563421	754435.5229229036
11.212510167719055	616773.6578537284
11.324635269396246	639600.6588731413
11.43788162209021	691784.546015815
11.552260438311112	454318.5910551423
11.667783042694223	498936.35681289027
11.784460873121166	478599.2306543424
11.902305481852377	538951.3591876936
12.0213285366709	552704.7757602824
12.14154182203761	579444.0253794413
12.262957240257986	412641.71850811254
12.385586812660566	333409.59898930584
12.509442680787172	336259.74076384923
12.634537107595044	409532.2770895142
12.760882478670995	379297.62620072515
12.888491303457704	363126.2223146072
13.01737621649228	297568.6274763039
13.147549978657205	319199.822409393
13.279025478443776	233943.26213289538
13.411815733228213	227905.4990427959
13.545933890560496	289023.5621414196
13.681393229466101	244450.34562650905
13.818207161760762	267499.9244222475
13.956389233378369	242876.87601580538
14.095953125712155	257177.55170599165
14.236912656969274	222209.72148634453
14.379281783538968	164662.74794058685
14.523074601374358	156179.12394605478
14.6683053473881	206144.34661596213
14.814988400861985	185020.3142745453
14.963138284870602	164438.86365510488
15.11276966771931	183597.01060281065
15.263897364396504	204107.9065376588
15.41653633804047	155346.90009585978
15.570701701420873	117033.60373457009
15.726408718435081	103179.76716373394
15.883672805619431	186823.77171160464
16.042509533675627	128608.00397498927
16.202934629012383	118321.38591991432
16.36496397530251	113478.53535041393
16.528613615055534	107455.80990174493
16.69389975120609	90945.5542271798
16.86083874871815	86589.6385084645
17.02944713620533	106942.18445658869
17.199741607567383	76226.72310748119
17.37173902364306	69508.99184140668
17.54545641387949	76433.03743037365
17.720910978018285	73671.81495813502
17.898120087798468	69342.4063544134
18.077101288676452	73681.24365884204
18.257872301563214	64945.07354951368
18.44045102457885	66780.5119337169
18.62485553482464	57232.27178966316
18.811104090172883	90417.78583343417
18.999215131074614	50041.04778258216
19.189207282385357	52113.15460066956
19.381099355209216	41523.74897256151
19.574910348761303	43921.30064882259
19.77065945224892	46709.55740931503
19.968366046771408	59025.41065991817
20.16804970723912	50024.263787779
20.369730204311512	40182.23279926744
20.573427506354626	35213.40082799919
20.779161781418175	41921.85094817599
20.98695339923236	32091.073342608954
21.19682293322468	31430.50560728397
21.408791162556927	42303.04904337643
21.622879074182496	29256.827921172055
21.839107864924323	26085.163240449823
22.057498943573567	27255.76215472865
22.278073933009303	30726.78090263221
22.500854672339393	22905.17007459137
22.72586321906279	42160.6357265775
22.953121851253417	21554.67207255968
23.18265306976595	36688.817134939374
23.41447960046361	29394.91539301657
23.648624396468247	18507.61678915119
23.88511064043293	16796.461269307034
24.12396174683726	32786.50638295245
24.365201364305634	29875.730515346593
24.608853377948687	27998.893962069957
24.854941911728176	22632.840896483885
25.103491330845458	13479.857336587072
25.354526244153913	13682.283750638186
25.608071506595454	22608.403477378943
25.864152221661406	18596.99466230864
26.122793743878024	17651.93374346128
26.384021681316803	19390.21704236121
26.64786189812997	10580.728819919215
26.91434051711127	15407.99609643211
27.18348392228238	17704.89239268621
27.455318761505207	22130.46921836704
27.72987194912026	16878.16284553996
28.007170668611465	10007.92442483445
28.28724237529758	8728.819057800323
28.57011479905055	8706.998463684458
28.855815947041062	13287.651123031252
29.144374106511474	9462.20659069415
29.435817847576587	10807.82884128677
29.730176026052348	9313.265378059861
30.027477786312875	11348.73042759862
30.327752564176006	7675.9674338490795
30.631030089817763	8382.923473163772
30.93734039071594	7460.435697700507
31.246713794623105	9075.92287684858
31.559180932569333	10540.534252422513
31.874772741895026	7725.688979115696
32.19352046931398	9883.678365196234
32.51545567400712	9622.076003506394
32.84061023074719	5144.420356651454
33.169016333054664	5649.455652974728
33.500706496385206	5928.417842309722
33.83571356134906	9533.88121659923
34.17407069696255	6099.712165662689
34.51581140393218	4695.689013347735
34.8609695179715	5334.08757270222
35.209579213151216	4653.473527739508
35.56167500528272	3906.723945770877
35.917291755335555	3651.4364728351675
36.27646467288891	4975.369030852969
36.639229319617804	4671.053842607117
37.005621612813975	6396.2798431796
37.37567782894212	3674.6506234835356
37.74943460723154	4264.461198912147
38.12692895330385	5803.377858929127
38.5081982428369	5246.298932557613
38.893280225265265	3269.5862485050184
39.28221302751791	2602.3327245620853
39.6750351577931	4087.168118285558
40.071785509371026	2600.170219088086
40.47250336446474	2597.312038526615
40.87722839810939	2619.47292194264
41.28600068209048	3992.1783482570595
41.69886068891139	4023.9340213679557
42.1158492958005	3262.9704099083365
42.53700778875851	3016.767623655633
42.962377866646094	2205.153743350552
43.392001645312554	2081.847346811811
43.825921661765676	1831.144090793691
44.264180878383335	1888.3687248485762
44.70682268716717	1863.0893401310261
45.15389091403884	1973.179858084294
45.60542982317923	2503.373289888739
46.06148412141103	2035.1062826155787
46.52209896262513	1606.476016647998
46.98731995225138	1569.133016177795
47.4571931517739	2226.3350908774305
47.93176508329164	1387.2169398702536
48.411082734124555	1942.6736076003642
48.8951935614658	1317.858022612882
49.38414549708046	1164.4793859099598
49.877986952051266	1228.7846670079655
50.37676682157178	1185.3033018131061
50.88053448978749	1143.318571200529
51.38933983468537	1102.7710528084876
51.903233233032225	1063.6233315280442
52.422265565362544	1025.8218354723617
52.946488221016175	989.322486987043
53.47595310322633	954.0921517237132
54.010712634258596	920.0763761043405
54.550819760601186	887.2409564897182
55.0963279582072	855.5458153111816
55.647291237789275	824.9498894774747
56.20376415016716	795.4230987904931
56.765801791668835	766.9217948026254
57.33345980958552	739.4169927560856
57.906794407681375	712.8743832278612
58.48586235175819	687.2585497381489
59.070720975275776	662.5429406050914
59.661428185028534	638.6910539331828
60.25804246687882	615.6800861460111
60.860622891547614	593.4765612886798
61.46922912046309	572.0550668999094
62.083921411667724	551.3903260662496
62.7047606257844	531.4518992202385
63.331808232042235	512.222047807227
63.965126314362664	493.6707368085897
64.60477757750628	475.77588486652695
65.25082535328136	458.5167667514122
65.90333360681416	441.8679364116232
66.56236694288232	425.81391132895106
67.22799061231113	410.32932757184
67.90027051843424	395.39632163917327
68.57927322361859	380.9960624146719
69.26506595585477	367.10858549295426
69.95771661541333	353.71927939224423
70.65729378156746	340.80739385730624
71.36386671938313	328.35801888793486
72.07750538657696	316.3548334216315
72.79828044044274	304.78129387029287
73.52626324484716	293.62453287072435
74.26152587729563	282.86780245855147
75.00414113606858	272.4984890191904
75.75418254742928	262.50237998902696
76.51172437290357	252.865784338728
77.27684161663261	243.57794704547373
78.04961003279894	234.6240618555569
78.83010613312693	225.99507487394425
79.6184071944582	217.67736559974398
80.41459126640278	209.66036392070507
81.2187371790668	201.93458523631895
82.03092455085748	194.48811773425143
82.85123379636605	187.3126480300032
83.6797461343297	180.39714765930162
84.51654359567301	173.7328744837871
85.36170903162974	167.31151475144338
86.21532612194603	161.12309891311662
87.0774793831655	155.1609525831395
87.94825417699715	149.41564564477412
88.82773671876713	143.8802098584788
89.71601408595481	138.54684593267197
90.61317422681435	133.40800659004006
91.5193059690825	128.4577100147729
92.43449902877332	123.68777304460343
93.35884401906105	119.09317217597298
