#wavelength	surface flux
0.428837	37.94888304074131
0.43312537	75.3745738179954
0.43745662370000005	90.37409930578387
0.4418311899370001	108.14518730626743
0.44624950183637	129.1931182991413
0.4507119968547338	153.98278856595323
0.45521911682328114	183.04116336273327
0.4597713079915139	217.50953762457763
0.4643690210714291	257.8037909192377
0.4690127112821433	304.7792741656498
0.47370283839496474	359.8162541417781
0.47843986677891437	423.75525572074287
0.48322426544670355	498.0375800193284
0.48805650810117057	584.3515141836531
0.4929370731821824	683.9565136581812
0.49786644391400414	798.4324916879402
0.5028451083531442	929.933374019991
0.5078735594366757	1080.1860514758985
0.5129522950310424	1249.4418598207324
0.5180818179813528	1439.2244923642177
0.5232626361611664	1661.6568745831664
0.5284952625227781	1903.0837513896993
0.5337802151480058	2164.227333871442
0.5391180172994858	2442.530633244716
0.5445091974724807	2723.8320359833147
0.5499542894472055	2987.3856294537222
0.5554538323416777	3184.1267895840547
0.5610083706650945	3233.8701331601765
0.5666184543717453	2985.676023164985
0.5722846389154628	2270.1375457093077
0.5780074853046174	1093.2622248234663
0.5837875601576636	178.55201576021358
0.5896254357592402	6.104187041782374
0.5955216901168326	349.19622003190534
0.6014769070180009	2079.4964472235542
0.607491676088181	4975.329546117742
0.6135665928490629	8155.683436905829
0.6197022587775535	11294.394239632038
0.625899281365329	14400.461618807038
0.6321582741789823	17543.766324704233
0.6384798569207721	20806.743619405246
0.6448646554899798	24213.121904771942
0.6513133020448797	27938.344264448442
0.6578264350653285	31868.883187746178
0.6644046994159818	36272.57745258383
0.6710487464101416	38059.1468042876
0.677759233874243	46236.173738783065
0.6845368262129854	51889.39677190142
0.6913821944751153	57416.31280794921
0.6982960164198664	64415.62443519359
0.7052789765840651	71551.33662565306
0.7123317663499058	79130.45214053903
0.7194550840134049	85769.4699693399
0.7266496348535388	92453.12339825842
0.7339161312020743	100679.05530373412
0.741255292514095	107024.46909430882
0.748667845439236	106232.77976474045
0.7561545238936284	81433.29479926606
0.7637160691325647	13691.68784274568
0.7713532298238903	10606.638862627155
0.7790667621221293	96336.0011680917
0.7868574297433505	170487.55682518144
0.7947260040407841	140546.6935728917
0.8026732640811919	241120.77154591808
0.8106999967220039	263264.241464053
0.8188069966892239	296064.61412799923
0.8269950666561161	324746.1445168783
0.8352650173226772	351900.3882088255
0.8436176674959041	390913.42082266905
0.852053844170863	426294.0661513995
0.8605743826125718	466631.93870661437
0.8691801264386976	506156.56595156604
0.8778719277030844	544377.9485796224
0.8866506469801153	573751.7601163061
0.8955171534499164	589797.8265794836
0.9044723249844157	677921.6376289447
0.9135170482342599	726519.5695037538
0.9226522187166025	770953.0379446306
0.9318787409037684	586527.9119038077
0.941197528312806	746836.4011985864
0.9506095035959342	731053.7894659485
0.9601155986318936	754615.5450696811
0.9697167546182125	866008.19950659
0.9794139221643946	1068507.3648207278
0.9892080613860387	1208846.5735726035
0.9991001419998989	1340815.5167975363
1.0090911434198981	1449985.0983882982
1.019182054854097	1566805.9432925167
1.0293738754026378	1626651.4373657552
1.0396676141566643	1778390.5101034397
1.050064290298231	1878114.2676198245
1.0605649332012133	2001316.0335247451
1.0711705825332256	2105578.4220221667
1.0818822883585577	2231619.4393522292
1.0927011112421434	2277483.8766320026
1.1036281223545648	1632656.4548916374
1.1146644035781104	1432630.4636179016
1.1258110476138916	1497602.2432627522
1.1370691580900303	1634875.0154719849
1.1484398496709307	1955606.6275143498
1.1599242481676402	1207167.1088582827
1.1715234906493166	2081752.560746246
1.1832387255558097	3088676.6760557746
1.1950711128113678	3531431.4962804974
1.2070218239394814	3784895.517307377
1.2190920421788762	4039131.3389964597
1.2312829626006652	4272501.991284453
1.2435957922266716	4494632.439919755
1.2560317501489384	4701546.526374924
1.2685920676504279	4856450.176712181
1.281277988326932	4999931.138056516
1.2940907682102014	4984596.084957734
1.3070316758923035	4959157.907644479
1.3201019926512265	5195750.276249184
1.3333030125777388	2580851.5219444423
1.3466360427035162	641527.0852535417
1.3601024031305513	184653.32233136418
1.373703427161857	874290.5910914814
1.3874404614334754	124019.71176021203
1.4013148660478103	449777.5040432216
1.4153280147082883	345353.7694822336
1.4294812948553712	533551.8712693327
1.443776107803925	1102634.2209505602
1.4582138688819641	2928128.9188968837
1.4727960075707838	2674724.225860143
1.4875239676464918	4504206.726685189
1.5023992073229566	5130808.518670386
1.5174231993961862	6424113.548838144
1.532597431390148	7703516.580018681
1.5479234057040496	8509892.99655156
1.5634026397610903	8975581.023946963
1.579036666158701	8554033.655832307
1.594827032820288	9554811.662480954
1.610775303148491	9129141.783861019
1.6268830561799759	7260730.149650095
1.6431518867417756	9124174.121605325
1.6595834056091934	8639511.472660802
1.6761792396652853	7736631.602697221
1.6929410320619382	6006979.130103677
1.7098704423825577	6304962.766400409
1.7269691468063835	7756984.228360324
1.744238838274447	6596840.6456835335
1.7616812266571917	6750715.130447086
1.7792980389237634	1551957.650304099
1.7970910193130012	2355463.1022964874
1.815061929506131	724591.4145358214
1.8332125488011928	483078.0629415299
1.8515446742892046	1074564.0640817005
1.8700601210320964	502814.03972403397
1.8887607222424174	2576145.7842100356
1.9076483294648416	299666.111230878
1.92672481275949	321108.9755378797
1.9459920608870853	1037736.0978441816
1.9654519814959561	1397241.1159168184
1.9851065013109155	4231439.752410258
2.0049575663240247	5889939.259033002
2.025007141987265	8488139.871235779
2.0452572134071376	12371342.55584482
2.065709785541209	13636930.685702605
2.086366883396621	13907784.278292848
2.107230552230587	13354509.31908008
2.1283028577528933	12585295.97640863
2.1495858863304225	10374958.58923091
2.1710817451937263	9570666.876550905
2.1927925626456637	5522395.990908342
2.2147204882721203	2823651.2251625205
2.2368676931548412	1224130.7021136973
2.25923637008639	1164320.9285297364
2.281828733787254	949644.722231024
2.3046470211251266	1507666.9859127533
2.327693491336378	597783.3846501675
2.3509704262497415	575948.1678027299
2.374480130512239	448241.1410583525
2.3982249318173614	848377.576544262
2.4222071811355352	1759069.7807917777
2.4464292529468903	1815423.7894526199
2.4708935454763594	1290785.6089973238
2.4956024809311232	594997.2894880521
2.5205585057404343	217702.44194694972
2.5457640907978387	463167.46336370177
2.5712217317058172	134575.87838536524
2.5969339490228753	86494.60262952554
2.622903288513104	352521.37291866733
2.6491323213982354	603683.1612243315
2.6756236446122177	37518.24987498855
2.7023798810583397	253107.3444266715
2.729403679868923	856788.9247757994
2.7566977166676123	258079.9382022104
2.7842646938342885	196854.65317186213
2.812107340772631	260300.25502907071
2.8402284141803578	678309.0840620721
2.8686306983221614	404190.56572338095
2.897317005305383	585222.3087931781
2.926290175358437	1537036.2140439497
2.9555530771120213	1827973.2306848129
2.9851086078831415	1925556.3202505559
3.014959693961973	2339088.3322778037
3.0451092909015927	1909237.2260459631
3.0755603838106085	2144400.842334767
3.1063159876487147	1314906.0632423405
3.137379147525202	870400.4213419758
3.168752939000454	560870.757272105
3.200440468390459	416449.051198991
3.232444873074363	265744.4496455627
3.264769321805107	836124.8219022155
3.297417015023158	849789.2620186313
3.330391185173389	138308.1561290316
3.3636950970251234	631101.6434856806
3.397332047995375	500837.22392641177
3.4313053684753285	361546.42002214835
3.465618422160081	436543.2443434934
3.5002746063816828	690233.7167925288
3.5352773524454997	909175.9205637256
3.570630125969955	1317219.105490872
3.606336427229654	1807532.0419172668
3.6423997915019504	2601025.6494329916
3.67882378941697	3558888.2917337655
3.7156120273111397	3900145.311563362
3.7527681475842516	4899737.775340583
3.7902958290600934	4910133.018104585
3.8281987873506953	6420432.0612510005
3.8664807752242023	6440179.772402478
3.905145582976444	6667787.308690899
3.9441970388062084	7356075.137104508
3.983639009194271	7409820.701654126
4.023475399286213	7815721.815258809
4.063710153279075	7878710.917534375
4.1043472548118665	7895954.151851961
4.145390727359985	7695327.773886061
4.186844634633585	7414176.609263586
4.2287130809799205	6924998.402341069
4.27100021178972	6488564.270203369
4.313710213907617	6455153.143484381
4.356847316046694	5640214.131259033
4.40041578920716	5011135.280497699
4.444419947099232	4489389.433530991
4.488864146570225	4186526.5328076994
4.533752788035927	3779264.0250667743
4.579090315916286	3931842.7448606445
4.624881219075449	3671007.5453402763
4.671130031266204	3695341.470602402
4.717841331578866	3302675.430116428
4.765019744894654	3517152.751520301
4.812669942343601	3346211.835682314
4.8607966417670365	3526297.5313571407
4.9094046081847065	3163256.8113032035
4.958498654266554	1771975.8750257227
5.008083640809219	2268373.494037579
5.058164477217312	3060381.7249609954
5.108746121989485	2317366.055110599
5.15983358320938	1537546.2199457719
5.211431919041474	1071441.8019162056
5.263546238231889	1495935.1699159467
5.316181700614208	1912161.66358492
5.36934351762035	873165.3212438603
5.423036952796553	600726.6032966151
5.4772673223245185	649235.5827810157
5.532039995547764	755280.3806436189
5.587360395503242	505195.2663222317
5.643233999458275	382155.207296766
5.6996663394528575	365859.78130667907
5.756663002847385	343007.5406295459
5.814229632875859	432257.1641825213
5.872371929204618	282965.66592563293
5.931095648496664	369060.0970078007
5.990406604981631	497403.0877078582
6.050310671031448	407671.404520041
6.110813777741763	465549.6184754907
6.17192191551918	426112.9054889212
6.233641134674372	1276037.0721563487
6.295977546021115	1417255.8001367631
6.358937321481327	809577.3589396189
6.42252669469614	230655.71616482866
6.486751961643101	199631.95577678873
6.551619481259532	255044.3445280682
6.617135676072128	220750.39123339424
6.683307032832849	401224.03577881766
6.750140103161177	503944.4137985732
6.81764150419279	499786.516494235
6.885817919234718	336064.2511780989
6.954676098427065	515341.2422887185
7.024222859411336	285984.47800682014
7.094465088005449	474915.8797640136
7.165409738885503	306447.26056621707
7.237063836274358	342563.0248723675
7.309434474637103	273059.4869041932
7.382528819383473	228438.63216498427
7.456354107577308	221192.1945136855
7.530917648653081	312557.74172307
7.606226825139612	347040.0904835797
7.682289093391009	168152.57510106207
7.759111984324918	272183.66865515604
7.836703104168168	290967.37589277176
7.91507013520985	273288.41007442854
7.994220836561947	327990.63547249255
8.074163044927568	334757.19453941454
8.154904675376844	369661.9177431011
8.23645372213061	433020.48266668856
8.318818259351918	485832.0953378889
8.402006441945437	509788.98521695414
8.486026506364892	624673.6008944901
8.57088677142854	686938.6391306866
8.656595639142825	758695.8802819432
8.743161595534254	831687.8375751469
8.830593211489598	907300.0244499847
8.918899143604493	871421.396122761
9.00808813504054	911166.1642894626
9.098169016390944	995125.6387392386
9.189150706554853	1026383.7564835949
9.281042213620402	977390.0070202152
9.373852635756606	806804.0580995051
9.467591162114172	1006321.0513515337
9.562267073735315	1090238.6404743346
9.657889744472667	890919.7740870906
9.754468641917395	1033308.4088019935
9.852013328336568	822607.3912833083
9.950533461619933	1003892.2920934486
10.050038796236134	930113.862126211
10.150539184198495	955583.799234662
10.252044576040479	837043.774434881
10.354565021800884	570669.0277825961
10.458110672018893	658632.6647775557
10.562691778739081	752892.3881512823
10.668318696526473	698575.0141586844
10.775001883491738	659913.5925152691
10.882751902326655	638153.4609226614
10.991579421349924	478582.81842816435
11.101495215563421	668867.1357521099
11.212510167719055	521783.92213845777
11.324635269396246	566126.3817961046
11.43788162209021	614492.5485872928
11.552260438311112	405295.4475093472
11.667783042694223	448765.03742849483
11.784460873121166	433769.02507074503
11.902305481852377	483923.2746867941
12.0213285366709	491976.9039943938
12.14154182203761	517843.4875356474
12.262957240257986	375313.0588967171
12.385586812660566	303077.9478327903
12.509442680787172	304973.43294002354
12.634537107595044	376466.73218315095
12.760882478670995	349199.2300297849
12.888491303457704	327463.83162330766
13.01737621649228	272976.7896662537
13.147549978657205	296584.3736728236
13.279025478443776	214318.8596728428
13.411815733228213	205508.1763307445
13.545933890560496	271702.04133175494
13.681393229466101	226028.91473609878
13.818207161760762	233100.15577700603
13.956389233378369	225920.80498358258
14.095953125712155	237815.6420076527
14.236912656969274	207111.64130266276
14.379281783538968	149698.80742913455
14.523074601374358	141872.84700374422
14.6683053473881	193535.4538970275
14.814988400861985	174106.35721618772
14.963138284870602	153701.08929086986
15.11276966771931	170959.58903529233
15.263897364396504	189623.22475586215
15.41653633804047	146678.76933684485
15.570701701420873	104842.71378731987
15.726408718435081	91770.92835945486
15.883672805619431	174167.7620534551
16.042509533675627	117976.33967452249
16.202934629012383	109017.20276955767
16.36496397530251	106738.69026563529
16.528613615055534	99785.7556738829
16.69389975120609	83670.12598746894
16.86083874871815	77695.5027053397
17.02944713620533	100277.68541434844
17.199741607567383	69640.1614102504
17.37173902364306	63409.976406631395
17.54545641387949	68941.17755740302
17.720910978018285	68566.6911931452
17.898120087798468	64534.24434339709
18.077101288676452	68676.01229007458
18.257872301563214	58475.67469831172
18.44045102457885	62259.50501474697
18.62485553482464	53001.26497624241
18.811104090172883	84889.48027167127
18.999215131074614	45544.62050439058
19.189207282385357	47612.62397019767
19.381099355209216	37774.15202032763
19.574910348761303	40331.231806694865
19.77065945224892	42409.22604342862
19.968366046771408	54771.89425001308
20.16804970723912	46899.878350007944
20.369730204311512	37060.00930095353
20.573427506354626	31983.358992583984
20.779161781418175	38777.82064351219
20.98695339923236	29421.04994578947
21.19682293322468	28278.572695647472
21.408791162556927	38899.129986142376
21.622879074182496	26921.690947583396
21.839107864924323	23232.49916333981
22.057498943573567	24730.37976344328
22.278073933009303	28517.57739029576
22.500854672339393	20694.59255481241
22.72586321906279	39508.51189325963
22.953121851253417	19605.8798479242
23.18265306976595	33555.419625926166
23.41447960046361	27275.339959956593
23.648624396468247	16599.120030559923
23.88511064043293	14940.408778957672
24.12396174683726	30838.21060738475
24.365201364305634	28193.870679392556
24.608853377948687	26439.4864362549
24.854941911728176	21148.96011522185
25.103491330845458	11969.199623327922
25.354526244153913	12272.051323295733
25.608071506595454	21352.394334351473
25.864152221661406	16602.364004891693
26.122793743878024	16260.85953507253
26.384021681316803	18014.923199816323
26.64786189812997	9366.897462557397
26.91434051711127	14010.302006495718
27.18348392228238	16514.558173577843
27.455318761505207	20611.67657808602
27.72987194912026	15752.4718502341
28.007170668611465	8931.46615243314
28.28724237529758	7717.995514483045
28.57011479905055	7726.0084443040505
28.855815947041062	12029.80763099704
29.144374106511474	8431.721270193342
29.435817847576587	10004.194302988206
29.730176026052348	8317.884388004666
30.027477786312875	10583.826415857191
30.327752564176006	6897.001838328798
30.631030089817763	7644.710638943714
30.93734039071594	6751.530809471698
31.246713794623105	8499.901045897985
31.559180932569333	9856.350918498934
31.874772741895026	7092.651978662522
32.19352046931398	9115.128139204493
32.51545567400712	8648.428411658693
32.84061023074719	4539.550268146074
33.169016333054664	5032.488632827844
33.500706496385206	5396.020862893422
33.83571356134906	8907.585815410703
34.17407069696255	5553.2224564257795
34.51581140393218	4163.470468779625
34.8609695179715	4940.67836159078
35.209579213151216	4224.627554565098
35.56167500528272	3445.405308353167
35.917291755335555	3199.990386785624
36.27646467288891	4472.318455335621
36.639229319617804	4302.7923398203175
37.005621612813975	6029.73592746422
37.37567782894212	3330.530663600912
37.74943460723154	3916.469439779591
38.12692895330385	5477.8314551587255
38.5081982428369	4941.594429893026
38.893280225265265	2982.992054372627
39.28221302751791	2274.84639439272
39.6750351577931	3767.37569853561
40.071785509371026	2313.1211113461404
40.47250336446474	2304.8543804600113
40.87722839810939	2354.519275697207
41.28600068209048	3758.14045165421
41.69886068891139	3741.17990963263
42.1158492958005	2870.9090813138546
42.53700778875851	2787.53143722714
42.962377866646094	2006.4645260839097
43.392001645312554	1889.1747128728082
43.825921661765676	1611.564112030919
44.264180878383335	1679.138499179345
44.70682268716717	1666.7565559053007
45.15389091403884	1774.1417275427473
45.60542982317923	2351.9449999204785
46.06148412141103	1884.1078113998412
46.52209896262513	1449.244015103124
46.98731995225138	1422.6348850886504
47.4571931517739	2063.2446363262275
47.93176508329164	1227.9235929940535
48.411082734124555	1810.5684811636515
48.8951935614658	1176.002735578023
49.38414549708046	1025.5560049190863
49.877986952051266	1096.4974207809537
50.37676682157178	1058.0697014821733
50.88053448978749	1020.948376499468
51.38933983468537	985.0805634357744
51.903233233032225	950.434599157651
52.422265565362544	916.9652285138849
52.946488221016175	884.6336700876225
53.47595310322633	853.4127668048895
54.010712634258596	823.2544720525347
54.550819760601186	794.1297978233135
55.0963279582072	766.0044957908468
55.647291237789275	738.8434421562606
56.20376415016716	712.6197632882012
56.765801791668835	687.2963938129593
57.33345980958552	662.8489637095669
57.906794407681375	639.2466672630752
58.48586235175819	616.4591327089248
59.070720975275776	594.4644599659745
59.661428185028534	573.2296134350697
60.25804246687882	552.7356671569603
60.860622891547614	532.953213905702
61.46922912046309	513.8602546460311
62.083921411667724	495.43501851035495
62.7047606257844	477.65071355251195
63.331808232042235	460.4922746879276
63.965126314362664	443.9331323143006
64.60477757750628	427.9547589141719
65.25082535328136	412.538244613182
65.90333360681416	397.66188962201136
66.56236694288232	383.3119959228412
67.22799061231113	369.4662365145482
67.90027051843424	356.10954512080747
68.57927322361859	343.2251650074938
69.26506595585477	330.7954528647289
69.95771661541333	318.80733618041074
70.65729378156746	307.24317480471353
71.36386671938313	296.0900143118744
72.07750538657696	285.33301549383424
72.79828044044274	274.9579379957731
73.52626324484716	264.95336013084074
74.26152587729563	255.30452591029365
75.00414113606858	246.00073132593886
75.75418254742928	237.02904580833155
76.51172437290357	228.37742121735982
77.27684161663261	220.03661349374124
78.04961003279894	211.99330314738145
78.83010613312693	204.2396978650415
79.6184071944582	196.7638671142405
80.41459126640278	189.55621556585433
81.2187371790668	182.60868442236298
82.03092455085748	175.91030981227033
82.85123379636605	169.45407662423574
83.6797461343297	163.2301074448843
84.51654359567301	157.2307284279169
85.36170903162974	151.44868200704371
86.21532612194603	145.87479883531938
87.0774793831655	140.5034365305762
87.94825417699715	135.32622265212032
88.82773671876713	130.33676412158536
89.71601408595481	125.52841499255304
90.61317422681435	120.89419822329602
91.5193059690825	116.42913774376284
92.43449902877332	112.12555928604205
93.35884401906105	107.97939866042985
