#wavelength	surface flux
0.428837	701.1140483433373
0.43312537	1357.812258450742
0.43745662370000005	1576.9667621188894
0.4418311899370001	1825.2539376368818
0.44624950183637	2103.2957687817548
0.4507119968547338	2411.03094828324
0.45521911682328114	2693.4543626827476
0.4597713079915139	3122.5365081069567
0.4643690210714291	3548.1906688835084
0.4690127112821433	3991.7809132760453
0.47370283839496474	4464.243351939848
0.47843986677891437	4948.753430123762
0.48322426544670355	5453.233423240343
0.48805650810117057	5971.343529303756
0.4929370731821824	6458.159448410785
0.49786644391400414	6885.345386459995
0.5028451083531442	7252.060565469765
0.5078735594366757	7488.352294166544
0.5129522950310424	7545.2096071662945
0.5180818179813528	7438.283154005674
0.5232626361611664	7273.421901393221
0.5284952625227781	6766.636765283661
0.5337802151480058	6016.293717872138
0.5391180172994858	5072.481002375829
0.5445091974724807	4008.767893255455
0.5499542894472055	2931.344987056286
0.5554538323416777	1951.9288035415477
0.5610083706650945	1166.7985315942044
0.5666184543717453	620.5301693833356
0.5722846389154628	294.09282892154795
0.5780074853046174	122.30478884291529
0.5837875601576636	37.90835691499353
0.5896254357592402	4.280369576923731
0.5955216901168326	68.72276230944595
0.6014769070180009	260.78038074395005
0.607491676088181	725.676621618824
0.6135665928490629	1716.0224098396875
0.6197022587775535	3579.8565399977733
0.625899281365329	6720.469640767254
0.6321582741789823	11501.913128354072
0.6384798569207721	18229.726879981394
0.6448646554899798	27001.4849450523
0.6513133020448797	38126.33914916251
0.6578264350653285	51209.82015953673
0.6644046994159818	66338.05708431745
0.6710487464101416	60307.95209392646
0.677759233874243	102183.40846984033
0.6845368262129854	122199.20495889182
0.6913821944751153	138940.4551658991
0.6982960164198664	158756.62022931103
0.7052789765840651	173666.05129654403
0.7123317663499058	183010.83760307648
0.7194550840134049	179047.84399857654
0.7266496348535388	165083.77187723573
0.7339161312020743	141870.4731089031
0.741255292514095	103967.91603129852
0.748667845439236	57895.483236661225
0.7561545238936284	20196.567382785353
0.7637160691325647	2782.018132286703
0.7713532298238903	2324.5911639211595
0.7790667621221293	22135.606491177732
0.7868574297433505	92806.16413319622
0.7947260040407841	106296.12885227114
0.8026732640811919	347512.8454202978
0.8106999967220039	489120.06928708527
0.8188069966892239	668518.7135852755
0.8269950666561161	845931.3670739305
0.8352650173226772	1007279.6871358189
0.8436176674959041	1228271.995292665
0.852053844170863	1268061.343141468
0.8605743826125718	1645115.710232315
0.8691801264386976	1854412.7152096592
0.8778719277030844	2064752.3451547541
0.8866506469801153	2184273.582866248
0.8955171534499164	2046263.6026567486
0.9044723249844157	2670231.905485434
0.9135170482342599	2857950.8605710343
0.9226522187166025	2983868.3825802957
0.9318787409037684	1732058.5449268231
0.941197528312806	2471639.122718912
0.9506095035959342	2249792.656399641
0.9601155986318936	2206976.1489565047
0.9697167546182125	2580601.6460124473
0.9794139221643946	3641835.439001894
0.9892080613860387	4305649.180702293
0.9991001419998989	4892256.177939338
1.0090911434198981	5376587.078579952
1.019182054854097	5911787.107745908
1.0293738754026378	6160609.138818383
1.0396676141566643	6663725.005807938
1.050064290298231	6952145.2744671265
1.0605649332012133	7326722.4700941425
1.0711705825332256	7550780.768866778
1.0818822883585577	7906809.448634869
1.0927011112421434	7445875.708428754
1.1036281223545648	3619640.942792219
1.1146644035781104	2887567.298774854
1.1258110476138916	3103462.5409357096
1.1370691580900303	3566892.036404774
1.1484398496709307	4479683.182403778
1.1599242481676402	1919036.3590726396
1.1715234906493166	4004540.9690578473
1.1832387255558097	8037121.333612318
1.1950711128113678	10085175.122082122
1.2070218239394814	11066051.749340443
1.2190920421788762	12034328.757216033
1.2312829626006652	12909997.445135813
1.2435957922266716	13568248.06803959
1.2560317501489384	14149389.530207235
1.2685920676504279	14381524.462144744
1.281277988326932	14381578.834160814
1.2940907682102014	13599515.41522781
1.3070316758923035	12834291.971044913
1.3201019926512265	13407124.991386177
1.3333030125777388	3955782.0153464093
1.3466360427035162	556411.8340482488
1.3601024031305513	153979.32644589615
1.373703427161857	835925.5476571547
1.3874404614334754	106144.47824936351
1.4013148660478103	398102.14978458785
1.4153280147082883	298550.2399610792
1.4294812948553712	468390.03793669294
1.443776107803925	1026010.589569046
1.4582138688819641	3211290.8276079944
1.4727960075707838	2827192.9829377374
1.4875239676464918	5166514.387953089
1.5023992073229566	6287790.1179549275
1.5174231993961862	8830236.80625162
1.532597431390148	12348370.560001442
1.5479234057040496	15811514.323373895
1.5634026397610903	18362855.90130765
1.579036666158701	18683527.447494846
1.594827032820288	19421148.31895177
1.610775303148491	17726555.773706146
1.6268830561799759	12207736.37295606
1.6431518867417756	16704673.09501012
1.6595834056091934	14636882.429465419
1.6761792396652853	11974741.222237002
1.6929410320619382	7972439.606084776
1.7098704423825577	8278214.412787031
1.7269691468063835	10127647.264791736
1.744238838274447	7342860.414283679
1.7616812266571917	7434276.755059646
1.7792980389237634	1366997.9285847393
1.7970910193130012	2162405.502598511
1.815061929506131	593208.9383095817
1.8332125488011928	413924.1441634643
1.8515446742892046	933910.9139012622
1.8700601210320964	441798.4799856746
1.8887607222424174	2212574.520474772
1.9076483294648416	263880.52367234894
1.92672481275949	280205.89092693815
1.9459920608870853	762564.1821198007
1.9654519814959561	1117323.5422836663
1.9851065013109155	2972415.6832618476
2.0049575663240247	4505192.484517367
2.025007141987265	5478933.492946889
2.0452572134071376	10102546.941555325
2.065709785541209	11617790.57718137
2.086366883396621	11597392.830253225
2.107230552230587	10567005.623333627
2.1283028577528933	9794945.892753974
2.1495858863304225	7787879.951313056
2.1710817451937263	6921643.5321442215
2.1927925626456637	3801544.5924908486
2.2147204882721203	2012630.9694821106
2.2368676931548412	1006413.250238062
2.25923637008639	918864.2829039593
2.281828733787254	809760.6199360562
2.3046470211251266	1126808.8981471725
2.327693491336378	551926.7290364117
2.3509704262497415	527480.1316810418
2.374480130512239	417270.2706919093
2.3982249318173614	784108.913779007
2.4222071811355352	1514853.0758522549
2.4464292529468903	1642568.035893248
2.4708935454763594	1189455.0405249852
2.4956024809311232	581486.6478606273
2.5205585057404343	211268.04022285185
2.5457640907978387	436345.04476283764
2.5712217317058172	128974.38832436739
2.5969339490228753	83123.89692859126
2.622903288513104	340906.31749997137
2.6491323213982354	570025.8806628063
2.6756236446122177	35716.26544950907
2.7023798810583397	248028.46100366418
2.729403679868923	830886.3154300617
2.7566977166676123	249784.22029220703
2.7842646938342885	191103.60958605312
2.812107340772631	242815.21792594483
2.8402284141803578	646507.8231869516
2.8686306983221614	351472.982587062
2.897317005305383	481772.41753750027
2.926290175358437	1397858.4398798882
2.9555530771120213	1681418.3042945208
2.9851086078831415	1772907.5451939364
3.014959693961973	2134723.445182921
3.0451092909015927	1413337.8815535407
3.0755603838106085	1999384.2575789124
3.1063159876487147	1232056.2049677172
3.137379147525202	812898.7208937046
3.168752939000454	549461.7819716502
3.200440468390459	408344.4641357101
3.232444873074363	260197.61588372622
3.264769321805107	826149.251619147
3.297417015023158	838722.1783538201
3.330391185173389	134106.58900777766
3.3636950970251234	621818.2554825286
3.397332047995375	492810.89031839947
3.4313053684753285	353058.5824829954
3.465618422160081	428029.3223872401
3.5002746063816828	681063.9222065794
3.5352773524454997	897725.8137727892
3.570630125969955	1306941.4943346793
3.606336427229654	1786060.4926996646
3.6423997915019504	2571418.489261925
3.67882378941697	3488855.6532526184
3.7156120273111397	3766354.8123411955
3.7527681475842516	4758920.178595832
3.7902958290600934	4728024.69453091
3.8281987873506953	6458543.622496889
3.8664807752242023	6402500.121245737
3.905145582976444	6807232.554729671
3.9441970388062084	7874567.742041766
3.983639009194271	8250848.483043938
4.023475399286213	8795974.421885204
4.063710153279075	9179500.00332345
4.1043472548118665	8826833.915070307
4.145390727359985	8331325.607345585
4.186844634633585	7934093.542983815
4.2287130809799205	7153519.999348346
4.27100021178972	6651678.366362645
4.313710213907617	6579307.564536387
4.356847316046694	5850206.4381204145
4.40041578920716	5726900.75201655
4.444419947099232	5392499.443380647
4.488864146570225	5376647.090098221
4.533752788035927	5025290.432473504
4.579090315916286	5227340.328879184
4.624881219075449	4520536.112716229
4.671130031266204	4182901.4813358677
4.717841331578866	3888084.3574371934
4.765019744894654	4488215.873391234
4.812669942343601	3878855.920989094
4.8607966417670365	3919480.4772233926
4.9094046081847065	3510426.601587922
4.958498654266554	1780376.7742316178
5.008083640809219	2297694.054587774
5.058164477217312	3097627.891597649
5.108746121989485	2367803.013224552
5.15983358320938	1518980.690174571
5.211431919041474	1039044.1319868742
5.263546238231889	1445482.423850491
5.316181700614208	1811696.442728438
5.36934351762035	856260.7208136775
5.423036952796553	576097.8449706133
5.4772673223245185	611782.2139563507
5.532039995547764	735063.1419935133
5.587360395503242	492193.7525936635
5.643233999458275	372923.4102130258
5.6996663394528575	353926.0887243598
5.756663002847385	330133.41258072754
5.814229632875859	423351.4113760027
5.872371929204618	274831.6733347373
5.931095648496664	341213.5255734533
5.990406604981631	424841.8474115379
6.050310671031448	392044.9883075844
6.110813777741763	332473.55959583516
6.17192191551918	365516.94529003475
6.233641134674372	1223706.7834396749
6.295977546021115	1363617.399062686
6.358937321481327	784621.3977237475
6.42252669469614	221639.18837952553
6.486751961643101	184227.7391880958
6.551619481259532	248805.0614373021
6.617135676072128	214981.58973367166
6.683307032832849	393002.0020409244
6.750140103161177	486378.51956442674
6.81764150419279	486738.96505854896
6.885817919234718	329608.7660564228
6.954676098427065	504236.09050117136
7.024222859411336	280373.0826698263
7.094465088005449	465373.62904179096
7.165409738885503	299433.6209100974
7.237063836274358	337060.34971671866
7.309434474637103	267947.7631353754
7.382528819383473	223510.42588596212
7.456354107577308	216484.93898996076
7.530917648653081	306633.7617448368
7.606226825139612	341609.8325242303
7.682289093391009	163883.67117496705
7.759111984324918	267403.11705229915
7.836703104168168	285293.4801039611
7.91507013520985	266008.8584945653
7.994220836561947	321966.6039825591
8.074163044927568	327728.85225682723
8.154904675376844	364034.7521661376
8.23645372213061	378835.8113893949
8.318818259351918	478926.90082681034
8.402006441945437	494534.114138126
8.486026506364892	479601.73698758736
8.57088677142854	674733.0179758773
8.656595639142825	665760.294440291
8.743161595534254	759444.8673601901
8.830593211489598	752051.3011813094
8.918899143604493	684315.4344108414
9.00808813504054	808323.3085029175
9.098169016390944	824117.0594498493
9.189150706554853	873371.9614881157
9.281042213620402	659311.5880672615
9.373852635756606	444614.01434205077
9.467591162114172	758346.9897989131
9.562267073735315	878976.9860803463
9.657889744472667	612689.5336182789
9.754468641917395	698437.306124883
9.852013328336568	743844.3980372493
9.950533461619933	894706.3349633961
10.050038796236134	824755.618747673
10.150539184198495	913496.2201727557
10.252044576040479	782952.9939591149
10.354565021800884	241898.2778519949
10.458110672018893	403818.940565889
10.562691778739081	540599.3924502531
10.668318696526473	376771.1063618782
10.775001883491738	293779.98527801014
10.882751902326655	533102.9945821209
10.991579421349924	424096.49830199016
11.101495215563421	520342.3165926564
11.212510167719055	392127.4493177017
11.324635269396246	493652.9543458191
11.43788162209021	583504.2871050457
11.552260438311112	354269.99994630925
11.667783042694223	424482.8479308031
11.784460873121166	317116.93141651864
11.902305481852377	433585.42063302477
12.0213285366709	399889.32629541185
12.14154182203761	466217.5998419414
12.262957240257986	326208.3063498522
12.385586812660566	283267.88267818064
12.509442680787172	275313.1329689755
12.634537107595044	320600.35621846
12.760882478670995	309552.78907074634
12.888491303457704	266138.93308508047
13.01737621649228	247767.5697384534
13.147549978657205	266531.34176412283
13.279025478443776	208148.9613961636
13.411815733228213	191125.55276577367
13.545933890560496	258911.36826303008
13.681393229466101	215558.65511715485
13.818207161760762	163796.95556472536
13.956389233378369	211273.54048400986
14.095953125712155	196644.48674432258
14.236912656969274	188011.40057105426
14.379281783538968	148689.75954811214
14.523074601374358	138584.76536904354
14.6683053473881	189364.10879809497
14.814988400861985	172559.81174384014
14.963138284870602	152030.41782879175
15.11276966771931	169231.8894778237
15.263897364396504	178206.6797020371
15.41653633804047	145304.27380622906
15.570701701420873	94495.09688264028
15.726408718435081	83969.67771193075
15.883672805619431	142620.62542554425
16.042509533675627	92703.60289373303
16.202934629012383	104928.35613833935
16.36496397530251	106453.26650409769
16.528613615055534	99442.2185221843
16.69389975120609	83075.8812220341
16.86083874871815	77098.97524837575
17.02944713620533	99684.07487166784
17.199741607567383	69260.77369781717
17.37173902364306	63038.268926193756
17.54545641387949	68526.156338503
17.720910978018285	68319.62680604553
17.898120087798468	64284.186948343005
18.077101288676452	67626.17111012594
18.257872301563214	58115.47400966385
18.44045102457885	62050.13630581494
18.62485553482464	52745.74898119834
18.811104090172883	81975.70973833941
18.999215131074614	45277.71778876133
19.189207282385357	47348.36176892122
19.381099355209216	37523.1033385338
19.574910348761303	40099.5042269666
19.77065945224892	42124.77784097565
19.968366046771408	54403.14315322581
20.16804970723912	46766.12508114951
20.369730204311512	36869.980706140814
20.573427506354626	31772.10927639869
20.779161781418175	38582.45299287187
20.98695339923236	29246.215746116424
21.19682293322468	28049.057302440448
21.408791162556927	38277.30189265943
21.622879074182496	26782.78967161162
21.839107864924323	23040.14918185428
22.057498943573567	24566.126080643775
22.278073933009303	28400.458956609225
22.500854672339393	20555.016595125926
22.72586321906279	39438.725042016595
22.953121851253417	19483.36051813406
23.18265306976595	33406.66252851312
23.41447960046361	27166.01032578785
23.648624396468247	16475.631726733238
23.88511064043293	14805.616180215724
24.12396174683726	30757.516072893213
24.365201364305634	28102.52581014679
24.608853377948687	26245.520416424926
24.854941911728176	21059.12039515345
25.103491330845458	11855.47886012121
25.354526244153913	12171.686798518436
25.608071506595454	21271.827853492785
25.864152221661406	16456.57997597185
26.122793743878024	16132.366774671664
26.384021681316803	17821.14740535801
26.64786189812997	9260.800022987949
26.91434051711127	13891.738231921454
27.18348392228238	16414.798248931627
27.455318761505207	19721.51197098106
27.72987194912026	15299.199804257943
28.007170668611465	8851.762934478607
28.28724237529758	7625.357074765646
28.57011479905055	7626.069149700625
28.855815947041062	11543.935350921352
29.144374106511474	8130.558413257095
29.435817847576587	9946.00801246568
29.730176026052348	8244.671068317974
30.027477786312875	10519.640080907591
30.327752564176006	6796.670387925768
30.631030089817763	7419.0417745170735
30.93734039071594	6685.329131192057
31.246713794623105	8421.69250376004
31.559180932569333	9514.46191864255
31.874772741895026	7048.69061365084
32.19352046931398	8625.39363082716
32.51545567400712	6939.937809594599
32.84061023074719	4451.528949645417
33.169016333054664	4864.328509471911
33.500706496385206	5359.423894190977
33.83571356134906	8319.2916151118
34.17407069696255	5374.743080522676
34.51581140393218	4114.999016995487
34.8609695179715	4911.038585621108
35.209579213151216	4187.379560613828
35.56167500528272	3389.9747097617783
35.917291755335555	3134.082592254763
36.27646467288891	4322.5582408681275
36.639229319617804	4122.160047029929
37.005621612813975	5256.778043740128
37.37567782894212	3304.595718451842
37.74943460723154	3891.829742054109
38.12692895330385	5441.786621127477
38.5081982428369	4853.553648598755
38.893280225265265	3087.9419372296497
39.28221302751791	2217.1247838079234
39.6750351577931	3533.8611495136906
40.071785509371026	2277.947323029325
40.47250336446474	2272.372383776504
40.87722839810939	2331.4277368639378
41.28600068209048	3667.9409217615216
41.69886068891139	3436.4716700850986
42.1158492958005	2536.1352516451025
42.53700778875851	2707.659621279816
42.962377866646094	1989.9382355012979
43.392001645312554	1873.036065861527
43.825921661765676	1577.9077244123275
44.264180878383335	1656.2737603546632
44.70682268716717	1647.4637540480599
45.15389091403884	1754.886388168216
45.60542982317923	2331.01439959544
46.06148412141103	1866.6061185176666
46.52209896262513	1433.9405118749141
46.98731995225138	1410.1997025903386
47.4571931517739	2047.7585530462634
47.93176508329164	1207.6500551839647
48.411082734124555	1799.636017128269
48.8951935614658	1152.347205492925
49.38414549708046	1000.0395236699891
49.877986952051266	1081.910193082999
50.37676682157178	1044.0383579279126
50.88053448978749	1007.45075685638
51.38933983468537	972.0971491970829
51.903233233032225	937.9460425541538
52.422265565362544	904.953105469971
52.946488221016175	873.0793608939771
53.47595310322633	842.2992345806254
54.010712634258596	812.5652401501131
54.550819760601186	783.8488567832472
55.0963279582072	756.1165333439754
55.647291237789275	729.333108895534
56.20376415016716	703.4729185005405
56.765801791668835	678.4997494339591
57.33345980958552	654.3891302938779
57.906794407681375	631.1105844647495
58.48586235175819	608.6346515539581
59.070720975275776	586.9397694686165
59.661428185028534	565.9932336015291
60.25804246687882	545.776868357051
60.860622891547614	526.2612253550383
61.46922912046309	507.42518802038535
62.083921411667724	489.24685951858413
62.7047606257844	471.7001820422886
63.331808232042235	454.7701216084203
63.965126314362664	438.4310637078806
64.60477757750628	422.6639922722389
65.25082535328136	407.4509849152639
65.90333360681416	392.7700814609231
66.56236694288232	378.6081775451508
67.22799061231113	364.94366598691255
67.90027051843424	351.760834275575
68.57927322361859	339.0439045167438
69.26506595585477	326.77509598153785
69.95771661541333	314.94180026179197
70.65729378156746	303.5268285903885
71.36386671938313	292.51671125407177
72.07750538657696	281.89732221660256
72.79828044044274	271.65479814010195
73.52626324484716	261.77757844828255
74.26152587729563	252.25135167150174
75.00414113606858	243.0653791312001
75.75418254742928	234.20680358529063
76.51172437290357	225.6641161546297
77.27684161663261	217.42812086446284
78.04961003279894	209.48544461803627
78.83010613312693	201.82883539223428
79.6184071944582	194.44594410861308
80.41459126640278	187.32804749575308
81.2187371790668	180.46651369290294
82.03092455085748	173.85090092404704
82.85123379636605	167.47427799315278
83.6797461343297	161.32696463606385
84.51654359567301	155.40118296077128
85.36170903162974	149.689713369187
86.21532612194603	144.18403984140062
87.0774793831655	138.8781699774975
87.94825417699715	133.7636231710284
88.82773671876713	128.83482608210042
89.71601408595481	124.08467092444913
90.61317422681435	119.50626631982509
91.5193059690825	115.094907965031
92.43449902877332	110.84315581545201
93.35884401906105	106.74652627953859
