#wavelength	surface flux
0.428837	115.25786710466086
0.43312537	224.4030035034919
0.43745662370000005	262.915911051085
0.4418311899370001	307.82835105338467
0.44624950183637	359.8023116602956
0.4507119968547338	418.8311752594747
0.45521911682328114	489.0404802078233
0.4597713079915139	569.2468098146379
0.4643690210714291	661.2922055628217
0.4690127112821433	766.4617917401189
0.47370283839496474	888.0468100339392
0.47843986677891437	1024.3912685305643
0.48322426544670355	1183.5829669874374
0.48805650810117057	1367.4823722174026
0.4929370731821824	1574.0472319562011
0.49786644391400414	1806.4590465581687
0.5028451083531442	2070.621419531474
0.5078735594366757	2362.1402904355605
0.5129522950310424	2662.8385380766563
0.5180818179813528	2991.387327403688
0.5232626361611664	3521.67599400377
0.5284952625227781	4019.9645060050366
0.5337802151480058	4556.927723281193
0.5391180172994858	5159.960324077112
0.5445091974724807	5818.642039693088
0.5499542894472055	6528.13121565212
0.5554538323416777	7273.96110583724
0.5610083706650945	8018.247432609075
0.5666184543717453	8620.527118412923
0.5722846389154628	8830.098356113376
0.5780074853046174	7758.021437779749
0.5837875601576636	3637.564800069939
0.5896254357592402	167.35503818025933
0.5955216901168326	5800.890750468867
0.6014769070180009	12956.573489730854
0.607491676088181	17897.381722578157
0.6135665928490629	21782.670344792965
0.6197022587775535	25484.304516990018
0.625899281365329	29147.876915812372
0.6321582741789823	32952.98014023429
0.6384798569207721	37070.3153953664
0.6448646554899798	41455.23335892926
0.6513133020448797	46246.849196926465
0.6578264350653285	51390.2423699209
0.6644046994159818	57045.83607398761
0.6710487464101416	60327.34575181141
0.677759233874243	69965.80072993263
0.6845368262129854	77296.89385680175
0.6913821944751153	84889.04663467787
0.6982960164198664	93762.72506461425
0.7052789765840651	103069.82402556135
0.7123317663499058	113092.74345080857
0.7194550840134049	123325.49175988552
0.7266496348535388	134536.54668594524
0.7339161312020743	146749.26353930662
0.741255292514095	159425.1081337185
0.748667845439236	170825.09234432186
0.7561545238936284	172644.02237111647
0.7637160691325647	86193.66985207438
0.7713532298238903	70556.28067496637
0.7790667621221293	217001.21337395904
0.7868574297433505	261728.27346558735
0.7947260040407841	242454.70495747472
0.8026732640811919	317311.42589839216
0.8106999967220039	342269.2432718797
0.8188069966892239	372661.10931548174
0.8269950666561161	403279.7140876665
0.8352650173226772	434765.6360580787
0.8436176674959041	470825.79913003347
0.852053844170863	507921.6980777542
0.8605743826125718	546698.2409993748
0.8691801264386976	587417.9860640421
0.8778719277030844	630100.425780154
0.8866506469801153	675814.7212691498
0.8955171534499164	715386.1219178599
0.9044723249844157	776166.002692935
0.9135170482342599	828948.6022530285
0.9226522187166025	881089.0671602216
0.9318787409037684	858609.0242816819
0.941197528312806	961423.3863981303
0.9506095035959342	1002791.1259390006
0.9601155986318936	1052067.8429593276
0.9697167546182125	1132312.0050698922
0.9794139221643946	1255943.9600995358
0.9892080613860387	1352533.8016885472
0.9991001419998989	1448716.432951482
1.0090911434198981	1543324.7544914577
1.019182054854097	1644965.1326093385
1.0293738754026378	1727930.2068650585
1.0396676141566643	1844736.068896093
1.050064290298231	1945643.8557746054
1.0605649332012133	2057700.3712569878
1.0711705825332256	2166137.527924532
1.0818822883585577	2283661.3714256776
1.0927011112421434	2374255.4628402595
1.1036281223545648	2231430.212441041
1.1146644035781104	2255433.5679484187
1.1258110476138916	2435229.874267
1.1370691580900303	2492594.374157732
1.1484398496709307	2753548.5069198026
1.1599242481676402	2579895.2715083333
1.1715234906493166	2976778.6347896457
1.1832387255558097	3386669.7673383513
1.1950711128113678	3615461.231111266
1.2070218239394814	3791726.5285980767
1.2190920421788762	3985298.7792227217
1.2312829626006652	4171228.151380978
1.2435957922266716	4354791.566488763
1.2560317501489384	4533169.237947316
1.2685920676504279	4701842.178480741
1.281277988326932	4873372.121305201
1.2940907682102014	5009575.81600584
1.3070316758923035	5151300.076155746
1.3201019926512265	5350862.045256632
1.3333030125777388	4375805.088409882
1.3466360427035162	3042209.643608359
1.3601024031305513	2028017.088220328
1.373703427161857	3694598.573117589
1.3874404614334754	2021865.1110125408
1.4013148660478103	2718563.2169601507
1.4153280147082883	2680576.256868735
1.4294812948553712	3264066.595281305
1.443776107803925	4095403.3176043876
1.4582138688819641	5614079.417368152
1.4727960075707838	5747220.842024657
1.4875239676464918	6664515.60766856
1.5023992073229566	7119866.0596224805
1.5174231993961862	7632258.851902368
1.532597431390148	8167459.7042809175
1.5479234057040496	8545614.790294643
1.5634026397610903	8782301.113816084
1.579036666158701	8922545.450458517
1.594827032820288	9396772.553282548
1.610775303148491	9617452.263360135
1.6268830561799759	9827711.943937916
1.6431518867417756	10181789.424359892
1.6595834056091934	10322012.327519907
1.6761792396652853	10531742.575886913
1.6929410320619382	10524070.114992639
1.7098704423825577	10663665.224133462
1.7269691468063835	10860710.258135242
1.744238838274447	10226264.851839917
1.7616812266571917	10479845.09729709
1.7792980389237634	6707667.715674993
1.7970910193130012	6626202.1985617615
1.815061929506131	4288418.78338643
1.8332125488011928	4398379.574670367
1.8515446742892046	5199578.312202384
1.8700601210320964	5053193.903627768
1.8887607222424174	7856622.33275585
1.9076483294648416	4436973.4211616665
1.92672481275949	4537720.599650439
1.9459920608870853	5800296.461615229
1.9654519814959561	6538489.599040765
1.9851065013109155	9562846.554365898
2.0049575663240247	10494797.013499672
2.025007141987265	12055888.256524805
2.0452572134071376	13456040.258896405
2.065709785541209	14018643.31374325
2.086366883396621	14307675.336368851
2.107230552230587	14430470.77667234
2.1283028577528933	14692878.417619528
2.1495858863304225	14669045.417009912
2.1710817451937263	14714386.274327202
2.1927925626456637	14368539.799111675
2.2147204882721203	13986797.586923966
2.2368676931548412	13186260.459413901
2.25923637008639	13006479.908532655
2.281828733787254	12514796.926000379
2.3046470211251266	8458645.90046599
2.327693491336378	7055815.263097471
2.3509704262497415	9047046.170689005
2.374480130512239	7923816.054642096
2.3982249318173614	9084668.48782459
2.4222071811355352	10089789.833578486
2.4464292529468903	9058304.146120023
2.4708935454763594	6778453.266469955
2.4956024809311232	4390844.059825612
2.5205585057404343	2547348.505300103
2.5457640907978387	3414899.5535175465
2.5712217317058172	1725674.497085487
2.5969339490228753	1849500.085263856
2.622903288513104	3348997.5670480565
2.6491323213982354	3928210.875969621
2.6756236446122177	1037724.4625382596
2.7023798810583397	2605833.5595343197
2.729403679868923	4631793.179328181
2.7566977166676123	3110067.859314762
2.7842646938342885	2690378.4529123427
2.812107340772631	2848611.4840859133
2.8402284141803578	4172661.6261886638
2.8686306983221614	3185770.3731061583
2.897317005305383	3947282.134150267
2.926290175358437	6311989.336773087
2.9555530771120213	6825564.9981777575
2.9851086078831415	6757578.646414772
3.014959693961973	8148547.902060217
3.0451092909015927	7987035.667157408
3.0755603838106085	8813001.700921578
3.1063159876487147	8051134.691296872
3.137379147525202	6393704.130962432
3.168752939000454	5453099.60514685
3.200440468390459	4594736.408560749
3.232444873074363	3625071.3545648316
3.264769321805107	7986493.1799156675
3.297417015023158	7811889.019331895
3.330391185173389	1506608.2766513515
3.3636950970251234	6463931.601339865
3.397332047995375	5566945.091921836
3.4313053684753285	4766176.263117083
3.465618422160081	4978084.56532751
3.5002746063816828	6226019.88249328
3.5352773524454997	7830396.149282703
3.570630125969955	8660104.523905963
3.606336427229654	9506487.961107533
3.6423997915019504	9767563.537417624
3.67882378941697	9847107.687848715
3.7156120273111397	9439384.062625494
3.7527681475842516	9276965.255286755
3.7902958290600934	8926250.44326104
3.8281987873506953	8825062.509267686
3.8664807752242023	8417711.937663728
3.905145582976444	8240466.330892035
3.9441970388062084	8142113.9748139065
3.983639009194271	8164685.827017052
4.023475399286213	8252933.962776532
4.063710153279075	8179286.100913827
4.1043472548118665	8430270.604679307
4.145390727359985	8498531.343145134
4.186844634633585	8389214.582559647
4.2287130809799205	8213006.156292937
4.27100021178972	7705169.062616732
4.313710213907617	7185475.19063401
4.356847316046694	6472542.660466027
4.40041578920716	5094980.806243761
4.444419947099232	3534365.728586994
4.488864146570225	2585234.5634051887
4.533752788035927	2102368.404204154
4.579090315916286	2297214.135590855
4.624881219075449	2583397.0031576585
4.671130031266204	3313242.2671572566
4.717841331578866	2737522.1584127164
4.765019744894654	2257003.53273728
4.812669942343601	2645955.8704898143
4.8607966417670365	3286974.0654181205
4.9094046081847065	3017945.8188022487
4.958498654266554	3005365.358390382
5.008083640809219	3534669.828140865
5.058164477217312	3894647.689134095
5.108746121989485	4019409.562393719
5.15983358320938	3734414.7812715787
5.211431919041474	2963938.0523361936
5.263546238231889	3676484.212985094
5.316181700614208	4101680.9287499352
5.36934351762035	2735814.1596015226
5.423036952796553	2186404.8893484254
5.4772673223245185	2462325.256052506
5.532039995547764	2569174.1907701096
5.587360395503242	2101075.4871185576
5.643233999458275	1872995.7166302907
5.6996663394528575	1692053.798629385
5.756663002847385	1720715.522331352
5.814229632875859	1776092.1682270325
5.872371929204618	1529832.0513313701
5.931095648496664	1595038.8428740362
5.990406604981631	2064513.3358288861
6.050310671031448	1628748.6089164815
6.110813777741763	2283231.7220333423
6.17192191551918	1781272.3063200684
6.233641134674372	2982742.0496297292
6.295977546021115	3119348.6822886243
6.358937321481327	2434431.0918185795
6.42252669469614	1164775.0661673134
6.486751961643101	1062031.7113586843
6.551619481259532	1194396.4021795595
6.617135676072128	988790.2728217236
6.683307032832849	1361940.9068260423
6.750140103161177	1461938.0373796744
6.81764150419279	1395007.8188477335
6.885817919234718	1228861.5597430207
6.954676098427065	1384576.7795085504
7.024222859411336	1068750.43711041
7.094465088005449	1317528.262760502
7.165409738885503	1071469.1029116001
7.237063836274358	1086472.9671461065
7.309434474637103	1037761.1216760797
7.382528819383473	964623.7521565055
7.456354107577308	887919.7654137268
7.530917648653081	1160578.4336905696
7.606226825139612	1029715.2181964407
7.682289093391009	760376.9282692958
7.759111984324918	895013.5909964518
7.836703104168168	1045920.294819843
7.91507013520985	996829.696464969
7.994220836561947	1189717.0273392987
8.074163044927568	1066270.0287613063
8.154904675376844	1048617.693241633
8.23645372213061	1161156.2233983472
8.318818259351918	1231365.7312072944
8.402006441945437	1278784.28029902
8.486026506364892	1313868.016828979
8.57088677142854	1394672.0428681537
8.656595639142825	1416329.7640192625
8.743161595534254	1386599.4992651963
8.830593211489598	1415464.5422533413
8.918899143604493	1391067.1158689624
9.00808813504054	1342504.7745880256
9.098169016390944	1335769.1348118123
9.189150706554853	1307805.2888772406
9.281042213620402	1274755.6098157696
9.373852635756606	1215264.401440533
9.467591162114172	1185396.922178819
9.562267073735315	1176040.701180223
9.657889744472667	1126606.6685009783
9.754468641917395	1108533.050614029
9.852013328336568	1023946.7594824834
9.950533461619933	1033005.761074524
10.050038796236134	997212.3337734849
10.150539184198495	969964.2103695772
10.252044576040479	926589.9873720905
10.354565021800884	870995.825610992
10.458110672018893	848455.0170024303
10.562691778739081	842377.5037846189
10.668318696526473	821281.8918666856
10.775001883491738	792800.2075670349
10.882751902326655	751225.7625623501
10.991579421349924	673722.295023395
11.101495215563421	719751.4064847042
11.212510167719055	693234.7397797694
11.324635269396246	661888.0245168762
11.43788162209021	651471.4928749517
11.552260438311112	599142.4719385041
11.667783042694223	571815.0073193547
11.784460873121166	559210.9709428702
11.902305481852377	563117.6675367148
12.0213285366709	546969.4292806176
12.14154182203761	535235.2572262612
12.262957240257986	479969.14090522873
12.385586812660566	429543.77032382425
12.509442680787172	437153.8377515753
12.634537107595044	450302.8112762923
12.760882478670995	430617.07648640225
12.888491303457704	425472.7157020274
13.01737621649228	373013.3573864032
13.147549978657205	378058.71443377255
13.279025478443776	326584.662747858
13.411815733228213	311790.1839525401
13.545933890560496	340464.9078295256
13.681393229466101	317702.06784701446
13.818207161760762	323943.41352657316
13.956389233378369	301693.37568751303
14.095953125712155	303273.93039320846
14.236912656969274	272039.7998696963
14.379281783538968	239822.96867731537
14.523074601374358	228247.00384031358
14.6683053473881	252914.32231815154
14.814988400861985	233593.59219513877
14.963138284870602	215344.36197517955
15.11276966771931	226999.48944772902
15.263897364396504	229665.06363269425
15.41653633804047	196962.6313000692
15.570701701420873	168618.07250662387
15.726408718435081	156164.37700252162
15.883672805619431	204400.88591817938
16.042509533675627	168409.99864368205
16.202934629012383	159092.7634059501
16.36496397530251	148323.33399564325
16.528613615055534	146391.4533345855
16.69389975120609	127923.46611248596
16.86083874871815	132415.18712004775
17.02944713620533	136562.37166591114
17.199741607567383	111652.13525407675
17.37173902364306	101770.51054036293
17.54545641387949	114565.63582277589
17.720910978018285	100825.93557993464
17.898120087798468	95794.94763734692
18.077101288676452	99454.17366110551
18.257872301563214	99455.60569351715
18.44045102457885	90396.87275983574
18.62485553482464	80412.62840015806
18.811104090172883	105945.02255340772
18.999215131074614	74020.84726334186
19.189207282385357	76777.01207025384
19.381099355209216	63202.27100797352
19.574910348761303	64271.4313369378
19.77065945224892	69953.08530906227
19.968366046771408	76764.17421999232
20.16804970723912	66616.48304052612
20.369730204311512	57596.5953532823
20.573427506354626	53232.38377506873
20.779161781418175	58629.69772793673
20.98695339923236	47654.20449667506
21.19682293322468	48656.094041984325
21.408791162556927	56228.19097596178
21.622879074182496	42929.24948205853
21.839107864924323	42114.49121923407
22.057498943573567	41777.17488221233
22.278073933009303	42994.68383236115
22.500854672339393	35808.41148175855
22.72586321906279	52773.2693790949
22.953121851253417	33073.22137741351
23.18265306976595	49351.031357325264
23.41447960046361	39824.257884693354
23.648624396468247	29674.41285894967
23.88511064043293	27481.818833161917
24.12396174683726	41436.764483582025
24.365201364305634	38112.325452362835
24.608853377948687	35601.47790483799
24.854941911728176	30631.623647189204
25.103491330845458	22370.805943465573
25.354526244153913	22027.797418545106
25.608071506595454	29006.687404756412
25.864152221661406	28384.86001864012
26.122793743878024	25236.383137444755
26.384021681316803	26242.71486077853
26.64786189812997	17685.70749888334
26.91434051711127	22667.908130381264
27.18348392228238	23735.111157961925
27.455318761505207	27601.51841203174
27.72987194912026	22187.752116989715
28.007170668611465	16044.467767364744
28.28724237529758	14536.958537597102
28.57011479905055	14289.882030442095
28.855815947041062	18837.37012128844
29.144374106511474	14975.256460780218
29.435817847576587	15190.322207014953
29.730176026052348	14762.261686866888
30.027477786312875	15497.687532877611
30.327752564176006	12041.706149146255
30.631030089817763	12463.249302470163
30.93734039071594	11425.657002140757
31.246713794623105	12295.98728615483
31.559180932569333	13846.556954450647
31.874772741895026	11290.534475569884
32.19352046931398	12989.488811179392
32.51545567400712	13196.303466524792
32.84061023074719	8467.568822956917
33.169016333054664	8871.484511405904
33.500706496385206	8965.136617569218
33.83571356134906	12033.071374026931
34.17407069696255	8779.143827200534
34.51581140393218	7614.567376549089
34.8609695179715	7622.814331998616
35.209579213151216	7071.606307717532
35.56167500528272	6437.711623347085
35.917291755335555	6096.165900079373
36.27646467288891	7544.9310242718075
36.639229319617804	6693.191523677534
37.005621612813975	7960.960797435879
37.37567782894212	5592.547303829413
37.74943460723154	6158.775207016039
38.12692895330385	7324.335906410752
38.5081982428369	6795.208766821229
38.893280225265265	5001.114548268339
39.28221302751791	4343.065053033206
39.6750351577931	5625.621690338271
40.071785509371026	4150.564256326464
40.47250336446474	4158.730252326792
40.87722839810939	4062.169664435246
41.28600068209048	5101.781856222364
41.69886068891139	5010.58976566601
42.1158492958005	4611.248715496538
42.53700778875851	4234.879484386104
42.962377866646094	3333.7979890436122
43.392001645312554	3173.2586479368224
43.825921661765676	2996.2130168747294
44.264180878383335	3018.85726977037
44.70682268716717	2921.083072244201
45.15389091403884	3010.6220363301177
45.60542982317923	3308.5306900929127
46.06148412141103	2870.628411658596
46.52209896262513	2472.596686514363
46.98731995225138	2385.326678796621
47.4571931517739	2991.7849405662055
47.93176508329164	2236.744163405629
48.411082734124555	2632.3660507971013
48.8951935614658	2061.635920715062
49.38414549708046	1891.101505587132
49.877986952051266	1935.7813200765427
50.37676682157178	1865.0823949433222
50.88053448978749	1796.922869250957
51.38933983468537	1731.2016110494321
51.903233233032225	1667.841313397614
52.422265565362544	1606.75855656701
52.946488221016175	1547.86625652125
53.47595310322633	1491.1020536892956
54.010712634258596	1436.3770892657224
54.550819760601186	1383.6288290725936
55.0963279582072	1332.7811669275422
55.647291237789275	1283.771003590308
56.20376415016716	1236.5349051615688
56.765801791668835	1191.0024846600231
57.33345980958552	1147.1211056080547
57.906794407681375	1104.8328530300525
58.48586235175819	1064.074057151995
59.070720975275776	1024.7993710774047
59.661428185028534	986.9478397438894
60.25804246687882	950.4778441383601
60.860622891547614	915.3294360695178
61.46922912046309	881.4651791637929
62.083921411667724	848.8333709014141
62.7047606257844	817.3878616835915
63.331808232042235	787.0973618197188
63.965126314362664	757.9098683664927
64.60477757750628	729.7883851137591
65.25082535328136	702.6966267656672
65.90333360681416	676.5941148783193
66.56236694288232	651.452562139795
67.22799061231113	627.2299922682963
67.90027051843424	603.8959882868457
68.57927322361859	581.4196508204227
69.26506595585477	559.7668713239342
69.95771661541333	538.91294338914
70.65729378156746	518.8240619630513
71.36386671938313	499.47497391740075
72.07750538657696	480.83866045778296
72.79828044044274	462.8879262547837
73.52626324484716	445.6011222758259
74.26152587729563	428.9503510138992
75.00414113606858	412.91588159545256
75.75418254742928	397.4733743688185
76.51172437290357	382.60062093625055
77.27684161663261	368.27978449080297
78.04961003279894	354.4865318279049
78.83010613312693	341.2065616391427
79.6184071944582	328.4172478791833
80.41459126640278	316.1017446194185
81.2187371790668	304.24442531248565
82.03092455085748	292.82553342668547
82.85123379636605	281.83215004298046
83.6797461343297	271.2462196899938
84.51654359567301	261.05384559248967
85.36170903162974	251.24118666549467
86.21532612194603	241.79263702171272
87.0774793831655	232.69704938391362
87.94825417699715	223.9393377246327
88.82773671876713	215.50857824209712
89.71601408595481	207.39214641881995
90.61317422681435	199.57740841549062
91.5193059690825	192.05595787427615
92.43449902877332	184.8138971772248
93.35884401906105	177.8434509620285
