#wavelength	surface flux
0.6450077295303345	23355.6266075891
0.6472567915916443	38398.77094194725
0.6494921445846558	53987.40044140438
0.6517150402069092	67831.44607374725
0.6539263725280762	84706.59751389251
0.6561272740364075	105074.87230037672
0.6583186388015747	129520.80401916866
0.6605015397071838	159887.09760285102
0.6626768708229065	196784.4413631708
0.6648455858230591	240187.8074297505
0.6670085787773132	289689.8152526008
0.6691668033599854	342523.21054737584
0.6713210344314575	401994.6835481692
0.6734722256660461	474798.9146285598
0.6756211519241333	550639.9068993261
0.6777685880661011	615371.6351352911
0.6799154281616211	666697.9128639885
0.6820623278617859	695458.5270907538
0.6842101216316223	693313.1622145028
0.6863595843315125	658319.7866330544
0.688511312007904	592539.1884201987
0.6906660795211792	521797.3750819341
0.6928245425224304	472669.6356951832
0.6949873566627502	447233.5590471341
0.6971551775932312	436941.6263231337
0.6993286609649658	446137.8317670711
0.7015084028244019	482872.9231282888
0.7036949396133423	526775.7702864453
0.7058889269828796	553358.6772450482
0.7080909013748169	561972.8413086822
0.710301399230957	568311.0830755925
0.712520956993103	579482.294229678
0.7147500514984131	583871.2168117376
0.7169892191886902	574730.0729218744
0.7192389369010925	553569.0860404803
0.7214996814727783	524756.9058208741
0.723771870136261	493581.87314913736
0.7260559797286987	458572.5412785335
0.7283523678779602	420255.9332076744
0.7306615710258484	380858.26199134236
0.7329838871955872	339981.65231507027
0.7353196740150452	302816.30272458406
0.7376693487167358	270561.0205840877
0.7400332689285278	237575.65736862013
0.7424117922782898	206969.97472848097
0.7448052167892456	182030.0706397167
0.7472138404846191	158367.42994984903
0.7496379613876343	132461.79620943434
0.7520779371261597	106507.29392918997
0.7545340061187744	82862.46029087427
0.7570064663887024	61363.62885257749
0.7594954967498779	43100.48799494136
0.7620013952255249	25956.246150350256
0.7645244002342224	10794.769971495394
0.7670646905899048	2750.133038386158
0.7696225643157959	1679.9555010402994
0.7721980810165405	7071.461237089986
0.7747915983200073	25210.268990486187
0.7774031162261963	54045.39128501711
0.7800329327583313	89573.90181731453
0.7826811671257019	147514.40289683852
0.7853479981422424	227537.4435321057
0.7880334854125977	318367.8646460613
0.7907378077507019	412072.2646734695
0.7934610247612	490237.7255343686
0.7962033748626709	634963.2042306903
0.7989648580551147	902746.6687202561
0.801745593547821	1198767.2071711286
0.8045456409454346	1492269.2094982683
0.8073651194572449	1813254.8453046866
0.8102040886878967	2172503.7171980734
0.8130625486373901	2581317.0648217686
0.8159406185150146	3024122.6506472114
0.8188382983207703	3502881.144161768
0.8217556476593018	4056559.0764671536
0.8246926665306091	4680045.919603987
0.8276493549346924	5334393.16668554
0.8306257724761963	5994336.76178431
0.8336219191551208	6660074.716786032
0.8366377949714661	7363469.304010467
0.8396733403205872	8137453.669066537
0.8427285552024841	8967963.56251479
0.8458034992218018	9749305.567772672
0.8488980531692505	10100125.321397126
0.8520121574401855	10208838.711206185
0.8551458716392517	11335627.071151817
0.8582990765571594	12878321.920165066
0.8614717125892639	13482055.850951072
0.8646637797355652	13935878.9036708
0.8678751587867737	14898267.529851627
0.8711057901382446	15973390.47707782
0.8743556141853333	17036837.958816733
0.87762451171875	18174314.83654313
0.8809124231338501	19291491.37107342
0.8842192888259888	20360249.222740944
0.8875449895858765	21224163.037392784
0.8908893465995789	21197777.460463528
0.894252359867096	20712904.02791978
0.8976338505744934	22013860.51490756
0.9010337591171265	24457598.812237717
0.9044519662857056	26110438.57646962
0.9078882932662964	27112198.738960106
0.9113426208496094	27785284.64245881
0.914814829826355	28384504.800210077
0.9183048605918884	29139009.078123722
0.9218124747276306	29704323.5618871
0.925337553024292	28394234.715309314
0.9288799166679382	25455771.53473144
0.9324395060539246	24415902.813143805
0.9360161423683167	26185934.224977966
0.9396095871925354	28635721.060693476
0.943219780921936	30063689.292420514
0.9468464851379395	30370872.15592187
0.9504896402359009	30596697.278705906
0.9541489481925964	30983351.640161745
0.9578243494033813	31280527.297641683
0.9615156054496765	31872460.554161794
0.9652225375175476	33138340.677539907
0.9689450263977051	34630605.95206655
0.9726828336715698	35923746.79382205
0.9764357805252075	37117514.53595197
0.9802037477493286	38322560.73975068
0.983986496925354	39531541.28128937
0.9877838492393494	40934730.10482951
0.9915955662727356	42389089.98921983
0.9954215884208679	43530850.81491382
0.9992615580558777	44520472.629225664
1.0031154155731201	45691830.48356768
1.0069829225540161	46994227.78322704
1.0108637809753418	48169848.89826428
1.0147579908370972	49131194.05632555
1.018665075302124	49929257.70170239
1.022585153579712	50667497.92610531
1.0265177488327026	51421171.66615532
1.0304628610610962	52110666.59142532
1.0344202518463135	52704260.80317515
1.0383895635604858	53262439.16991219
1.0423706769943237	53801766.621572934
1.0463634729385376	54317349.16981516
1.0503677129745483	54864782.52625033
1.0543830394744873	55439545.67113899
1.058409333229065	55942727.898988836
1.0624464750289917	56365154.114833206
1.0664942264556885	56742648.04190702
1.0705522298812866	57100368.34709912
1.0746204853057861	57475692.4076316
1.0786986351013184	57875796.460381255
1.0827864408493042	58268672.9823876
1.086883783340454	58471444.419635095
1.0909905433654785	57924483.58243346
1.0951062440872192	56243888.87634272
1.0992310047149658	53795536.04228795
1.10336434841156	51055185.28091511
1.1075061559677124	48052525.04478326
1.1116561889648438	44946436.59793159
1.115814208984375	42727340.18277473
1.1199802160263062	41773137.05898243
1.124153733253479	41940226.78113456
1.1283347606658936	42024730.76369551
1.1325229406356812	39751654.70087998
1.1367181539535522	39635336.99584065
1.1409201622009277	43663169.37982338
1.145128846168518	45369452.9969989
1.1493438482284546	43590207.633583605
1.1535650491714478	40613293.45135425
1.1577922105789185	38778049.859409645
1.1620250940322876	38158667.389508024
1.1662636995315552	38532323.539744616
1.170507550239563	41423443.49843828
1.174756646156311	45195564.94371702
1.1790107488632202	49394159.58894814
1.1832695007324219	54205737.14229618
1.1875330209732056	57981164.55716441
1.191800832748413	61434831.09485218
1.1960728168487549	65117203.538011566
1.2003488540649414	67929818.83525464
1.2046287059783936	70046887.03343025
1.2089121341705322	71783548.83500871
1.2131990194320679	73203225.35057235
1.2174891233444214	74421756.44507802
1.2217823266983032	75367960.11489084
1.2260783910751343	76052668.54002334
1.230377197265625	76653980.27506477
1.2346785068511963	77238418.27223139
1.238982081413269	77852512.65846448
1.2432878017425537	78402559.4865421
1.2475954294204712	78758637.45930049
1.2519049644470215	79090251.3882392
1.256216049194336	79400846.60035318
1.2605286836624146	79649193.20453228
1.2648425102233887	79940293.35190737
1.2691574096679688	80200587.2330896
1.2734732627868652	80311678.15454595
1.2777899503707886	80260067.0702333
1.2821072340011597	80120882.9451568
1.2864248752593994	79969912.62751819
1.2907428741455078	79781983.94092931
1.2950609922409058	79694636.98352182
1.2993791103363037	79756827.68204036
1.303696870803833	79705096.84827563
1.3080145120620728	79400412.21150112
1.3123314380645752	78828746.015913
1.3166478872299194	78632802.47565046
1.3209635019302368	78226877.51044263
1.3252781629562378	73757488.87874569
1.3295916318893433	60439080.973856024
1.3339040279388428	41991996.08379238
1.3382149934768677	28314407.95440282
1.3425244092941284	21036633.47966308
1.3468321561813354	16527191.189560285
1.3511382341384888	13425875.89795939
1.3554422855377197	11475325.669497102
1.3597444295883179	11340210.837568676
1.3640443086624146	13098678.164454162
1.3683418035507202	14194536.439650374
1.3726370334625244	14247772.63503055
1.3769296407699585	15438259.839849312
1.381219506263733	16379625.323310504
1.3855066299438477	16334818.130025707
1.3897908926010132	16254236.893999195
1.3940720558166504	15463262.546298886
1.3983501195907593	14435815.77894222
1.4026249647140503	14106298.313866867
1.4068963527679443	13712182.11225388
1.4111642837524414	13254710.41905366
1.4154287576675415	13452144.610953985
1.419689416885376	13267509.098403286
1.4239463806152344	12937285.103049796
1.4281994104385376	14073482.705226716
1.4324485063552856	15995515.7550145
1.436693549156189	17352674.00798348
1.440934419631958	18320628.591754563
1.4451709985733032	19727187.917700987
1.449403166770935	23026704.605207488
1.453631043434143	27054574.11349931
1.4578542709350586	29726006.766773917
1.4620729684829712	30737538.93478651
1.4662868976593018	30806910.08342298
1.4704961776733398	31130694.99938981
1.4747005701065063	32650564.676835574
1.4788999557495117	35035828.80240503
1.4830944538116455	37133596.24689461
1.4872838258743286	38782088.74777573
1.491468071937561	40243915.52510748
1.4956470727920532	42365284.07876599
1.4998208284378052	44940747.95565241
1.5039892196655273	47668055.66046989
1.5081522464752197	50710805.490589604
1.5123097896575928	54030329.20767784
1.5164618492126465	57080574.81439039
1.5206083059310913	60232036.904283166
1.5247491598129272	63924747.35355968
1.5288842916488647	67226921.89574607
1.5330137014389038	70532304.19205244
1.5371372699737549	74289144.24496223
1.541254997253418	77901988.21736842
1.545366883277893	81552318.16606413
1.5494728088378906	84796434.10034412
1.5535727739334106	86624234.86187935
1.5576666593551636	86874547.24249509
1.561754584312439	87643306.6185309
1.5658363103866577	90583354.64903192
1.5699119567871094	93902826.3203011
1.5739814043045044	95932999.98054047
1.5780447721481323	96132198.87329726
1.582101821899414	96013444.66385971
1.5861525535583496	96841324.55623922
1.5901970863342285	97592199.04561704
1.5942351818084717	97837455.70126012
1.5982669591903687	97878428.2354241
1.6022924184799194	97378476.0017695
1.606311559677124	96382998.8233459
1.6103241443634033	95334900.25283642
1.6143304109573364	93875528.818319
1.6183301210403442	92594363.70271504
1.6223233938217163	94065405.37781529
1.6263102293014526	96366477.35036713
1.6302905082702637	95638285.37686603
1.634264349937439	93514565.96972969
1.638231635093689	92340155.91539776
1.6421923637390137	91527094.05996642
1.646146535873413	91044420.50843354
1.6500942707061768	91950305.31971326
1.6540353298187256	92052871.78248958
1.6579699516296387	90155971.47679989
1.661897897720337	88315192.95276618
1.6658192873001099	84503402.82237902
1.6697341203689575	80234809.21786132
1.6736423969268799	81995341.32081108
1.677544116973877	87151865.55723676
1.6814392805099487	87422218.36643037
1.6853278875350952	81678154.35425627
1.6892099380493164	76099137.86936085
1.6930854320526123	73799046.21993056
1.696954369544983	73303651.08397532
1.7008168697357178	74714370.33645965
1.7046726942062378	76493697.6405716
1.708522081375122	76308546.1068304
1.712364912033081	75260886.93749173
1.7162011861801147	73964859.2585151
1.7200311422348022	71229208.1631189
1.723854422569275	67449031.97684859
1.7276713848114014	65222498.56572487
1.731481909751892	64478217.401915796
1.7352858781814575	62509869.979538895
1.7390835285186768	59144309.01610494
1.7428747415542603	55459106.87133602
1.7466596364974976	52180049.073838934
1.7504380941390991	50188709.24370259
1.7542102336883545	48137035.82927493
1.7579760551452637	46584908.49328956
1.7617355585098267	46226422.86453647
1.7654887437820435	43894649.81259784
1.7692357301712036	39293524.66270934
1.7729763984680176	35240897.16334065
1.776710867881775	33005821.728518188
1.7804391384124756	31691342.017417695
1.7841613292694092	29159503.540698398
1.7878772020339966	27354076.560269006
1.7915871143341064	26729732.994653266
1.7952908277511597	26189675.432234842
1.7989884614944458	25207819.804244816
1.8026801347732544	22509913.538855035
1.806365728378296	20931321.62296946
1.8100452423095703	21733974.75520071
1.8137187957763672	23659315.101401467
1.817386507987976	22893862.00403975
1.8210482597351074	21742600.430398684
1.8247040510177612	23625469.428941168
1.828354001045227	23422690.627512135
1.8319982290267944	21334923.070178457
1.8356364965438843	20002878.15000615
1.8392690420150757	19327540.26186662
1.8428958654403687	18834185.247439634
1.8465168476104736	17695921.77844872
1.8501322269439697	17632107.354830343
1.8537418842315674	17610507.792112514
1.8573459386825562	15288549.720979158
1.860944390296936	13212149.809281312
1.864537239074707	13098873.065937942
1.8681244850158691	13928864.381650884
1.871706247329712	15280134.762587892
1.8752825260162354	17177805.784432214
1.8788533210754395	19922079.693198204
1.8824186325073242	22897868.324329242
1.8859784603118896	24491397.608435035
1.8895330429077148	24641460.841942158
1.8930821418762207	25878839.955810767
1.8966259956359863	28051522.88920382
1.9001644849777222	28098841.451856684
1.9036977291107178	27204323.959887467
1.9072256088256836	27820034.454784542
1.9107483625411987	28105020.58805488
1.9142658710479736	27845709.55236857
1.9177782535552979	28265606.537581164
1.9212853908538818	27098972.134589642
1.9247875213623047	25281080.272994854
1.9282845258712769	24044363.508270472
1.9317764043807983	22205919.375284076
1.9352631568908691	20218746.06806533
1.9387450218200684	18131950.593462713
1.942221760749817	18098678.11495552
1.9456936120986938	20059546.24880544
1.9491604566574097	21232447.514450993
1.952622413635254	20852119.993217055
1.956079363822937	19795033.98623632
1.959531545639038	19913305.865961183
1.962978720664978	20648644.740895625
1.966421127319336	21828052.997679003
1.9698586463928223	22838768.720634747
1.9732913970947266	22529044.041152593
1.9767193794250488	22637590.284803923
1.9801424741744995	23311299.597893145
1.9835609197616577	24416354.242351707
1.9869745969772339	25234524.27694782
1.990383505821228	24739388.843455937
1.9937876462936401	25847424.821176585
1.9971871376037598	27079532.36397366
2.000581979751587	27710389.05113877
2.003972291946411	29202832.19643783
2.007357597351074	29453714.621944156
2.0107386112213135	30185428.010612197
2.0141148567199707	31955366.592012465
2.017486572265625	32368782.60842998
2.0208535194396973	34406399.45559423
2.0242159366607666	36967855.784575574
2.027573823928833	36427047.55679834
2.0309269428253174	37121076.805522636
2.034275770187378	40174960.71291703
2.0376198291778564	41834514.537645355
2.040959596633911	42125247.173413455
2.044294595718384	43388666.92360383
2.0476250648498535	45439167.176727004
2.0509510040283203	45909338.57455742
2.054272413253784	46402721.0138472
2.057589530944824	49484375.81215245
2.0609018802642822	50826275.59762426
2.0642096996307373	50342768.63715784
2.0675129890441895	51785486.87584477
2.0708119869232178	52787029.36557046
2.074106216430664	52721564.96165746
2.0773961544036865	53422714.142352335
2.080681324005127	54314739.26055668
2.0839622020721436	54827585.565358534
2.087238311767578	55429110.61184509
2.090510129928589	56209905.462614425
2.0937774181365967	56576434.379384466
2.0970399379730225	56759075.08708926
2.1002981662750244	57025711.19698828
2.1035518646240234	56854391.40563346
2.1068007946014404	56752897.105711974
2.1100454330444336	57022938.61166835
2.1132853031158447	57352705.22097103
2.116520881652832	56967041.83585042
2.1197516918182373	56591275.70511202
2.1229779720306396	57166332.29684341
2.12619948387146	57255120.33236567
2.1294167041778564	56545099.17578107
2.132629156112671	56497175.074046604
2.1358368396759033	56555813.21550957
2.139039993286133	55588874.80511508
2.1422386169433594	54773661.5352321
2.145432472229004	54730123.164085425
2.1486217975616455	54439358.006944455
2.151806354522705	53796253.156355985
2.1549863815307617	53494008.32907104
2.1581614017486572	53256414.490780875
2.16133189201355	52815483.54403917
2.1644976139068604	52306019.20413169
2.167658567428589	51752924.819884345
2.1708147525787354	51110595.578796856
2.173966407775879	50230972.358774
2.1771130561828613	49269937.439511865
2.1802549362182617	48672893.42059247
2.183391809463501	48001105.30547721
2.1865241527557373	46857044.795576744
2.1896514892578125	45693071.82764621
2.1927738189697266	44060404.97509
2.1958916187286377	41265521.81764871
2.1990041732788086	37863823.24808536
2.2021119594573975	34708504.893470824
2.2052149772644043	32629787.271870174
2.208312749862671	32550194.702255268
2.2114057540893555	34170705.727020785
2.214493751525879	36057899.11694812
2.217576742172241	36647263.7708242
2.2206547260284424	36174901.61032288
2.2237277030944824	36064172.127470136
2.2267956733703613	35623893.74726044
2.2298583984375	34865311.19203677
2.2329163551330566	34383233.22855187
2.235969066619873	33710078.57015803
2.2390167713165283	32777435.173906453
2.2420592308044434	31504769.158612106
2.2450966835021973	30436417.58391078
2.248128890991211	30061467.38364899
2.2511560916900635	30105466.08915816
2.254178285598755	30026190.00226029
2.257194995880127	29885105.424289055
2.260206699371338	29857776.418825515
2.2632133960723877	29431188.482632954
2.266214609146118	28714640.60469467
2.2692108154296875	28192472.98583747
2.2722020149230957	28125782.087536387
2.2751877307891846	28277729.808702204
2.278168201446533	27912302.791658726
2.2811436653137207	27059063.935425587
2.284113883972168	26340886.106786475
2.287078857421875	25796374.192014106
2.290038824081421	24278605.97588054
2.2929933071136475	21357811.323777676
2.295942783355713	18835278.41920522
2.298887014389038	18302187.342491426
2.301826238632202	19055865.422198907
2.304760217666626	19968001.47345858
2.3076889514923096	20856616.388591796
2.310612440109253	21441228.89394571
2.3135311603546143	20998076.470154442
2.3164443969726562	18762870.618141994
2.319352865219116	16480615.941139033
2.322256088256836	15518392.608360128
2.3251543045043945	15101369.958078558
2.328047275543213	15189781.38577347
2.330935478210449	15539643.861166308
2.3338186740875244	15886209.103963206
2.3366971015930176	16174199.730011024
2.3395702838897705	16292126.212098926
2.3424389362335205	16480320.22784077
2.3453025817871094	17028428.14580446
2.348161458969116	17557690.912369274
2.351015567779541	17334683.5508075
2.353865146636963	17374458.851850156
2.3567099571228027	17923386.081295677
2.3595502376556396	18153753.870162323
2.3623859882354736	18532807.070825126
2.3652172088623047	18861479.276193805
2.368043899536133	17969651.92327427
2.370866537094116	16004734.095896266
2.3736846446990967	15522525.75489919
2.3764986991882324	16079565.272340272
2.3793084621429443	15844548.133985842
2.3821144104003906	15321830.57629712
2.384916305541992	15379447.442601886
2.387714147567749	16545410.522407753
2.3905084133148193	17691014.351323016
2.393299102783203	17949086.09187635
2.3960859775543213	18196479.909928165
2.398869514465332	18913497.381763406
2.4016497135162354	19342101.530354682
2.4044265747070312	19460985.328383613
2.407200336456299	18934286.470581755
2.409970998764038	18365914.08818565
2.4127390384674072	18550520.269981388
2.415503978729248	18243343.223792855
2.418266534805298	17720344.150873642
2.4210267066955566	18076173.56285519
2.4237842559814453	18249402.78528592
2.426539897918701	17805783.177392207
2.429293394088745	18009365.85007821
2.4320452213287354	17980874.241168402
2.4347951412200928	16741387.691009605
2.4375438690185547	16850456.87410779
2.440291166305542	18023335.296141285
2.443037271499634	17267836.553390875
2.445782423019409	15770052.693330005
2.4485268592834473	15471687.166824322
2.451270818710327	14963166.72860675
2.454014539718628	14434685.020810071
2.4567582607269287	16036454.99007772
2.4595019817352295	16519185.025403094
2.4622461795806885	16133366.06558865
2.4649908542633057	16566026.047294093
2.4677364826202393	14989365.222382385
2.4704833030700684	13138434.641139964
2.473231554031372	12181666.216663662
2.4759814739227295	12047164.574208045
2.4787333011627197	12508201.554031234
2.481487512588501	12631111.452309433
