#wavelength	surface flux
0.6450077295303345	3463053.268383182
0.6472567915916443	5172695.918912112
0.6494921445846558	6146316.991358058
0.6517150402069092	6412321.262473845
0.6539263725280762	6621820.500015777
0.6561272740364075	6708377.290810102
0.6583186388015747	6779534.657256906
0.6605015397071838	6893826.302920494
0.6626768708229065	7002995.631682161
0.6648455858230591	7063052.402536528
0.6670085787773132	7117391.96388677
0.6691668033599854	7182898.7356381705
0.6713210344314575	7263464.134397015
0.6734722256660461	7435807.02693475
0.6756211519241333	7692315.793385572
0.6777685880661011	7923065.993664382
0.6799154281616211	8107733.985906043
0.6820623278617859	8287451.374797087
0.6842101216316223	8404984.754628504
0.6863595843315125	8432009.712317534
0.688511312007904	8434459.24764122
0.6906660795211792	8547829.198476827
0.6928245425224304	8873301.522926187
0.6949873566627502	9275652.09736071
0.6971551775932312	9552064.93570219
0.6993286609649658	9781978.45975405
0.7015084028244019	10224307.282497765
0.7036949396133423	10733150.850895824
0.7058889269828796	10828942.76960573
0.7080909013748169	10668363.49120102
0.710301399230957	10677838.08650259
0.712520956993103	10821680.328739408
0.7147500514984131	11098518.52827369
0.7169892191886902	11620628.14552409
0.7192389369010925	12240891.821455324
0.7214996814727783	12852816.134331848
0.723771870136261	13642601.452743098
0.7260559797286987	14574059.841318715
0.7283523678779602	15494341.912106998
0.7306615710258484	16449481.179495992
0.7329838871955872	17053983.08051961
0.7353196740150452	16870955.820229836
0.7376693487167358	16246743.06122713
0.7400332689285278	15546449.366829185
0.7424117922782898	14932259.171842072
0.7448052167892456	14541806.679523885
0.7472138404846191	14489766.565461151
0.7496379613876343	14772693.157481577
0.7520779371261597	15184776.473376468
0.7545340061187744	15650241.11603441
0.7570064663887024	15893016.136823572
0.7594954967498779	15576808.332082309
0.7620013952255249	13877489.990744215
0.7645244002342224	9297939.219981018
0.7670646905899048	4182781.1427744026
0.7696225643157959	3280716.9475421235
0.7721980810165405	7457081.320453114
0.7747915983200073	13609092.499277472
0.7774031162261963	17741546.366201404
0.7800329327583313	19434589.547332477
0.7826811671257019	21081010.860934373
0.7853479981422424	22308961.538283113
0.7880334854125977	22100002.48507699
0.7907378077507019	21290192.298240446
0.7934610247612	20418917.966762654
0.7962033748626709	20248969.0855357
0.7989648580551147	21076040.928520184
0.801745593547821	22621762.822725162
0.8045456409454346	24821411.67349964
0.8073651194572449	27823494.549685426
0.8102040886878967	32061243.609111667
0.8130625486373901	37166163.452374734
0.8159406185150146	40968187.46004774
0.8188382983207703	41532267.915264495
0.8217556476593018	41871086.30655304
0.8246926665306091	44195278.549481496
0.8276493549346924	45449576.81222593
0.8306257724761963	45440133.88430538
0.8336219191551208	46359946.94061932
0.8366377949714661	47839986.388283715
0.8396733403205872	48757642.04957305
0.8427285552024841	47040848.20781443
0.8458034992218018	42999015.4454706
0.8488980531692505	40964454.96156595
0.8520121574401855	41271842.02487717
0.8551458716392517	42074611.12497762
0.8582990765571594	42464769.69119044
0.8614717125892639	41846095.89869992
0.8646637797355652	41389586.382269084
0.8678751587867737	41672600.25088783
0.8711057901382446	42661496.95615859
0.8743556141853333	45046363.51181297
0.87762451171875	49153568.48973611
0.8809124231338501	54068301.432065375
0.8842192888259888	56950057.141237095
0.8875449895858765	56062668.66756603
0.8908893465995789	55881292.93204265
0.894252359867096	59017914.828060254
0.8976338505744934	65200339.65783359
0.9010337591171265	73409520.35221523
0.9044519662857056	81605333.640197
0.9078882932662964	92493676.58634935
0.9113426208496094	106771381.99154784
0.914814829826355	121213526.31114613
0.9183048605918884	127333130.53248633
0.9218124747276306	113956028.83014669
0.925337553024292	93816572.59802052
0.9288799166679382	84336195.1926044
0.9324395060539246	83619449.36290042
0.9360161423683167	87406199.64123683
0.9396095871925354	92707349.99989538
0.943219780921936	97908491.12329046
0.9468464851379395	102871996.50187518
0.9504896402359009	105420454.93452221
0.9541489481925964	103798932.05795787
0.9578243494033813	100238086.16292785
0.9615156054496765	98012398.86226316
0.9652225375175476	100408700.75844029
0.9689450263977051	106338310.48359343
0.9726828336715698	110914364.253686
0.9764357805252075	116501781.28066756
0.9802037477493286	125431806.77140853
0.983986496925354	135804829.3083271
0.9877838492393494	139576903.88802144
0.9915955662727356	129754426.32468086
0.9954215884208679	124305529.56092899
0.9992615580558777	126375373.87456606
1.0031154155731201	126213312.33474231
1.0069829225540161	131367182.20866966
1.0108637809753418	142348210.3886754
1.0147579908370972	150952355.4259765
1.018665075302124	157393761.7868397
1.022585153579712	162224809.3823654
1.0265177488327026	160046358.55461064
1.0304628610610962	161777902.38644496
1.0344202518463135	174318953.6171196
1.0383895635604858	187799877.1669362
1.0423706769943237	192377827.27113307
1.0463634729385376	180243214.36236838
1.0503677129745483	156617479.9577372
1.0543830394744873	137133157.46286076
1.058409333229065	130414187.21069524
1.0624464750289917	137647330.51224172
1.0664942264556885	154525848.199167
1.0705522298812866	176972082.04998618
1.0746204853057861	203380371.17116266
1.0786986351013184	229842271.90888342
1.0827864408493042	251868705.32847556
1.086883783340454	265261559.55753514
1.0909905433654785	269843600.6579176
1.0951062440872192	266960029.17754576
1.0992310047149658	256650529.69306615
1.10336434841156	236233902.30494815
1.1075061559677124	217840938.22843015
1.1116561889648438	217948668.58720347
1.115814208984375	226456969.70192692
1.1199802160263062	234734146.54678956
1.124153733253479	248833772.042314
1.1283347606658936	258723096.8028067
1.1325229406356812	249650491.2407417
1.1367181539535522	228636027.84947285
1.1409201622009277	223892173.08835846
1.145128846168518	250646229.0884099
1.1493438482284546	280319887.37309057
1.1535650491714478	290356616.90398896
1.1577922105789185	291068593.7705972
1.1620250940322876	287203026.35175925
1.1662636995315552	267758839.72172365
1.170507550239563	240401624.7113193
1.174756646156311	217916321.06589758
1.1790107488632202	205316591.68248945
1.1832695007324219	213789898.17296198
1.1875330209732056	230455349.89380178
1.191800832748413	241478095.49678493
1.1960728168487549	248904929.02147806
1.2003488540649414	259610959.66474763
1.2046287059783936	280076961.53384674
1.2089121341705322	300843316.1807084
1.2131990194320679	319983261.07401663
1.2174891233444214	338863344.617377
1.2217823266983032	353515587.00609463
1.2260783910751343	369337742.4005341
1.230377197265625	382496842.7819674
1.2346785068511963	384453737.9454206
1.238982081413269	365356618.8456765
1.2432878017425537	337989229.96428293
1.2475954294204712	334346644.879978
1.2519049644470215	338612133.769147
1.256216049194336	350944500.5971457
1.2605286836624146	375046820.1741442
1.2648425102233887	390892372.99214405
1.2691574096679688	402747061.5443021
1.2734732627868652	411387190.5016779
1.2777899503707886	418692753.25816137
1.2821072340011597	422149571.8522391
1.2864248752593994	417119362.5831879
1.2907428741455078	415080819.5955218
1.2950609922409058	424205956.4090351
1.2993791103363037	435817429.0226999
1.303696870803833	441897475.87656915
1.3080145120620728	438406044.131935
1.3123314380645752	429166555.8470064
1.3166478872299194	423696030.54136264
1.3209635019302368	414810032.7267619
1.3252781629562378	389454279.781464
1.3295916318893433	337118345.1291913
1.3339040279388428	262329395.97513393
1.3382149934768677	206084597.00265896
1.3425244092941284	185135759.586752
1.3468321561813354	177445819.99425974
1.3511382341384888	170758256.3516911
1.3554422855377197	165269544.95984954
1.3597444295883179	165243405.58010173
1.3640443086624146	169131140.45308918
1.3683418035507202	170705178.23833248
1.3726370334625244	170997713.80483767
1.3769296407699585	176501669.21635365
1.381219506263733	182759089.8018256
1.3855066299438477	184011453.66306698
1.3897908926010132	180502168.96759206
1.3940720558166504	174421262.90208477
1.3983501195907593	170339103.40440083
1.4026249647140503	169633824.37743273
1.4068963527679443	167459265.5713906
1.4111642837524414	162360820.75580832
1.4154287576675415	158838833.44028836
1.419689416885376	156841057.2504742
1.4239463806152344	154895832.46449542
1.4281994104385376	155077413.94532728
1.4324485063552856	158432159.17143786
1.436693549156189	162487118.4011231
1.440934419631958	165689420.01601914
1.4451709985733032	168936697.32373545
1.449403166770935	174680978.54180995
1.453631043434143	181662357.6325594
1.4578542709350586	186359567.2941385
1.4620729684829712	187504104.90855846
1.4662868976593018	186462664.73550037
1.4704961776733398	186059966.22424844
1.4747005701065063	188518252.3832262
1.4788999557495117	192862889.1598446
1.4830944538116455	197125716.1807915
1.4872838258743286	200499852.06953505
1.491468071937561	202426324.67210162
1.4956470727920532	205470555.38233295
1.4998208284378052	209603873.64911294
1.5039892196655273	213988125.3429089
1.5081522464752197	219431784.7943763
1.5123097896575928	225516927.15002504
1.5164618492126465	230279927.53017125
1.5206083059310913	234878267.11472514
1.5247491598129272	239687866.76353362
1.5288842916488647	243643169.5138893
1.5330137014389038	248293900.48447612
1.5371372699737549	253790114.02076736
1.541254997253418	259728464.2397495
1.545366883277893	266521536.3676488
1.5494728088378906	273595303.30039513
1.5535727739334106	278529212.06189996
1.5576666593551636	281096596.86351377
1.561754584312439	286485301.2141084
1.5658363103866577	296004342.0034731
1.5699119567871094	304883845.4665479
1.5739814043045044	312085100.5186008
1.5780447721481323	317386758.76944375
1.582101821899414	323397469.1537764
1.5861525535583496	332374227.0765342
1.5901970863342285	340533421.2695435
1.5942351818084717	347304393.1846271
1.5982669591903687	353956604.6180166
1.6022924184799194	360253198.7207521
1.606311559677124	367172916.8089486
1.6103241443634033	373537165.74088675
1.6143304109573364	380124792.8427903
1.6183301210403442	386804319.0290552
1.6223233938217163	392930665.249402
1.6263102293014526	399228025.1184893
1.6302905082702637	404274346.47247416
1.634264349937439	409933588.7724452
1.638231635093689	416263392.7346177
1.6421923637390137	421382508.25859
1.646146535873413	426607762.18939173
1.6500942707061768	429594200.58565617
1.6540353298187256	432225157.1673921
1.6579699516296387	435321130.80052936
1.661897897720337	438141264.5204282
1.6658192873001099	443557230.84975284
1.6697341203689575	447198239.37272966
1.6736423969268799	450047298.4364861
1.677544116973877	454373891.5701405
1.6814392805099487	456209747.3666066
1.6853278875350952	453051303.9567106
1.6892099380493164	446634503.16955394
1.6930854320526123	437605755.5518539
1.696954369544983	425909861.9443876
1.7008168697357178	417491552.2943632
1.7046726942062378	409022391.4637823
1.708522081375122	394154732.43523586
1.712364912033081	374304763.08146703
1.7162011861801147	353015910.8054835
1.7200311422348022	340259351.46909547
1.723854422569275	335930153.8985282
1.7276713848114014	328487561.7608959
1.731481909751892	316743886.7711589
1.7352858781814575	305918392.61167175
1.7390835285186768	298077895.1284371
1.7428747415542603	289984833.2535506
1.7466596364974976	280809830.4244217
1.7504380941390991	273783545.61381364
1.7542102336883545	265003348.94930318
1.7579760551452637	255461126.26377904
1.7617355585098267	251358087.55942142
1.7654887437820435	247148495.71802092
1.7692357301712036	237981820.84916934
1.7729763984680176	228622437.84717238
1.776710867881775	222554989.40644696
1.7804391384124756	218729585.70915672
1.7841613292694092	212371089.36080897
1.7878772020339966	206124792.73939016
1.7915871143341064	203322509.29807726
1.7952908277511597	201670607.31894994
1.7989884614944458	197629712.2040658
1.8026801347732544	191463907.00514612
1.806365728378296	188372516.3219298
1.8100452423095703	188060133.6412952
1.8137187957763672	191514467.2327002
1.817386507987976	190464650.47645116
1.8210482597351074	186396391.43875638
1.8247040510177612	188778030.15437543
1.828354001045227	189167262.5217173
1.8319982290267944	185915999.0565242
1.8356364965438843	183434777.65443477
1.8392690420150757	180747494.46731162
1.8428958654403687	175034201.66512728
1.8465168476104736	168351487.302244
1.8501322269439697	168148821.49440095
1.8537418842315674	167650118.87692046
1.8573459386825562	158155567.3718301
1.860944390296936	151623270.25860256
1.864537239074707	155555548.3181309
1.8681244850158691	162808692.36147907
1.871706247329712	166975734.02899635
1.8752825260162354	167359238.21396282
1.8788533210754395	169717833.88757303
1.8824186325073242	177194456.71130198
1.8859784603118896	182730255.51656663
1.8895330429077148	181668449.5007308
1.8930821418762207	180221652.17852113
1.8966259956359863	184662569.81340632
1.9001644849777222	190336155.84538817
1.9036977291107178	191116251.80305845
1.9072256088256836	190181508.19804347
1.9107483625411987	190449568.67469993
1.9142658710479736	191553626.29075035
1.9177782535552979	191108638.23345628
1.9212853908538818	188675258.23622096
1.9247875213623047	187476559.64851716
1.9282845258712769	186953421.67381722
1.9317764043807983	184852224.50685123
1.9352631568908691	182168880.25701815
1.9387450218200684	176686001.29254696
1.942221760749817	174036057.27783534
1.9456936120986938	177578459.23755273
1.9491604566574097	179008212.1315742
1.952622413635254	176272543.48724553
1.956079363822937	174853665.85779485
1.959531545639038	176548745.66515872
1.962978720664978	176522521.2831131
1.966421127319336	177084287.6532374
1.9698586463928223	178472228.9529284
1.9732913970947266	175289351.2971598
1.9767193794250488	171119630.37952712
1.9801424741744995	170572449.28444073
1.9835609197616577	172435841.6716131
1.9869745969772339	172934091.8999404
1.990383505821228	171306541.3537839
1.9937876462936401	173268339.5763785
1.9971871376037598	173992789.52053693
2.000581979751587	173205225.81728375
2.003972291946411	176154625.32557106
2.007357597351074	176928888.2036186
2.0107386112213135	176424634.57114512
2.0141148567199707	178179297.0650402
2.017486572265625	178849507.6935004
2.0208535194396973	182066531.6297496
2.0242159366607666	185839612.00422326
2.027573823928833	184267649.40711537
2.0309269428253174	185833297.97535202
2.034275770187378	190591121.3794956
2.0376198291778564	192085314.149694
2.040959596633911	192307400.1485262
2.044294595718384	193642393.23966613
2.0476250648498535	196014244.4809465
2.0509510040283203	197152826.66084749
2.054272413253784	198612048.1130299
2.057589530944824	203656721.46154583
2.0609018802642822	204669645.3490454
2.0642096996307373	202793035.80188987
2.0675129890441895	207069319.35670334
2.0708119869232178	210388748.2807285
2.074106216430664	210053927.36434096
2.0773961544036865	212356990.60660183
2.080681324005127	214809310.6896756
2.0839622020721436	215814496.48636702
2.087238311767578	217804275.50567445
2.090510129928589	221065813.98425224
2.0937774181365967	222912865.4178503
2.0970399379730225	223574619.66328457
2.1002981662750244	226330777.722094
2.1035518646240234	228704755.04476836
2.1068007946014404	229482637.80910963
2.1100454330444336	231649830.15795362
2.1132853031158447	235247820.62589732
2.116520881652832	236070033.994427
2.1197516918182373	236720651.21380866
2.1229779720306396	240507171.7495094
2.12619948387146	241711063.8190333
2.1294167041778564	241136607.36408073
2.132629156112671	244468069.42495856
2.1358368396759033	247651121.8294515
2.139039993286133	246392852.21407202
2.1422386169433594	247707195.15983665
2.145432472229004	253001345.60792848
2.1486217975616455	252671832.57335788
2.151806354522705	249774158.86721158
2.1549863815307617	251571091.2651203
2.1581614017486572	254335884.5367185
2.16133189201355	254929262.66060373
2.1644976139068604	255496229.527977
2.167658567428589	257702698.35065004
2.1708147525787354	257907343.85236105
2.173966407775879	255506443.3286577
2.1771130561828613	253687111.88020813
2.1802549362182617	254405433.49073794
2.183391809463501	255717739.83974072
2.1865241527557373	255904356.37954724
2.1896514892578125	256687885.27391353
2.1927738189697266	256430096.6526566
2.1958916187286377	255951130.41611758
2.1990041732788086	256048526.04817474
2.2021119594573975	254105787.51813877
2.2052149772644043	252228022.58258137
2.208312749862671	252964930.09974387
2.2114057540893555	254961433.83936936
2.214493751525879	255421841.9900314
2.217576742172241	252080553.06401604
2.2206547260284424	249609753.96969518
2.2237277030944824	252528217.61024058
2.2267956733703613	253512292.63037854
2.2298583984375	252023773.54073635
2.2329163551330566	250704654.2087935
2.235969066619873	248643036.23734483
2.2390167713165283	249812715.6002818
2.2420592308044434	250632266.89360082
2.2450966835021973	249950778.23382232
2.248128890991211	249888125.4341625
2.2511560916900635	248780860.8734232
2.254178285598755	247224266.29098564
2.257194995880127	246913032.61559615
2.260206699371338	246805095.72713354
2.2632133960723877	244243589.66474465
2.266214609146118	242645574.74134925
2.2692108154296875	242468941.39734253
2.2722020149230957	242221688.84202656
2.2751877307891846	243642646.95291165
2.278168201446533	242001012.46070954
2.2811436653137207	238713970.27331486
2.284113883972168	239964670.70790225
2.287078857421875	242821572.75182003
2.290038824081421	236177585.18701476
2.2929933071136475	211006753.87686375
2.295942783355713	188192298.32910427
2.298887014389038	187277846.33098602
2.301826238632202	194534066.35736093
2.304760217666626	198709224.8307743
2.3076889514923096	199635763.726348
2.310612440109253	198317987.78729892
2.3135311603546143	197444934.4364085
2.3164443969726562	198242630.70859897
2.319352865219116	196431276.3811894
2.322256088256836	185276350.95941913
2.3251543045043945	176053735.04554194
2.328047275543213	177847938.23213878
2.330935478210449	181537770.07912958
2.3338186740875244	184077434.7394575
2.3366971015930176	184605111.5934219
2.3395702838897705	182371032.9922452
2.3424389362335205	181763297.68364885
2.3453025817871094	185463067.51481038
2.348161458969116	188292792.43431604
2.351015567779541	180180060.02755812
2.353865146636963	169565398.18403468
2.3567099571228027	167967025.05389506
2.3595502376556396	169019760.39470133
2.3623859882354736	170513366.66157082
2.3652172088623047	171925495.71181124
2.368043899536133	171761483.6576639
2.370866537094116	173640088.22346896
2.3736846446990967	175785098.3254651
2.3764986991882324	173751521.0937104
2.3793084621429443	170093441.92840835
2.3821144104003906	165039528.78409067
2.384916305541992	159544186.05927333
2.387714147567749	159910932.49351448
2.3905084133148193	164222114.68706712
2.393299102783203	165401201.20466873
2.3960859775543213	164125949.52345422
2.398869514465332	162041404.90753648
2.4016497135162354	159204752.10822943
2.4044265747070312	157738215.21341243
2.407200336456299	154280607.76534063
2.409970998764038	149701838.36250034
2.4127390384674072	148198447.47191367
2.415503978729248	146995403.09331775
2.418266534805298	145235360.81031045
2.4210267066955566	144624371.01765576
2.4237842559814453	143419893.1643318
2.426539897918701	140679536.92552978
2.429293394088745	139426058.69613898
2.4320452213287354	137661795.4130255
2.4347951412200928	133723645.96858467
2.4375438690185547	133228846.00686854
2.440291166305542	134741505.69906875
2.443037271499634	131723765.6657304
2.445782423019409	127970928.76818724
2.4485268592834473	126771668.9843109
2.451270818710327	122936840.8284462
2.454014539718628	119460790.35644726
2.4567582607269287	124620322.78598621
2.4595019817352295	125366683.42736948
2.4622461795806885	122420015.7457814
2.4649908542633057	124146901.32112579
2.4677364826202393	120252505.76157865
2.4704833030700684	114847676.12622494
2.473231554031372	110502422.19929293
