#wavelength	surface flux
0.6450077295303345	3027959.336931784
0.6472567915916443	4548648.047773173
0.6494921445846558	5455293.500627012
0.6517150402069092	5716695.562642275
0.6539263725280762	5944677.674797256
0.6561272740364075	6125883.787869209
0.6583186388015747	6298487.40074917
0.6605015397071838	6493065.297795023
0.6626768708229065	6691193.905572111
0.6648455858230591	6868401.38152358
0.6670085787773132	7034103.544541383
0.6691668033599854	7176693.554468668
0.6713210344314575	7327909.375414211
0.6734722256660461	7568393.0862489585
0.6756211519241333	7851156.991696189
0.6777685880661011	8093739.396011712
0.6799154281616211	8310651.627115412
0.6820623278617859	8523067.398894237
0.6842101216316223	8708842.450605541
0.6863595843315125	8839179.464619
0.688511312007904	8910590.249545962
0.6906660795211792	9010491.0545722
0.6928245425224304	9211154.33728554
0.6949873566627502	9456439.691483045
0.6971551775932312	9657421.729112023
0.6993286609649658	9855936.869249456
0.7015084028244019	10193477.476790212
0.7036949396133423	10560861.690974265
0.7058889269828796	10707852.912432848
0.7080909013748169	10741108.958214609
0.710301399230957	10871577.080090145
0.712520956993103	11081118.486541012
0.7147500514984131	11355490.924544748
0.7169892191886902	11726470.4218383
0.7192389369010925	12119974.01191171
0.7214996814727783	12490188.977796257
0.723771870136261	12918175.819636868
0.7260559797286987	13383657.560215898
0.7283523678779602	13825079.2800483
0.7306615710258484	14260449.346388029
0.7329838871955872	14535188.898616668
0.7353196740150452	14490665.710286977
0.7376693487167358	14261117.054139271
0.7400332689285278	13967488.61908683
0.7424117922782898	13690326.441317426
0.7448052167892456	13503989.476294272
0.7472138404846191	13474114.402251974
0.7496379613876343	13564182.492300102
0.7520779371261597	13619983.790067283
0.7545340061187744	13583905.420051012
0.7570064663887024	13253995.761751989
0.7594954967498779	12302469.29499899
0.7620013952255249	9930369.483472904
0.7645244002342224	5610399.640604454
0.7670646905899048	1786977.904252156
0.7696225643157959	1009442.439278297
0.7721980810165405	3538584.0242608716
0.7747915983200073	8651910.94069348
0.7774031162261963	13159341.673233047
0.7800329327583313	15296777.653147861
0.7826811671257019	17285272.13389955
0.7853479981422424	19157472.144959208
0.7880334854125977	19732162.1126424
0.7907378077507019	19622492.47346092
0.7934610247612	19177684.321411338
0.7962033748626709	19355238.70820494
0.7989648580551147	20602285.603135347
0.801745593547821	22216889.574136782
0.8045456409454346	23998834.439941913
0.8073651194572449	25950093.872433007
0.8102040886878967	28065480.67599694
0.8130625486373901	30244512.739682153
0.8159406185150146	31877930.55941793
0.8188382983207703	32491064.102074914
0.8217556476593018	33116850.222310636
0.8246926665306091	34359183.43830536
0.8276493549346924	35252650.140452735
0.8306257724761963	35767566.83963549
0.8336219191551208	36541694.26940599
0.8366377949714661	37477807.565043636
0.8396733403205872	38241027.11313761
0.8427285552024841	38198684.168473765
0.8458034992218018	37435330.40918929
0.8488980531692505	37106022.421877764
0.8520121574401855	37377100.750316195
0.8551458716392517	38304900.35862591
0.8582990765571594	39214813.0990887
0.8614717125892639	39139934.685975604
0.8646637797355652	39105458.919606544
0.8678751587867737	39814508.782544374
0.8711057901382446	40901670.7394136
0.8743556141853333	42452280.89437316
0.87762451171875	44580820.99030928
0.8809124231338501	46886161.04454024
0.8842192888259888	48429126.209877625
0.8875449895858765	48658013.39501025
0.8908893465995789	48887414.7560052
0.894252359867096	50051217.17182873
0.8976338505744934	52610764.97745274
0.9010337591171265	56039198.197209805
0.9044519662857056	59204887.24807544
0.9078882932662964	62982077.31988161
0.9113426208496094	67698526.80716865
0.914814829826355	72565925.49503899
0.9183048605918884	75108869.94049679
0.9218124747276306	71835222.46898493
0.925337553024292	66056270.52601383
0.9288799166679382	62988733.68395687
0.9324395060539246	63055377.44149947
0.9360161423683167	65275347.09972958
0.9396095871925354	68091235.56770426
0.943219780921936	70532506.02270962
0.9468464851379395	72672984.21726955
0.9504896402359009	74221814.01445906
0.9541489481925964	74654135.61223912
0.9578243494033813	74470693.18588233
0.9615156054496765	74673776.44876963
0.9652225375175476	76377102.55423406
0.9689450263977051	79150675.13260958
0.9726828336715698	81302298.05037597
0.9764357805252075	83667842.95700404
0.9802037477493286	87123052.68718539
0.983986496925354	91099593.28285585
0.9877838492393494	93141234.57555509
0.9915955662727356	90928008.92849492
0.9954215884208679	89904955.18564324
0.9992615580558777	91135674.57331301
1.0031154155731201	91818402.47978012
1.0069829225540161	94373856.61541042
1.0108637809753418	98813217.97729523
1.0147579908370972	102485584.97123289
1.018665075302124	105481648.30852415
1.022585153579712	108012991.14051399
1.0265177488327026	108318457.40148205
1.0304628610610962	109860641.77055101
1.0344202518463135	114933374.38619326
1.0383895635604858	120421674.09854467
1.0423706769943237	123052735.98255327
1.0463634729385376	120173089.01986492
1.0503677129745483	113404735.8791687
1.0543830394744873	107846282.87746546
1.058409333229065	106461344.88286392
1.0624464750289917	109837762.43957587
1.0664942264556885	116533911.73793006
1.0705522298812866	125050824.19840415
1.0746204853057861	134888932.90059102
1.0786986351013184	144845316.4975952
1.0827864408493042	153335168.2662971
1.086883783340454	158653547.8714479
1.0909905433654785	160568548.3271609
1.0951062440872192	159574746.37234333
1.0992310047149658	155768706.5213096
1.10336434841156	148114334.12393415
1.1075061559677124	140969230.41597486
1.1116561889648438	140642274.2359818
1.115814208984375	143915225.86173874
1.1199802160263062	147834777.2126675
1.124153733253479	154489960.42831728
1.1283347606658936	159183315.09771842
1.1325229406356812	155529956.83026633
1.1367181539535522	148108526.50372115
1.1409201622009277	148198958.55027294
1.145128846168518	159665913.025267
1.1493438482284546	171802967.7991299
1.1535650491714478	176263957.33814284
1.1577922105789185	176993411.2618555
1.1620250940322876	176128936.31962004
1.1662636995315552	169322323.39180535
1.170507550239563	159885517.81903043
1.174756646156311	152745445.7336589
1.1790107488632202	149749594.30814958
1.1832695007324219	155223104.58274657
1.1875330209732056	163469612.5075271
1.191800832748413	168906305.8859636
1.1960728168487549	172604753.60681656
1.2003488540649414	177351965.08302107
1.2046287059783936	185815875.07841077
1.2089121341705322	194443624.61658803
1.2131990194320679	202570550.19352126
1.2174891233444214	210707975.58230138
1.2217823266983032	217270556.44462895
1.2260783910751343	224472443.39261824
1.230377197265625	230669512.56822208
1.2346785068511963	232259938.3203
1.238982081413269	225141882.92750543
1.2432878017425537	214498306.6923425
1.2475954294204712	213492498.78835902
1.2519049644470215	215772587.13487777
1.256216049194336	221501285.25770086
1.2605286836624146	232173828.32063216
1.2648425102233887	239515512.67489225
1.2691574096679688	245186769.49622312
1.2734732627868652	249375827.77392146
1.2777899503707886	253025956.17028865
1.2821072340011597	255057831.21141568
1.2864248752593994	253235094.1885336
1.2907428741455078	252604522.33260632
1.2950609922409058	256883289.9327298
1.2993791103363037	262255064.58537158
1.303696870803833	265293841.75941342
1.3080145120620728	264349596.63966355
1.3123314380645752	260937340.2903767
1.3166478872299194	258884478.709504
1.3209635019302368	255026288.76426622
1.3252781629562378	243656808.69223017
1.3295916318893433	219172605.2184487
1.3339040279388428	182280659.37317866
1.3382149934768677	153071077.7614915
1.3425244092941284	141358306.10618532
1.3468321561813354	136057627.15953028
1.3511382341384888	130915977.39393291
1.3554422855377197	126930144.42580022
1.3597444295883179	127359082.10332131
1.3640443086624146	131218615.74353847
1.3683418035507202	133128076.08434999
1.3726370334625244	133483089.96816984
1.3769296407699585	137242845.5317573
1.381219506263733	141312490.95030624
1.3855066299438477	142438315.44435903
1.3897908926010132	140899839.4092607
1.3940720558166504	137077511.38039663
1.3983501195907593	134118621.95344284
1.4026249647140503	133600452.60240182
1.4068963527679443	132680690.14441507
1.4111642837524414	129728170.12058759
1.4154287576675415	127380316.71505383
1.419689416885376	125932181.99191779
1.4239463806152344	124629730.4459418
1.4281994104385376	125108144.5023747
1.4324485063552856	128076995.37293746
1.436693549156189	131522527.69803031
1.440934419631958	134123718.27239579
1.4451709985733032	136747459.99409103
1.449403166770935	141343670.09389606
1.453631043434143	147059275.1855083
1.4578542709350586	151309851.2895141
1.4620729684829712	152721268.49352556
1.4662868976593018	152481725.5150994
1.4704961776733398	153056320.0937107
1.4747005701065063	155386497.62397757
1.4788999557495117	158434326.30116314
1.4830944538116455	161209062.83753207
1.4872838258743286	163641030.05807513
1.491468071937561	165517862.6574682
1.4956470727920532	168070054.08525395
1.4998208284378052	171165642.8281842
1.5039892196655273	174384318.76103556
1.5081522464752197	178011479.2922136
1.5123097896575928	181922111.08898434
1.5164618492126465	185334027.19052023
1.5206083059310913	188735267.91656458
1.5247491598129272	192199798.76749575
1.5288842916488647	195043295.02996236
1.5330137014389038	198159599.8203355
1.5371372699737549	201754225.85115752
1.541254997253418	205362999.8245487
1.545366883277893	209203848.3578662
1.5494728088378906	213055924.86883083
1.5535727739334106	215641660.9757429
1.5576666593551636	216804177.45781022
1.561754584312439	219263806.22509623
1.5658363103866577	224043875.91364276
1.5699119567871094	228695678.11898297
1.5739814043045044	232324358.45014042
1.5780447721481323	234729838.9794805
1.582101821899414	237419283.3172826
1.5861525535583496	241612173.0164705
1.5901970863342285	245473029.5592503
1.5942351818084717	248659431.35986465
1.5982669591903687	251723888.12797517
1.6022924184799194	254607053.53042203
1.606311559677124	257830552.60643542
1.6103241443634033	260886486.24877268
1.6143304109573364	264011226.35162863
1.6183301210403442	267088056.01403758
1.6223233938217163	269886548.91511226
1.6263102293014526	272726132.40468425
1.6302905082702637	274931950.01936144
1.634264349937439	277443642.9455934
1.638231635093689	280367052.73727417
1.6421923637390137	282736171.93515706
1.646146535873413	285109297.88221854
1.6500942707061768	286533951.73798215
1.6540353298187256	287782269.22927076
1.6579699516296387	289177271.877352
1.661897897720337	290468402.44534254
1.6658192873001099	292987845.78100526
1.6697341203689575	294677426.645681
1.6736423969268799	296002205.55031466
1.677544116973877	298170011.8257771
1.6814392805099487	299324593.9976278
1.6853278875350952	298094552.8721649
1.6892099380493164	295193857.03848326
1.6930854320526123	291128885.26196074
1.696954369544983	285968445.3141307
1.7008168697357178	282456997.5083061
1.7046726942062378	278896396.5585691
1.708522081375122	272146262.43209213
1.712364912033081	262948935.92782086
1.7162011861801147	252956147.81701624
1.7200311422348022	246766010.30047438
1.723854422569275	244125459.37346596
1.7276713848114014	239904032.7376887
1.731481909751892	233941317.01754338
1.7352858781814575	228366253.71527466
1.7390835285186768	223827767.5316706
1.7428747415542603	219059718.4478098
1.7466596364974976	213844101.8572415
1.7504380941390991	209777463.9337046
1.7542102336883545	204969614.31863648
1.7579760551452637	199778705.098266
1.7617355585098267	197160069.49148694
1.7654887437820435	194146452.25562307
1.7692357301712036	188474893.58563548
1.7729763984680176	182736918.74561328
1.776710867881775	178613522.9753033
1.7804391384124756	175346335.66058573
1.7841613292694092	170714707.99711293
1.7878772020339966	167303149.3761737
1.7915871143341064	165888601.90916038
1.7952908277511597	164338358.37793893
1.7989884614944458	160871229.57584468
1.8026801347732544	156017989.68573478
1.806365728378296	153417406.40879473
1.8100452423095703	152774985.21730676
1.8137187957763672	155471527.94080496
1.817386507987976	154955852.66642463
1.8210482597351074	151827284.5968153
1.8247040510177612	153517278.89810503
1.828354001045227	153870186.56054416
1.8319982290267944	151815969.94927928
1.8356364965438843	149888921.06235057
1.8392690420150757	147398221.3279172
1.8428958654403687	142948162.09396246
1.8465168476104736	137556178.97816128
1.8501322269439697	137351039.4991899
1.8537418842315674	136960677.22809172
1.8573459386825562	128813279.08027506
1.860944390296936	122933522.10892841
1.864537239074707	125882745.00258401
1.8681244850158691	132170216.61547431
1.871706247329712	136224020.68819767
1.8752825260162354	137158439.853198
1.8788533210754395	139995275.16925478
1.8824186325073242	146752126.68591246
1.8859784603118896	151541872.47590193
1.8895330429077148	151184897.66200006
1.8930821418762207	150758261.6489919
1.8966259956359863	154594164.417315
1.9001644849777222	158691487.21392646
1.9036977291107178	159152950.6018109
1.9072256088256836	158960556.1257442
1.9107483625411987	159284539.81048927
1.9142658710479736	159904801.99941522
1.9177782535552979	159845665.2158911
1.9212853908538818	157669931.28083518
1.9247875213623047	156110267.86832672
1.9282845258712769	155417349.98347947
1.9317764043807983	153368218.63349995
1.9352631568908691	150416859.14663306
1.9387450218200684	144910129.63584435
1.942221760749817	142935981.52927837
1.9456936120986938	146719204.21859327
1.9491604566574097	148082369.87953466
1.952622413635254	145421667.55815697
1.956079363822937	143339391.44286254
1.959531545639038	144506933.5879034
1.962978720664978	145124509.0769654
1.966421127319336	146234794.0288891
1.9698586463928223	147544672.0778849
1.9732913970947266	144886277.44914111
1.9767193794250488	142359239.57492262
1.9801424741744995	142826320.92293707
1.9835609197616577	144872101.1301855
1.9869745969772339	145760905.99660495
1.990383505821228	144159724.8558653
1.9937876462936401	145571207.6233309
1.9971871376037598	146322471.00008044
2.000581979751587	146220721.51776484
2.003972291946411	149457137.0434592
2.007357597351074	150126812.09650072
2.0107386112213135	149873314.7758111
2.0141148567199707	151878846.81649968
2.017486572265625	152672949.15056622
2.0208535194396973	156036452.79118285
2.0242159366607666	159989857.30965793
2.027573823928833	158629790.81356794
2.0309269428253174	159906696.2767804
2.034275770187378	164593629.45159748
2.0376198291778564	166536083.91107228
2.040959596633911	166979386.1588874
2.044294595718384	168298406.16748485
2.0476250648498535	170725107.3038009
2.0509510040283203	171963855.67075193
2.054272413253784	173247891.96162662
2.057589530944824	177826896.16011295
2.0609018802642822	179175882.5458511
2.0642096996307373	177891192.31421152
2.0675129890441895	181328685.1268194
2.0708119869232178	184012922.36342096
2.074106216430664	183944830.80024403
2.0773961544036865	185822991.34025708
2.080681324005127	187817394.1480791
2.0839622020721436	188705509.41430473
2.087238311767578	190227614.30215785
2.090510129928589	192605116.17687887
2.0937774181365967	194075929.9792969
2.0970399379730225	194691261.9348793
2.1002981662750244	196384519.64196014
2.1035518646240234	197782141.3445977
2.1068007946014404	198337838.3515567
2.1100454330444336	199688643.09805566
2.1132853031158447	201853630.68838182
2.116520881652832	202332357.23303264
2.1197516918182373	202743225.28789598
2.1229779720306396	205088681.19736013
2.12619948387146	205782835.16373876
2.1294167041778564	205243758.61164948
2.132629156112671	207183011.41376203
2.1358368396759033	209186561.57887188
2.139039993286133	208234951.87102923
2.1422386169433594	208602341.68935066
2.145432472229004	211521654.43953037
2.1486217975616455	211462944.37080982
2.151806354522705	209850134.35342166
2.1549863815307617	210704050.12500563
2.1581614017486572	212146665.99685082
2.16133189201355	212516510.19093364
2.1644976139068604	212707723.40482873
2.167658567428589	213671034.745557
2.1708147525787354	213702894.81277463
2.173966407775879	212330031.47599742
2.1771130561828613	211144053.29934457
2.1802549362182617	211422405.61720437
2.183391809463501	212083077.46402365
2.1865241527557373	212011380.66604385
2.1896514892578125	212420918.71316794
2.1927738189697266	212260078.3727731
2.1958916187286377	211643449.0301252
2.1990041732788086	211324589.15291026
2.2021119594573975	210122361.96073744
2.2052149772644043	209199027.70557353
2.208312749862671	209711141.63714746
2.2114057540893555	210794869.1437942
2.214493751525879	210954321.81117895
2.217576742172241	208563059.1004631
2.2206547260284424	206577319.0095397
2.2237277030944824	208269105.03139392
2.2267956733703613	209033413.93822294
2.2298583984375	208288394.65173626
2.2329163551330566	207519631.744464
2.235969066619873	206128874.69302076
2.2390167713165283	206568577.2956421
2.2420592308044434	206579287.39704648
2.2450966835021973	205881035.83368117
2.248128890991211	205916963.23176485
2.2511560916900635	205379719.26171774
2.254178285598755	204535844.29321796
2.257194995880127	204480836.58725157
2.260206699371338	204554864.29933685
2.2632133960723877	202662116.34381628
2.266214609146118	201011111.1951752
2.2692108154296875	200465801.34372565
2.2722020149230957	200424645.6091998
2.2751877307891846	201806125.60508922
2.278168201446533	200811796.3019317
2.2811436653137207	198343903.91195002
2.284113883972168	199129780.89404777
2.287078857421875	201131846.56063187
2.290038824081421	195894311.98487496
2.2929933071136475	176577605.38665816
2.295942783355713	159101742.07450658
2.298887014389038	158169104.52015236
2.301826238632202	163463034.82572693
2.304760217666626	166552821.9441155
2.3076889514923096	167002151.050225
2.310612440109253	166041439.52295882
2.3135311603546143	165687267.33249542
2.3164443969726562	166334079.46742874
2.319352865219116	164885617.58650675
2.322256088256836	156407847.1783039
2.3251543045043945	149928557.76863188
2.328047275543213	151771818.7615935
2.330935478210449	154732416.9052422
2.3338186740875244	157260272.21143916
2.3366971015930176	158061912.4811904
2.3395702838897705	155957898.338901
2.3424389362335205	155142253.98097157
2.3453025817871094	158429901.04786116
2.348161458969116	161156290.07292044
2.351015567779541	154852268.98295096
2.353865146636963	146738711.3288781
2.3567099571228027	145594660.12332296
2.3595502376556396	145954272.2756909
2.3623859882354736	146625948.52353248
2.3652172088623047	147422635.95742658
2.368043899536133	147124031.97814023
2.370866537094116	148582554.80420026
2.3736846446990967	150700562.6392871
2.3764986991882324	149377775.19827312
2.3793084621429443	146299696.52915153
2.3821144104003906	142242232.62104797
2.384916305541992	137686128.65537238
2.387714147567749	138153806.01312017
2.3905084133148193	142295567.73155674
2.393299102783203	143178832.57764122
2.3960859775543213	141924717.73029584
2.398869514465332	140759922.57888728
2.4016497135162354	138740911.22509015
2.4044265747070312	137384799.14066693
2.407200336456299	134157235.2723852
2.409970998764038	130034007.45987594
2.4127390384674072	128763497.2876622
2.415503978729248	127547581.88091989
2.418266534805298	125553085.22321184
2.4210267066955566	124940896.68676654
2.4237842559814453	124222271.59370252
2.426539897918701	121973401.29326415
2.429293394088745	120895098.61399935
2.4320452213287354	118832757.09436926
2.4347951412200928	114468729.62027772
2.4375438690185547	114184250.24787687
2.440291166305542	116250859.79669625
2.443037271499634	113140659.44608283
2.445782423019409	108740528.7514882
2.4485268592834473	107411666.34363003
2.451270818710327	103561894.69045892
2.454014539718628	99889832.47812943
2.4567582607269287	105899210.36428185
2.4595019817352295	107251097.96118872
2.4622461795806885	104066126.22757336
2.4649908542633057	105473378.37357631
2.4677364826202393	100793277.31691256
2.4704833030700684	94891461.27803196
2.473231554031372	90442891.6899407
