#wavelength	surface flux
0.3999985296548732	0.00038830541394624656
0.4039985149514219	5.8539538352836285e-05
0.4080385001009362	0.0010289897623775388
0.41211888510194555	0.004927443737526983
0.416240073952965	0.012770884241857848
0.4204024746924947	0.007830131780370076
0.42460649943941964	0.04802978869028688
0.4288525644338138	0.08809018282065488
0.43314109007815194	0.1443127127579176
0.4374725009789334	0.2214290138795713
0.4418472259887228	0.3246694616838275
0.44626569824860995	0.4620535723475258
0.4507283552310961	0.6366288142954667
0.45523563878340706	0.7532046975904806
0.4597879951712412	1.0544668379131303
0.4643858751229536	1.3338736693143487
0.4690297338741832	1.550350102468822
0.47372003121292494	1.7942734354940209
0.4784572315250542	2.02874774387005
0.48324180384030474	2.1786858326427803
0.4880742218787078	2.3811543522638092
0.49295496409749495	2.5561042719221185
0.4978845137384698	2.7420176484897527
0.5028633588758545	2.6942300972891826
0.5078919924646131	2.8355599932306124
0.5129709123892592	2.996884233820201
0.5181006215131518	3.187960074198072
0.5232816277282833	3.196910992125574
0.5285144440055661	3.1517064589324866
0.5337995884456219	3.0975627368373204
0.5391375843300781	2.8065631213100057
0.5445289601733789	2.603801979485638
0.5499742497751127	2.510564132193461
0.5554739922728638	2.3792912126431633
0.5610287321955925	2.098950254157671
0.5666390195175484	1.6380793756740701
0.5723054097127239	1.3103911486601274
0.5780284638098512	0.8604247512799663
0.5838087484479496	0.4578782708617614
0.5896468359324292	0.060977286788007165
0.5955433042917534	0.7601713233360025
0.601498737334671	2.2844468173316295
0.6075137247080177	5.496577838461842
0.6135888619550979	10.692979064129121
0.6197247505746488	17.79945526502304
0.6259219980803953	29.143272785416958
0.6321812180611992	46.05391472911571
0.6385030302418113	69.71459495448936
0.6448880605442294	82.90640902898602
0.6513369411496717	119.00610206341895
0.6578503105611685	172.05878941461577
0.6644288136667802	253.22939536301297
0.6710731018034479	297.6072363241703
0.6777838328214824	418.0361399095168
0.6845616711496972	448.40334065577684
0.6914072878611942	274.0924885724622
0.6983213607398061	298.57956276332084
0.7053045743472042	237.62067291091665
0.7123576200906763	270.6124932382779
0.719481196291583	46.52653585576166
0.726676008254499	47.186193534134574
0.7339427683370439	68.13109313587147
0.7412821960204143	100.52421526394436
0.7486950179806185	171.14323359878904
0.7561819681604247	138.91612950932412
0.7637437878420289	58.430965678761616
0.7713812257204492	56.00304455625337
0.7790950379776537	112.3597784131089
0.7868859883574303	248.36847094915757
0.7947548482410045	231.44204216736176
0.8027023967234147	403.0307800553633
0.8107294206906488	205.20692777360478
0.8188367148975553	210.600666184714
0.8270250820465308	384.47832266076296
0.8352953328669962	515.0847993500864
0.8436482861956661	1468.043535377216
0.8520847690576229	3039.2423859690475
0.8606056167481991	5096.976296142276
0.869211672915681	5975.9675797782465
0.8779037896448377	4084.8388448285054
0.8866828275412862	4396.8739980905475
0.8955496558166991	419.5135065848478
0.9045051523748662	2398.8570246229688
0.9135502038986147	961.0732205058232
0.922685705937601	957.3543068399797
0.931912562996977	0.4097245472423824
0.9412316886269468	6.69624308404959
0.9506440055132163	8.108413387474808
0.9601504455683483	8.69716364446647
0.9697519500240318	107.14793008040525
0.9794494695242721	138.8664929335565
0.9892439642195149	614.8376220719716
0.9991364038617101	1406.6411303768618
1.0091277679003272	1047.482631013198
1.0192190455793306	78.75120924886491
1.0294112360351237	194.51438388590148
1.039705348395475	235.67898024511248
1.0501024018794298	694.648350948362
1.060603425898224	2064.1088705062757
1.0712094601572064	1423.850377371145
1.0819215547587784	1352.3983015325753
1.0927407703063663	389.9426890716923
1.1036681780094297	79.10065106664078
1.1147048597895242	0.515569689367181
1.1258519083874194	0.18007260385018206
1.1371104274712935	0.9150562561550405
1.1484815317460066	0.05210968276848993
1.1599663470634667	0.12694787638604496
1.1715660105341013	0.46369953020506366
1.1832816706394425	8.968296116783469
1.1951144873458368	13.81460388839422
1.2070656322192952	10.13518574708355
1.219136288541488	14.718271024525585
1.231327651426903	157.8428525408834
1.2436409279411722	876.7832236449756
1.2560773372205838	1296.3552305017904
1.2686381105927897	4789.220008662495
1.2813244916987176	834.0636888839906
1.2941377366157047	150.9448587891009
1.3070791139818618	77.77451984035433
1.3201499051216805	27.139863285863413
1.333351404172897	5.454112476756385
1.3466849182146263	0.020928348051813324
1.3601517673967725	0.0001340533088404684
1.3737532850707401	0.003988797961627394
1.3874908179214476	0.0014569052472932162
1.401365726100662	0.004857125725108601
1.4153793833616688	0.041526118028528514
1.4295331771952855	0.012082874433331987
1.4438285089672382	0.19681129156269886
1.4582667940569107	6.0300209937229035
1.47284946199748	0.07821846404308819
1.4875779566174547	0.017933343256108354
1.5024537361836292	0.17632859682310106
1.5174782735454655	0.005706391139285504
1.5326530562809202	8.442132749585511
1.5479795868437294	1.390592999288751
1.5634593827121666	51.62847363244821
1.5790939765392884	386.2599692625498
1.5948849163046814	759.9551442212189
1.6108337654677283	276.90066432578953
1.6269421031224054	15.589117693633296
1.6432115241536296	10.804694227758633
1.6596436393951657	11.014436911998967
1.6762400757891174	9.17976756360874
1.6930024765470086	1.0863628938477778
1.7099325013124789	1.4844463763213558
1.7270318263256035	3.2533379926833557
1.7443021445888596	32.113451706606114
1.761745166034748	4.555785378771429
1.7793626176950958	31.407546970570976
1.7971562438720465	2.707317657963083
1.8151278063107674	2.0663695581053365
1.833279084373875	0.07129004910216427
1.8516118752176136	0.07482299585479721
1.8701279939697897	0.20492690736305993
1.8888292739094876	2.167757576452239
1.9077175666485826	0.07206456144707023
1.9267947423150684	0.13669582230881797
1.9460626897382192	0.2327426919977006
1.9655233166356012	1.108492079829698
1.9851785498019574	0.8306649439792941
2.005030335299977	3.689060638968187
2.0250806386529767	3.843996051215188
2.0453314450395066	12.700303573365584
2.0657847594899015	16.270638814857286
2.0864426070848006	18.24959514102381
2.107307033155649	17.353458558017998
2.128380103487205	18.019335314220136
2.149663904522077	15.498502177917041
2.171160543567298	11.904631609187119
2.1928721490029712	2.89372568564562
2.2148008704930007	0.4069882898937505
2.236948879197931	0.2569513985965324
2.2593183679899105	0.05460623209064574
2.281911551669809	0.17603114597580405
2.3047306671865075	0.22151619559438415
2.3277779738583724	0.050766293998788944
2.351055753596956	0.106682669764458
2.374566311132926	0.22020495152155187
2.398311974244255	0.41248358374626026
2.4222950939866976	0.9808404971257004
2.446518044926565	8.701268258802374
2.4709832253758304	19.494258108085784
2.495693057629589	30.103921812070126
2.520649988205885	14.355585493711057
2.5458564880879435	2.088315563975802
2.571315052968823	0.3271797831245265
2.5970282034985113	0.5196900889001715
2.6229984855334965	0.738541278763981
2.6492284703888314	2.697689340834944
2.6757207550927196	0.5713087851347984
2.7024779626436466	1.4363223274665928
2.7295027422700833	1.8402523049360673
2.7567977696927843	2.1877831177038423
2.784365747389712	2.1498998593110734
2.812209404863609	1.4874245414540226
2.8403314989122452	5.702784563067511
2.868734813901368	11.759399436148833
2.8974221620403813	13.919020987011223
2.9263963836607854	30.3279268887276
2.955660347497393	25.720296345003252
2.9852169509723674	53.782895651040214
3.015069120482091	66.84254781497604
3.045219811686912	68.96115562106797
3.075672009803781	70.21232078916928
3.1064287299018187	45.123843761884864
3.137493017200837	383.0989551481039
3.168867947372845	65.81721894215805
3.200556626846574	6.816110841238835
3.2325621931150392	5.9494448305126655
3.26488781504619	6.783740923260428
3.297536693196652	14.963235480155076
3.3305120601286187	9.571480797298108
3.363817180729905	8.67194665003152
3.3974553525372038	18.874648959511912
3.4314299060625757	37.42575695751706
3.4657442051232015	60.5445919287062
3.500401647174434	123.37907689591388
3.535405663646178	72.511471629008
3.5707597202826404	145.90926167586375
3.6064673174854667	243.39908543668565
3.6425319906603213	629.6545263236594
3.678957310566924	1677.0434328898266
3.7157468836725935	2151.8555816570365
3.75290435250932	3428.22182888549
3.7904333960344125	1145.2502867733465
3.8283377299947574	8554.533732777849
3.866621107294704	3866.327834435333
3.9052873183676513	4406.458263995604
3.9443401915513285	5188.846172567575
3.9837835934668413	12425.881316746785
4.02362142940151	10017.026180619341
4.063857643695525	16070.69386507081
4.10449622013248	20634.981185296918
4.1455411823338055	38940.2953564391
4.186996594157144	33168.44425269012
4.228866560098715	24069.529769022938
4.271155225699702	74740.32148950655
4.313866777956699	58992.60930340373
4.357005445736266	77158.51903575174
4.400575500193629	79727.01102235177
4.4445812551955655	67594.00440796933
4.4890270677475215	75761.23069707892
4.533917338424996	82705.63562831236
4.579256511809246	87611.17640474814
4.625049076927338	72979.98444650763
4.671299567696612	56682.35938282934
4.718012563373578	69737.04013177179
4.765192689007313	79029.60334679285
4.8128446158973865	64133.70791961891
4.860973062056361	64403.11558745143
4.909582792676924	37166.46668031515
4.958678620603694	19436.632837959038
5.008265406809731	23428.909780939655
5.058348060877829	45681.22122764096
5.108931541486607	18457.028147247187
5.160020856901473	15792.419536648542
5.211621065470488	4713.896302984164
5.263737276125193	12877.31508985276
5.316374648886445	8217.97161005885
5.369538395375309	4933.715975049658
5.4232337793290615	1843.8851256484527
5.477466117122353	1762.01912200162
5.532240778293576	1717.0554400753003
5.587563186076513	1108.5166544392557
5.643438817937278	1241.1229710387727
5.69987320611665	1542.6436343508572
5.756871938177817	834.6161109940502
5.814440657559595	1048.9217100239796
5.87258506413519	1036.7824860434628
5.931310914776543	1252.9591237028444
5.990624023924308	1201.7472526406823
6.050530264163551	1169.5469213963631
6.111035566805187	884.0584101062183
6.172145922473239	851.8448180538387
6.233867381697972	1417.4374744737243
6.296206055514951	2299.960682856558
6.359168116070101	1756.127216848629
6.4227597972308015	1308.5025494285194
6.48698739520311	1192.3774881843574
6.551857269155142	2042.8107324943735
6.617375841846692	1842.4932826145334
6.6835496002651595	2016.925619180007
6.750385096267811	2324.9113257144973
6.8178889472304895	2950.087570105006
6.886067836702794	2753.1978033499026
6.954928515069822	3875.3009294690105
7.02447780022052	3553.735639686549
7.094722578222726	4594.164339766402
7.165669804004954	4341.576518912689
7.237326502045002	4373.282530775618
7.309699767065453	3266.3434220616086
7.382796764736107	2499.4802491540754
7.456624732383468	1718.8734855532578
7.531190979707304	2404.4093572114375
7.606502889504377	2917.5115923683525
7.682567918399419	1117.8407498967779
7.759393597583415	1876.8499622373852
7.836987533559249	2656.9594930813228
7.915357408894842	2584.0382651583177
7.99451098298379	3853.0988315183663
8.074456092813627	4021.155456815116
8.155200653741764	5607.245204594393
8.236752660279182	7249.595985833812
8.319120186881973	8664.47848462182
8.402311388750794	9076.149713414045
8.486334502638302	10815.905064881288
8.571197847664685	12512.111986328047
8.656909826141332	7244.854931184933
8.743478924402744	10243.009734122485
8.830913713646773	8792.394144989088
8.91922285078324	6439.859357111396
9.008415079291073	6639.402380634686
9.098499230083984	7585.926385875353
9.189484222384824	6055.244400161335
9.281379064608672	6453.260149310103
9.374192855254758	4640.578154062399
9.467934783807307	7059.369217802281
9.562614131645379	4799.6241788623
9.658240272961834	6065.567241288732
9.754822675691452	6534.065559417388
9.852370902448365	6955.431936116506
9.950894611472851	7608.472528907752
10.050403557587579	7236.963204489331
10.150907593163454	11690.023850815904
10.252416669095089	9245.575282207212
10.35494083578604	1202.0239488458242
10.4584902441439	6063.2175098966445
10.56307514658534	6256.865646030854
10.668705898051194	5843.526055639133
10.775392957031706	1855.6037382869015
10.883146886602022	6159.187783669953
10.991978355468042	6568.269601699109
11.101898139022724	11103.973658147861
11.21291712041295	5529.993475139768
11.325046291617081	11160.07771110871
11.438296754533251	8621.217388266861
11.552679722078585	7614.7048424550285
11.66820651929937	9102.07059102697
11.784888584492363	5280.2424078679815
11.902737470337287	10536.765856514463
12.021764845040659	5393.442067693103
12.141982493491067	8523.37635986357
12.263402318425978	6217.409447498995
12.386036341610238	6888.424236181577
12.509896705026339	8852.644171414264
12.634995672076604	8095.305953289527
12.76134562879737	8041.601374985595
12.888959085085343	7641.105563143639
13.017848675936195	8349.109820400281
13.14802716269556	7460.629148882842
13.279507434322513	8909.203637430155
13.41230250866574	8092.267373918724
13.546425533752396	8799.121363035589
13.68188978908992	9756.461924372272
13.818708686980822	8635.936463526476
13.95689577385063	9802.993782482798
14.096464731589135	8609.528124714301
14.237429378905027	9386.778553108554
14.379803672694079	9103.97752478043
14.523601709421019	8668.92031518115
14.668837726515228	9720.930996513005
14.81552610378038	9336.126942327537
14.963681364818186	8817.85819299381
15.113318178466368	8917.03549685273
15.26445136025103	9215.45041974951
15.41709587385354	8059.943484820077
15.571266832592077	8255.015169860837
15.726979500917999	7516.852353569589
15.884249295927178	6755.409293366457
16.04309178888645	7366.1868460273945
16.203522706775317	7211.261703966949
16.365557933843068	7905.074133131277
16.5292135131815	8017.325301032655
16.694505648313314	7706.009966791166
16.861450704796447	7140.40602450219
17.03006521184441	7719.200436658666
17.20036586396286	7192.39784956842
17.372369522602487	7107.388752584603
17.54609321782851	6775.064807354168
17.721554150006796	7177.301213147379
17.898769691506864	7390.635470304506
18.077757388421933	6633.953938425942
18.25853496230615	6487.601484426543
18.441120311929215	7154.643789052655
18.625531515048504	6664.13047655154
18.81178683019899	6747.130360529794
18.99990469850098	6254.884408160362
19.18990374548599	6367.910224627614
19.38180278294085	5804.641756753163
19.57562081077026	6204.581809885177
19.771377018877963	5817.382698530905
19.96909078906674	5561.904940764975
20.16878169695741	6577.033864980493
20.370469513926984	5747.723389664789
20.574174209066253	5523.112491079677
20.779915951156916	5989.407588417383
20.987715110668486	5664.110405469921
21.19759226177517	4840.538585632735
21.40956818439292	5204.044100559355
21.623663866236853	5235.811073847041
21.83990050489922	4439.432927341517
22.058299509948213	4774.590901552202
22.278882505047697	5308.306267670562
22.501671330098173	4607.538162425697
22.726688043399154	4758.13814786192
22.953954923833145	4355.758854479934
23.183494473071477	4433.468382727651
23.41532941780219	4452.534088548017
23.649482711980216	3976.0569465904814
23.88597753910002	3450.0269274185744
24.124837314491018	4238.917767115485
24.36608568763593	4421.362202390191
24.609746544512287	4304.608705112509
24.855844009957412	3889.470123109256
25.104402450056988	3198.7977688422925
25.355446474557553	3264.456509436059
25.609000939303133	3697.6646180427942
25.865090948696164	3341.0891476395245
26.123741858183127	3284.6808246030437
26.384979276764955	3244.2032298000017
26.648829069532603	2738.673862479749
26.915317360227935	2919.3215480596414
27.184470533830215	3070.4502367105274
27.456315239168514	3149.9821213688974
27.730878391560196	2874.3572605477966
28.008187175475804	2379.213533427995
28.28826904723056	2389.515215984006
28.571151737702866	2344.6503104685817
28.856863255079894	2462.0468335155733
29.145431887630696	2334.3461410279083
29.436886206507	2265.384833739899
29.73125506857207	2197.2626972901644
30.028567619257792	2178.104391216204
30.328853295450372	2103.4013016200047
30.632141828404876	1968.6028326865728
30.938463246688926	1745.542825919315
31.24784787915581	1984.9274753438422
31.560326357947375	1923.8388351047374
31.875929621526847	1844.6296849004493
32.19468891774212	1836.110894261223
32.51663580691953	1771.3353261341765
32.84180216498873	1625.0309562634845
33.170220186638616	1539.1973100896594
33.50192238850501	1538.1658869481817
33.836941612390056	1519.8700921562208
34.17531102851396	1413.45344852787
34.51706413879909	1305.1081032212753
34.86223478018709	1407.3602329774521
35.21085712798896	1338.3310860262395
35.562965699268844	1210.7964632847722
35.91859535626154	1075.5470804662777
36.27778130982416	1116.2207092299984
36.64055912292239	1184.6886267978355
37.00696471415162	1161.9467779465292
37.377034361293134	1136.6594797597968
37.750804704906066	1109.8037598578999
38.12831275195513	1102.5162516636494
38.50959587947468	1065.8146816297487
38.89469183826943	973.897108391527
39.283638756652124	785.2452061752147
39.67647514421864	832.5834281484958
40.073239895660834	866.4471488435697
40.47397229461744	828.392229142764
40.878712017563615	796.8166010702832
41.287499137739246	835.4689790000243
41.700374129116646	806.9452941094811
42.117377870407815	686.3248160785573
42.53855164911189	626.2961821149383
42.96393716560301	648.4820417892818
43.39357653725904	685.2614689261951
43.827512302631625	589.5067805590945
44.26578742565795	599.9390274426556
44.70844529991452	602.4197409063974
45.15552975291367	536.0133044091209
45.60708505044281	588.215413758718
46.06315590094724	468.9447171749024
46.52378745995671	405.242092478432
46.989025334556274	512.5975843432132
47.45891558790184	509.1429788823795
47.93350474378086	425.335608206042
48.412839791218666	480.8065952851244
48.89696818913085	459.9217085188664
49.385937871022165	350.2452525906365
