#wavelength	surface flux
0.3999985296548732	0.000113625361425463
0.4039985149514219	3.433682451798554e-05
0.4080385001009362	0.0003148770598059764
0.41211888510194555	0.0011110897129525783
0.416240073952965	0.0017509390044025967
0.4204024746924947	0.001798062486738633
0.42460649943941964	0.002920506683592348
0.4288525644338138	0.0034930854413942045
0.43314109007815194	0.00419454495633079
0.4374725009789334	0.005054622344272696
0.4418472259887228	0.00616074366113582
0.44626569824860995	0.0076202722336705725
0.4507283552310961	0.009520334621065846
0.45523563878340706	0.012424547590176594
0.4597879951712412	0.015620553854172547
0.4643858751229536	0.020351602597341336
0.4690297338741832	0.028107948423194192
0.47372003121292494	0.0389479081991139
0.4784572315250542	0.055836946047945625
0.48324180384030474	0.08233277612249434
0.4880742218787078	0.12213751932419413
0.49295496409749495	0.18501892044657478
0.4978845137384698	0.27896335800503114
0.5028633588758545	0.39228312432802387
0.5078919924646131	0.5669441721480936
0.5129709123892592	0.8055514376538908
0.5181006215131518	1.0922089751178776
0.5232816277282833	1.2786576723556462
0.5285144440055661	1.3990969055482996
0.5337995884456219	1.4386255277726954
0.5391375843300781	1.2980840150320647
0.5445289601733789	1.1745395837460435
0.5499742497751127	1.1630778999018518
0.5554739922728638	1.1252878338720973
0.5610287321955925	1.0110406307071609
0.5666390195175484	0.7686598717510111
0.5723054097127239	0.6021118367700573
0.5780284638098512	0.4131882628748615
0.5838087484479496	0.22657134092603487
0.5896468359324292	0.029088975312236098
0.5955433042917534	0.339024641982179
0.601498737334671	1.1013897739674208
0.6075137247080177	2.8073563764795835
0.6135888619550979	5.537094220685476
0.6197247505746488	9.035034988408063
0.6259219980803953	14.584018666782754
0.6321812180611992	22.948779570287385
0.6385030302418113	35.146344660690524
0.6448880605442294	37.80765019707681
0.6513369411496717	51.796772945877045
0.6578503105611685	75.09005330700668
0.6644288136667802	127.91578062718749
0.6710731018034479	180.9201645112178
0.6777838328214824	234.03273916475845
0.6845616711496972	250.9361232613643
0.6914072878611942	110.42128466037741
0.6983213607398061	120.51429181030689
0.7053045743472042	88.32427937092861
0.7123576200906763	97.14132410026282
0.719481196291583	6.065695960348369
0.726676008254499	4.993791411055205
0.7339427683370439	12.096844649568254
0.7412821960204143	20.229298302873456
0.7486950179806185	30.214123930940588
0.7561819681604247	20.33844961433384
0.7637437878420289	8.76090470261143
0.7713812257204492	6.813495176134681
0.7790950379776537	5.828040320888516
0.7868859883574303	7.0077719067432085
0.7947548482410045	5.968639754489507
0.8027023967234147	6.40612671340268
0.8107294206906488	2.113291615504664
0.8188367148975553	1.0471150066994916
0.8270250820465308	2.6644046278507845
0.8352953328669962	5.741269870094978
0.8436482861956661	27.18972650464705
0.8520847690576229	71.948582996077
0.8606056167481991	181.71151484429794
0.869211672915681	344.6329839709111
0.8779037896448377	307.31205080756234
0.8866828275412862	328.87520292367714
0.8955496558166991	9.43267837307441
0.9045051523748662	135.71882265739916
0.9135502038986147	17.41723838772628
0.922685705937601	27.944105912413292
0.931912562996977	0.006753443683219794
0.9412316886269468	0.0718388085282485
0.9506440055132163	0.02077935755387858
0.9601504455683483	0.036084615650352966
0.9697519500240318	3.6836362032312566
0.9794494695242721	3.581377498697985
0.9892439642195149	23.950868388438145
0.9991364038617101	52.98500946392233
1.0091277679003272	31.541626954241494
1.0192190455793306	1.4483324361806988
1.0294112360351237	1.9040801726191554
1.039705348395475	2.5578975141491496
1.0501024018794298	7.9634463775123105
1.060603425898224	17.148512425211386
1.0712094601572064	8.09580463266936
1.0819215547587784	4.729518333462361
1.0927407703063663	1.6553172920595933
1.1036681780094297	0.35089198533329957
1.1147048597895242	0.0015023439112083856
1.1258519083874194	7.152376519830142e-05
1.1371104274712935	0.0010614957224216392
1.1484815317460066	4.495921581623903e-05
1.1599663470634667	0.00021016110588269063
1.1715660105341013	0.004742811267882141
1.1832816706394425	0.06435362935408062
1.1951144873458368	0.0630009390542658
1.2070656322192952	0.04541113894483819
1.219136288541488	0.07887093996597727
1.231327651426903	0.894748533558259
1.2436409279411722	6.312673673670422
1.2560773372205838	14.071167551135314
1.2686381105927897	55.67751285172375
1.2813244916987176	22.212712085990066
1.2941377366157047	2.7935399664809375
1.3070791139818618	1.024001397460841
1.3201499051216805	0.28901292373885057
1.333351404172897	0.04485820962503803
1.3466849182146263	9.632600717301339e-05
1.3601517673967725	2.2472359070599033e-07
1.3737532850707401	1.96606315062075e-06
1.3874908179214476	1.3030480464391142e-06
1.401365726100662	5.712146560779401e-06
1.4153793833616688	9.366482264503772e-05
1.4295331771952855	0.00010871481485148708
1.4438285089672382	0.0011378362758779881
1.4582667940569107	0.11695949727249612
1.47284946199748	0.001026000043917974
1.4875779566174547	7.727956134562396e-05
1.5024537361836292	0.0016092241660728484
1.5174782735454655	9.393093666841986e-06
1.5326530562809202	0.055645901169566664
1.5479795868437294	0.05592740074584723
1.5634593827121666	4.6946303819580875
1.5790939765392884	22.01399317283758
1.5948849163046814	52.09134028760006
1.6108337654677283	17.57368465127802
1.6269421031224054	0.23611617452341163
1.6432115241536296	0.033258480827660884
1.6596436393951657	0.05397766430016344
1.6762400757891174	0.05570309816715797
1.6930024765470086	0.005037455523626427
1.7099325013124789	0.017344062862151274
1.7270318263256035	0.026988993563682385
1.7443021445888596	0.6113581475727423
1.761745166034748	0.12482824398386388
1.7793626176950958	0.35327289756779384
1.7971562438720465	0.03220823768017438
1.8151278063107674	0.00843839512363325
1.833279084373875	0.0009327997188562114
1.8516118752176136	0.0009832393232346885
1.8701279939697897	0.001533548809267706
1.8888292739094876	0.009494630752351706
1.9077175666485826	0.0013202316088522586
1.9267947423150684	0.0019318688518813795
1.9460626897382192	0.0006788273735719109
1.9655233166356012	0.002088770074925621
1.9851785498019574	0.0038211231547621914
2.005030335299977	0.01140544235845629
2.0250806386529767	0.015130343445651107
2.0453314450395066	0.032959908713772926
2.0657847594899015	0.02529067013503568
2.0864426070848006	0.014166558291199624
2.107307033155649	0.008971908521067051
2.128380103487205	0.013324141559636989
2.149663904522077	0.020404482949798734
2.171160543567298	0.019098683721400396
2.1928721490029712	0.007311952484138868
2.2148008704930007	0.00045437887257921723
2.236948879197931	0.00026761775561029595
2.2593183679899105	2.6172262482077383e-05
2.281911551669809	0.00015284766840839727
2.3047306671865075	0.00014354440817651175
2.3277779738583724	1.2775484580806388e-05
2.351055753596956	9.037965695431663e-05
2.374566311132926	0.00034826932677880487
2.398311974244255	0.0006940032729332166
2.4222950939866976	0.0028416329230978024
2.446518044926565	0.04126907373045471
2.4709832253758304	0.22115945847934507
2.495693057629589	0.5078863589162859
2.520649988205885	0.41040102758140773
2.5458564880879435	0.1521913690428433
2.571315052968823	0.02321006736737913
2.5970282034985113	0.02756815340912215
2.6229984855334965	0.073367836099772
2.6492284703888314	0.352228463958583
2.6757207550927196	0.1205883088199039
2.7024779626436466	0.45103238509139454
2.7295027422700833	0.7692460069312401
2.7567977696927843	0.813858827186497
2.784365747389712	0.797695658469829
2.812209404863609	0.3023694005050341
2.8403314989122452	0.43249162963960036
2.868734813901368	0.5353185810482763
2.8974221620403813	0.4080916767483894
2.9263963836607854	0.678665544230512
2.955660347497393	0.44477528384553183
2.9852169509723674	1.2469894346102135
3.015069120482091	1.3385348259695478
3.045219811686912	2.822666511457974
3.075672009803781	4.9360052405668835
3.1064287299018187	1.9897801649125222
3.137493017200837	18.268492613858083
3.168867947372845	3.680956177900828
3.200556626846574	0.09919664975050027
3.2325621931150392	0.005709163234654159
3.26488781504619	0.0012368164398520736
3.297536693196652	0.02651905467689545
3.3305120601286187	0.015401408813775478
3.363817180729905	0.010620434892391428
3.3974553525372038	0.05837281607101903
3.4314299060625757	0.7250374223309611
3.4657442051232015	1.9997610597215205
3.500401647174434	2.9871760856226133
3.535405663646178	1.9778250056289415
3.5707597202826404	3.3533938385936075
3.6064673174854667	23.123777926587874
3.6425319906603213	36.67635825010202
3.678957310566924	151.89742916548516
3.7157468836725935	202.1909433855086
3.75290435250932	361.4412493857676
3.7904333960344125	83.85220802124817
3.8283377299947574	1525.7984909485353
3.866621107294704	537.8770579600757
3.9052873183676513	671.6136112776676
3.9443401915513285	1169.0145014688258
3.9837835934668413	2239.900906443662
4.02362142940151	2200.583743373017
4.063857643695525	3936.496608514748
4.10449622013248	5320.445690627264
4.1455411823338055	10961.307916909765
4.186996594157144	10162.034443702803
4.228866560098715	10310.449572776595
4.271155225699702	29406.806805383712
4.313866777956699	32003.45944158878
4.357005445736266	33473.10013848021
4.400575500193629	37562.40799058275
4.4445812551955655	32919.92918746714
4.4890270677475215	38836.43321665108
4.533917338424996	34393.32568850269
4.579256511809246	36447.0265971416
4.625049076927338	28937.906178695328
4.671299567696612	20064.222863600222
4.718012563373578	24300.20152859602
4.765192689007313	24979.518184458786
4.8128446158973865	17997.806504363216
4.860973062056361	19081.872411810193
4.909582792676924	10644.216847013313
4.958678620603694	5058.504489639931
5.008265406809731	5663.662707513112
5.058348060877829	11208.529710081093
5.108931541486607	4666.879295503717
5.160020856901473	4038.9288880484
5.211621065470488	1661.2203805217036
5.263737276125193	3347.6221860390947
5.316374648886445	2018.6796495131532
5.369538395375309	1655.810054331019
5.4232337793290615	778.01503832692
5.477466117122353	696.0027070559092
5.532240778293576	484.7533490425072
5.587563186076513	225.67611872213388
5.643438817937278	205.44994078692574
5.69987320611665	239.5723467409105
5.756871938177817	29.187801429571337
5.814440657559595	34.998754913795786
5.87258506413519	66.77695165099097
5.931310914776543	105.10771349108298
5.990624023924308	86.49527991118883
6.050530264163551	59.81972414304522
6.111035566805187	7.989524194912263
6.172145922473239	5.544134344440083
6.233867381697972	69.82709346792662
6.296206055514951	129.18699633103276
6.359168116070101	88.46900498024353
6.4227597972308015	73.54024703043092
6.48698739520311	37.69444622714822
6.551857269155142	146.77699610241083
6.617375841846692	193.46365767377955
6.6835496002651595	208.45061086133586
6.750385096267811	572.4419659156732
6.8178889472304895	691.3513209048737
6.886067836702794	919.9650711707405
6.954928515069822	1417.994302987843
7.02447780022052	1348.0234420595611
7.094722578222726	1725.4577250613177
7.165669804004954	1979.7855753839385
7.237326502045002	1077.8903676970674
7.309699767065453	337.71591463164754
7.382796764736107	53.76478096363374
7.456624732383468	20.56961519375787
7.531190979707304	25.931264386907277
7.606502889504377	55.62819314983161
7.682567918399419	11.841160232513776
7.759393597583415	40.47995024346547
7.836987533559249	50.94190558820732
7.915357408894842	52.77567277784344
7.99451098298379	237.8330324782763
8.074456092813627	386.62939879286483
8.155200653741764	1194.3343587313188
8.236752660279182	2212.6603534673577
8.319120186881973	2988.2947184342543
8.402311388750794	3493.615991450907
8.486334502638302	3457.576909063412
8.571197847664685	4358.495692070543
8.656909826141332	2121.647855493448
8.743478924402744	2543.1471851928923
8.830913713646773	2234.2483498847346
8.91922285078324	933.7510818245258
9.008415079291073	1163.0487526988697
9.098499230083984	1266.1631399252217
9.189484222384824	539.095400954459
9.281379064608672	847.295316333883
9.374192855254758	264.4012089655568
9.467934783807307	785.8310083853347
9.562614131645379	257.5611867968165
9.658240272961834	499.58232530028886
9.754822675691452	596.2586631849094
9.852370902448365	702.9703261490163
9.950894611472851	600.5119799133729
10.050403557587579	635.1421487624896
10.150907593163454	1692.704176523452
10.252416669095089	1039.8976480173274
10.35494083578604	126.2075796803125
10.4584902441439	736.2156914395613
10.56307514658534	656.3397794014996
10.668705898051194	663.1812337987318
10.775392957031706	188.1624972245496
10.883146886602022	954.0754670708614
10.991978355468042	722.7553339026771
11.101898139022724	2300.444041854453
11.21291712041295	466.8437842961383
11.325046291617081	2131.8948202088022
11.438296754533251	1292.3688715063442
11.552679722078585	1252.9091083421986
11.66820651929937	1718.746148950725
11.784888584492363	725.3952990539296
11.902737470337287	2738.790907896463
12.021764845040659	663.8216655673642
12.141982493491067	2351.8145587380227
12.263402318425978	800.8877709373345
12.386036341610238	1264.766765085513
12.509896705026339	2416.3393108384303
12.634995672076604	1995.7577147360146
12.76134562879737	2464.846178520306
12.888959085085343	2179.2712373503027
13.017848675936195	2452.916660759155
13.14802716269556	2446.169328555871
13.279507434322513	2719.353640047432
13.41230250866574	2552.269019663176
13.546425533752396	2909.6277891259942
13.68188978908992	3084.446714778881
13.818708686980822	2777.960599690726
13.95689577385063	2992.1132036337035
14.096464731589135	2778.3086806990054
14.237429378905027	2892.8054289014076
14.379803672694079	2803.8384612641785
14.523601709421019	2698.597625904846
14.668837726515228	2664.2079314595953
14.81552610378038	2571.220590369597
14.963681364818186	2461.587376558024
15.113318178466368	2419.906735107921
15.26445136025103	2357.6467326729335
15.41709587385354	2200.1755228522065
15.571266832592077	2222.5348201237975
15.726979500917999	2143.659882061538
15.884249295927178	1910.3671285840603
16.04309178888645	2035.2381263878162
16.203522706775317	2040.711493845787
16.365557933843068	2030.0540697780664
16.5292135131815	2032.4561393905194
16.694505648313314	2034.8941975225357
16.861450704796447	2028.3238763698205
17.03006521184441	2054.11930121761
17.20036586396286	2095.884053344241
17.372369522602487	2133.7997778662857
17.54609321782851	2149.424387047646
17.721554150006796	2247.5654699027705
17.898769691506864	2312.176123267316
18.077757388421933	2308.774594633921
18.25853496230615	2417.3779843346488
18.441120311929215	2505.877479624998
18.625531515048504	2533.7487984234535
18.81178683019899	2584.031693192697
18.99990469850098	2676.090035807103
19.18990374548599	2704.251993007635
19.38180278294085	2717.564436135994
19.57562081077026	2818.494613835967
19.771377018877963	2811.4759297733985
19.96909078906674	2832.7064391660524
20.16878169695741	2917.7384537023754
20.370469513926984	2890.548188072609
20.574174209066253	2870.0581736728695
20.779915951156916	2912.08902847799
20.987715110668486	2889.5201987606697
21.19759226177517	2775.6286738456993
21.40956818439292	2835.670259329994
21.623663866236853	2802.745603847359
21.83990050489922	2634.551116485214
22.058299509948213	2704.004962605258
22.278882505047697	2720.187246554551
22.501671330098173	2622.819095016529
22.726688043399154	2588.839314011046
22.953954923833145	2528.6866444076045
23.183494473071477	2488.8536240364474
23.41532941780219	2469.97168006434
23.649482711980216	2365.778759096578
23.88597753910002	2173.921616296127
24.124837314491018	2321.159591671382
24.36608568763593	2286.343274845311
24.609746544512287	2230.821271273849
24.855844009957412	2159.137888238716
25.104402450056988	1991.8836185872174
25.355446474557553	1986.6052082821543
25.609000939303133	2024.904080723656
25.865090948696164	1933.5188978362216
26.123741858183127	1916.3349712341583
26.384979276764955	1885.7485095267316
26.648829069532603	1733.9633019572027
26.915317360227935	1781.16081963355
27.184470533830215	1796.404719803591
27.456315239168514	1781.12171135404
27.730878391560196	1733.073793679556
28.008187175475804	1580.1877760348577
28.28826904723056	1572.9044941765696
28.571151737702866	1526.5659986231426
28.856863255079894	1599.6427202371513
29.145431887630696	1547.7407433420171
29.436886206507	1523.6194773749414
29.73125506857207	1481.1246788424562
30.028567619257792	1477.9000147617533
30.328853295450372	1452.039718746698
30.632141828404876	1383.116011833364
30.938463246688926	1294.8302341847625
31.24784787915581	1411.9908805544499
31.560326357947375	1356.6139302181189
31.875929621526847	1320.8487446340553
32.19468891774212	1323.589888078223
32.51663580691953	1303.3000052217267
32.84180216498873	1207.3535823308696
33.170220186638616	1144.6772373395197
33.50192238850501	1184.5064824482683
33.836941612390056	1148.6155041699776
34.17531102851396	1100.5430842466938
34.51706413879909	1005.7142261747251
34.86223478018709	1107.9762634107403
35.21085712798896	1050.6936396839317
35.562965699268844	952.3006774302868
35.91859535626154	855.2324242176454
36.27778130982416	833.1804872775828
36.64055912292239	875.1427442421857
37.00696471415162	888.1703875046402
37.377034361293134	913.9585833946842
37.750804704906066	890.5936321833816
38.12831275195513	894.022805129661
38.50959587947468	849.2094382906077
38.89469183826943	682.524626272855
39.283638756652124	556.8251887674987
39.67647514421864	616.5344167093456
40.073239895660834	698.8870595836473
40.47397229461744	656.3347707197617
40.878712017563615	639.5086349845922
41.287499137739246	689.949522738524
41.700374129116646	637.7047313425811
42.117377870407815	466.65083925019457
42.53855164911189	392.546650229804
42.96393716560301	466.1009452814286
43.39357653725904	558.0246214934518
43.827512302631625	482.96855063590965
44.26578742565795	483.19306915972555
44.70844529991452	483.8940842844226
45.15552975291367	434.457169170518
45.60708505044281	407.68163501979467
46.06315590094724	273.2466503403515
46.52378745995671	252.55954142923028
46.989025334556274	392.6172128378367
47.45891558790184	411.07613585364487
47.93350474378086	352.0104035803372
48.412839791218666	385.37192855511097
48.89696818913085	350.7531443535883
49.385937871022165	292.3960608215473
