#wavelength	surface flux
0.3999985296548732	0.0006939897283646784
0.4039985149514219	9.538820823273311e-05
0.4080385001009362	0.0018042873388223672
0.41211888510194555	0.009232420461408876
0.416240073952965	0.024919248321905358
0.4204024746924947	0.014370842075909256
0.42460649943941964	0.09707758578711917
0.4288525644338138	0.17826566832120752
0.43314109007815194	0.29061333537495504
0.4374725009789334	0.4435913340738755
0.4418472259887228	0.6454807895579956
0.44626569824860995	0.9057583421857975
0.4507283552310961	1.2240342064569916
0.45523563878340706	1.3774483415858534
0.4597879951712412	1.9240520396095853
0.4643858751229536	2.3872150055689776
0.4690297338741832	2.724961696043525
0.47372003121292494	3.073653670602231
0.4784572315250542	3.3817596080370023
0.48324180384030474	3.5833703454402657
0.4880742218787078	3.837265571778131
0.49295496409749495	4.040410419712729
0.4978845137384698	4.263887745867397
0.5028633588758545	4.210714546577592
0.5078919924646131	4.353319659588751
0.5129709123892592	4.49647681930267
0.5181006215131518	4.66941798008885
0.5232816277282833	4.663417480883812
0.5285144440055661	4.598472348040899
0.5337995884456219	4.504631342079329
0.5391375843300781	4.107037377536308
0.5445289601733789	3.8000451607914187
0.5499742497751127	3.5965605807779015
0.5554739922728638	3.3640589509990364
0.5610287321955925	2.965693270648215
0.5666390195175484	2.341389775449356
0.5723054097127239	1.85451903532851
0.5780284638098512	1.2131739483052644
0.5838087484479496	0.6509291515084961
0.5896468359324292	0.08880243774401028
0.5955433042917534	1.101710202476896
0.601498737334671	3.188321781707201
0.6075137247080177	7.579175491090841
0.6135888619550979	14.776131661361429
0.6197247505746488	24.761960514250003
0.6259219980803953	40.491402862132595
0.6321812180611992	63.96014987742092
0.6385030302418113	96.99658442268303
0.6448880605442294	121.16578697615256
0.6513369411496717	176.69784761265774
0.6578503105611685	253.00389812823394
0.6644288136667802	361.5681527453232
0.6710731018034479	407.7959075205115
0.6777838328214824	579.5230064095047
0.6845616711496972	625.168665584512
0.6914072878611942	423.4277561397115
0.6983213607398061	456.9047453824108
0.7053045743472042	378.6013313820765
0.7123576200906763	415.5146671059123
0.719481196291583	101.64472747370824
0.726676008254499	97.63086508809859
0.7339427683370439	124.22024334534879
0.7412821960204143	165.90231892175066
0.7486950179806185	254.37216828857598
0.7561819681604247	206.29353117720544
0.7637437878420289	85.53789381070243
0.7713812257204492	83.5537632158495
0.7790950379776537	189.49759472683897
0.7868859883574303	431.0834713141948
0.7947548482410045	436.1430904712591
0.8027023967234147	789.484686961436
0.8107294206906488	488.93134422833276
0.8188367148975553	575.7176292262078
0.8270250820465308	977.8889399367719
0.8352953328669962	1315.1336967022162
0.8436482861956661	3107.3647855903205
0.8520847690576229	5697.097296993504
0.8606056167481991	9093.268333473341
0.869211672915681	10637.288154933287
0.8779037896448377	7976.360945196666
0.8866828275412862	8930.187628006666
0.8955496558166991	1451.106746584926
0.9045051523748662	6045.749710882202
0.9135502038986147	3149.283133935747
0.922685705937601	2882.045331566504
0.931912562996977	1.92459182579167
0.9412316886269468	36.46512681622127
0.9506440055132163	46.86899917583525
0.9601504455683483	46.66679426617047
0.9697519500240318	388.3989675877068
0.9794494695242721	548.5032433819686
0.9892439642195149	2236.1117809708835
0.9991364038617101	4888.098424681987
1.0091277679003272	3949.3577907437025
1.0192190455793306	465.3871739448433
1.0294112360351237	1131.0394128701228
1.039705348395475	1265.3224763358244
1.0501024018794298	3234.47555576159
1.060603425898224	8214.452766498194
1.0712094601572064	5975.102139898087
1.0819215547587784	6058.724765325066
1.0927407703063663	1729.2200349380562
1.1036681780094297	348.06964836925414
1.1147048597895242	3.2813103721685852
1.1258519083874194	1.753476059991314
1.1371104274712935	6.611892387585959
1.1484815317460066	0.3970492347282716
1.1599663470634667	1.002965211976504
1.1715660105341013	2.7600361124409174
1.1832816706394425	49.65523470761929
1.1951144873458368	82.26792872104626
1.2070656322192952	66.88142296931696
1.219136288541488	90.11233886616073
1.231327651426903	772.5849361644255
1.2436409279411722	3628.669515263644
1.2560773372205838	5047.135180301167
1.2686381105927897	16498.214784283897
1.2813244916987176	2932.9265921533733
1.2941377366157047	634.8256023042863
1.3070791139818618	358.99370521027345
1.3201499051216805	133.62678349067244
1.333351404172897	26.402559123669363
1.3466849182146263	0.13275019659702947
1.3601517673967725	0.0012915562003990757
1.3737532850707401	0.040153305896795985
1.3874908179214476	0.012517620632241497
1.401365726100662	0.04032285174111711
1.4153793833616688	0.2655206258414296
1.4295331771952855	0.07206553440504333
1.4438285089672382	1.2680906922930313
1.4582667940569107	25.803516930623235
1.47284946199748	0.5101009159546381
1.4875779566174547	0.14182735015302197
1.5024537361836292	1.106765632291785
1.5174782735454655	0.05468542541882061
1.5326530562809202	40.5225094207404
1.5479795868437294	6.817382110246989
1.5634593827121666	174.4994095547475
1.5790939765392884	1340.1482710203159
1.5948849163046814	2305.4603562328352
1.6108337654677283	870.7847139282037
1.6269421031224054	72.42942673977625
1.6432115241536296	55.80311796931586
1.6596436393951657	55.10338813673976
1.6762400757891174	43.23331643573475
1.6930024765470086	5.677681369085427
1.7099325013124789	7.857208863805098
1.7270318263256035	18.133828320115366
1.7443021445888596	125.36153401493931
1.761745166034748	18.877501336153934
1.7793626176950958	110.43383562034332
1.7971562438720465	12.277464025475174
1.8151278063107674	10.145532062327657
1.833279084373875	0.34555362399786443
1.8516118752176136	0.5279241925083763
1.8701279939697897	1.0686593335156176
1.8888292739094876	11.219667733475184
1.9077175666485826	0.4940815137976586
1.9267947423150684	0.6518343165970263
1.9460626897382192	1.4744025180711198
1.9655233166356012	6.759246640556942
1.9851785498019574	4.644350629021437
2.005030335299977	19.061782547233076
2.0250806386529767	19.41366683380993
2.0453314450395066	65.53523631986428
2.0657847594899015	91.39816350992706
2.0864426070848006	111.42164991575211
2.107307033155649	110.08216200144544
2.128380103487205	106.1249118325424
2.149663904522077	81.7391227602842
2.171160543567298	58.385440079894884
2.1928721490029712	13.711301959301972
2.2148008704930007	2.329779072547664
2.236948879197931	1.3475970838852827
2.2593183679899105	0.23885559820085675
2.281911551669809	0.8589113512512567
2.3047306671865075	1.1607711557778384
2.3277779738583724	0.13388646317976874
2.351055753596956	0.4288212463940143
2.374566311132926	0.9128349607235395
2.398311974244255	2.0391113947022315
2.4222950939866976	4.727775180952815
2.446518044926565	38.160429879746914
2.4709832253758304	73.70792947557591
2.495693057629589	107.03626683770338
2.520649988205885	50.11900246760326
2.5458564880879435	7.136213711919559
2.571315052968823	0.44270223221829
2.5970282034985113	1.0231320902230634
2.6229984855334965	1.6182589125521396
2.6492284703888314	10.54092755054108
2.6757207550927196	0.7438526594448561
2.7024779626436466	3.9382045074893997
2.7295027422700833	4.258798911940156
2.7567977696927843	4.975901456777153
2.784365747389712	5.018067343067671
2.812209404863609	2.816868547210532
2.8403314989122452	20.649862477960696
2.868734813901368	43.148704229269626
2.8974221620403813	51.5996926049111
2.9263963836607854	106.45646332089392
2.955660347497393	99.10663116671714
2.9852169509723674	185.6546114469377
3.015069120482091	238.55925206802235
3.045219811686912	243.1034981659862
3.075672009803781	223.46294768478123
3.1064287299018187	152.06841362093263
3.137493017200837	1003.486763127652
3.168867947372845	182.5706492241357
3.200556626846574	13.356217392590136
3.2325621931150392	12.105554195319638
3.26488781504619	13.799195282830077
3.297536693196652	42.11436135686048
3.3305120601286187	23.20319938238376
3.363817180729905	20.582755308582154
3.3974553525372038	46.12308178654748
3.4314299060625757	102.60833794952937
3.4657442051232015	163.7955998835253
3.500401647174434	364.82165449224414
3.535405663646178	207.65140977050623
3.5707597202826404	451.284375889665
3.6064673174854667	627.4498301767317
3.6425319906603213	1841.0520013469245
3.678957310566924	4452.264153925714
3.7157468836725935	5455.236150527751
3.75290435250932	8847.164296124589
3.7904333960344125	3177.4519661226896
3.8283377299947574	18354.65038917769
3.866621107294704	9542.977003063494
3.9052873183676513	10054.412394670757
3.9443401915513285	12006.529431233737
3.9837835934668413	27822.867477129457
4.02362142940151	22332.416699972233
4.063857643695525	33996.601883980875
4.10449622013248	41426.25367214936
4.1455411823338055	71058.02536972998
4.186996594157144	64014.48200028547
4.228866560098715	45582.72494072101
4.271155225699702	129105.07582710957
4.313866777956699	90557.88234879874
4.357005445736266	125950.86645130083
4.400575500193629	125602.75746986172
4.4445812551955655	109988.22652259193
4.4890270677475215	119400.35589740716
4.533917338424996	131713.45376187254
4.579256511809246	142375.97123314877
4.625049076927338	120486.3983431655
4.671299567696612	99433.64786518073
4.718012563373578	122564.84457572513
4.765192689007313	140718.6898449454
4.8128446158973865	118091.7659743784
4.860973062056361	116055.14563221656
4.909582792676924	68573.21186291818
4.958678620603694	37447.97915685183
5.008265406809731	45851.89593231635
5.058348060877829	86283.55250310113
5.108931541486607	36979.65474933884
5.160020856901473	30624.311012227292
5.211621065470488	9651.14342441687
5.263737276125193	25687.334103561403
5.316374648886445	16853.93217883357
5.369538395375309	9761.476164989754
5.4232337793290615	3306.3793338787614
5.477466117122353	3128.875090374704
5.532240778293576	3183.9443024368966
5.587563186076513	1988.2371466392285
5.643438817937278	1947.3011960452006
5.69987320611665	2533.970269612393
5.756871938177817	1368.9936099804852
5.814440657559595	1796.2282087679057
5.87258506413519	1767.6321194044222
5.931310914776543	1983.6545208381588
5.990624023924308	1948.1450547755283
6.050530264163551	1830.0151419179997
6.111035566805187	1983.1232158245575
6.172145922473239	1840.8632902988904
6.233867381697972	2582.098468313206
6.296206055514951	4177.092906902596
6.359168116070101	2844.6714609025194
6.4227597972308015	2134.0873687046865
6.48698739520311	1981.7955227528578
6.551857269155142	3038.9172813868063
6.617375841846692	2763.040963175927
6.6835496002651595	3135.982488833768
6.750385096267811	3895.775323488821
6.8178889472304895	4444.279106320004
6.886067836702794	4018.295647911647
6.954928515069822	6079.53367187056
7.02447780022052	5414.504613947207
7.094722578222726	7465.533640226604
7.165669804004954	6559.980801771459
7.237326502045002	6787.472633636857
7.309699767065453	5374.835121049682
7.382796764736107	4341.687242819706
7.456624732383468	3479.096000205741
7.531190979707304	4379.635862169307
7.606502889504377	5402.8267550114015
7.682567918399419	3007.1033210216515
7.759393597583415	4222.417342575757
7.836987533559249	5172.205299378718
7.915357408894842	4936.906357517968
7.99451098298379	6744.594626298851
8.074456092813627	6207.676783475758
8.155200653741764	8527.31740227038
8.236752660279182	11774.460399892303
8.319120186881973	14112.089398994483
8.402311388750794	14497.171198363718
8.486334502638302	18256.028173694045
8.571197847664685	20628.588661356836
8.656909826141332	11784.40551466203
8.743478924402744	17457.924531985795
8.830913713646773	14414.199756639566
8.91922285078324	10449.485291821979
9.008415079291073	10784.943704801939
9.098499230083984	12618.376378129444
9.189484222384824	9405.620889433942
9.281379064608672	10902.624259277036
9.374192855254758	8707.727173074836
9.467934783807307	11499.348083920022
9.562614131645379	8973.197432618463
9.658240272961834	10709.289542023002
9.754822675691452	10949.500769549342
9.852370902448365	12216.698424166796
9.950894611472851	13322.17419101633
10.050403557587579	12715.451828878016
10.150907593163454	20556.551490270846
10.252416669095089	15596.808166387777
10.35494083578604	4017.5890061263467
10.4584902441439	9765.762345841214
10.56307514658534	9887.865010867417
10.668705898051194	9413.968539401469
10.775392957031706	5984.777337153132
10.883146886602022	9366.055360262004
10.991978355468042	10830.349687631135
11.101898139022724	17578.464609515282
11.21291712041295	9089.642301584256
11.325046291617081	18083.129188286515
11.438296754533251	14103.320895695948
11.552679722078585	12223.771475334655
11.66820651929937	14264.894406408048
11.784888584492363	8549.698648954733
11.902737470337287	16214.067506389169
12.021764845040659	8611.333267834543
12.141982493491067	12901.981315693607
12.263402318425978	9755.480590302937
12.386036341610238	10279.784886060805
12.509896705026339	12899.014762059227
12.634995672076604	11951.40964324965
12.76134562879737	12024.62805202818
12.888959085085343	11321.210445693538
13.017848675936195	12006.378669016636
13.14802716269556	10714.549248080937
13.279507434322513	13017.164523810186
13.41230250866574	11492.353272602359
13.546425533752396	13046.10646258084
13.68188978908992	14334.697859564378
13.818708686980822	12387.802582974822
13.95689577385063	14650.189827613991
14.096464731589135	12160.977864303335
14.237429378905027	13529.679454832101
14.379803672694079	12985.97338826983
14.523601709421019	12223.623509042105
14.668837726515228	14309.73007382506
14.81552610378038	13644.842396493292
14.963681364818186	12702.345723653336
15.113318178466368	12880.4548927558
15.26445136025103	13615.343483054623
15.41709587385354	11729.52098776037
15.571266832592077	11746.685711710632
15.726979500917999	10347.44388294312
15.884249295927178	9203.106411423149
16.04309178888645	10179.448383733965
16.203522706775317	9995.150178001211
16.365557933843068	11250.139526772839
16.5292135131815	11584.02440603262
16.694505648313314	10937.218787188336
16.861450704796447	9790.808943363405
17.03006521184441	11121.997077510021
17.20036586396286	9969.266663443055
17.372369522602487	9807.214342766702
17.54609321782851	9266.598410387667
17.721554150006796	10021.778251606625
17.898769691506864	10469.13041733272
18.077757388421933	9076.389458170237
18.25853496230615	8710.415829135627
18.441120311929215	10093.605144563895
18.625531515048504	9109.18605227457
18.81178683019899	9360.844069611598
18.99990469850098	8368.121591638566
19.18990374548599	8633.799275962492
19.38180278294085	7568.034322310225
19.57562081077026	8326.837123371268
19.771377018877963	7748.201152801319
19.96909078906674	7176.695340767521
20.16878169695741	9041.995706536374
20.370469513926984	7536.507476512721
20.574174209066253	7180.490877625143
20.779915951156916	8062.25585342191
20.987715110668486	7463.286372203634
21.19759226177517	6055.287826269718
21.40956818439292	6706.794400509601
21.623663866236853	6809.3014805292305
21.83990050489922	5451.957027991905
22.058299509948213	6082.737863727854
22.278882505047697	7046.262132148027
22.501671330098173	5856.38294360001
22.726688043399154	6211.007063169415
22.953954923833145	5449.12596590524
23.183494473071477	5631.909450117244
23.41532941780219	5681.513957462871
23.649482711980216	4852.838761364322
23.88597753910002	4052.322464044039
24.124837314491018	5434.588690131645
24.36608568763593	5782.003828312339
24.609746544512287	5659.692808215408
24.855844009957412	4937.951110580792
25.104402450056988	3759.1341114156508
25.355446474557553	3893.424170698351
25.609000939303133	4730.360291194066
25.865090948696164	4153.830120166641
26.123741858183127	4060.516989836689
26.384979276764955	4030.194032902086
26.648829069532603	3180.791579848426
26.915317360227935	3525.970256080552
27.184470533830215	3845.2474238645173
27.456315239168514	4031.746513456178
27.730878391560196	3567.091557502712
28.008187175475804	2785.555339249546
28.28826904723056	2793.2215048462667
28.571151737702866	2729.534421195607
28.856863255079894	2965.96474630101
29.145431887630696	2764.859106273197
29.436886206507	2697.455441040689
29.73125506857207	2598.8534752777778
30.028567619257792	2594.9215051826795
30.328853295450372	2483.1624450365275
30.632141828404876	2277.4755460859237
30.938463246688926	2012.5445061406422
31.24784787915581	2349.5146720985686
31.560326357947375	2296.454475641562
31.875929621526847	2172.803823302381
32.19468891774212	2189.3818123288315
32.51663580691953	2098.0401531376388
32.84180216498873	1859.597142786935
33.170220186638616	1780.7187465816528
33.50192238850501	1803.4952860480078
33.836941612390056	1807.254100198332
34.17531102851396	1656.473909621102
34.51706413879909	1507.130998930418
34.86223478018709	1651.3598399589255
35.21085712798896	1547.8230122423781
35.562965699268844	1383.5065190399628
35.91859535626154	1240.650719800412
36.27778130982416	1286.898429260808
36.64055912292239	1375.0845730642163
37.00696471415162	1352.0891556631393
37.377034361293134	1315.6769454407292
37.750804704906066	1291.7538934458175
38.12831275195513	1299.0989887163325
38.50959587947468	1254.9584214076247
38.89469183826943	1132.5523097979005
39.283638756652124	957.426905410283
39.67647514421864	975.3986624918997
40.073239895660834	991.9635198937666
40.47397229461744	952.2992399589037
40.878712017563615	919.6069873173757
41.287499137739246	978.6072941717985
41.700374129116646	946.5237880971506
42.117377870407815	815.6374604141812
42.53855164911189	768.6964863981035
42.96393716560301	779.5159347406592
43.39357653725904	783.5302553684116
43.827512302631625	678.0600908446834
44.26578742565795	690.6582028630942
44.70844529991452	689.6626287759595
45.15552975291367	609.3570062623943
45.60708505044281	680.7479054938728
46.06315590094724	581.5584234431274
46.52378745995671	535.1538355436727
46.989025334556274	587.7804154603726
47.45891558790184	580.9247215537772
47.93350474378086	487.5770187516955
48.412839791218666	546.3970468931329
48.89696818913085	527.3463178820017
49.385937871022165	399.3501697270399
