#wavelength	surface flux
0.6450077295303345	21443676.86399226
0.6472567915916443	32090496.976095933
0.6494921445846558	39136706.91741216
0.6517150402069092	43205596.841686115
0.6539263725280762	46117110.16779314
0.6561272740364075	45845716.67818321
0.6583186388015747	45234029.755320266
0.6605015397071838	44953987.14939225
0.6626768708229065	42610629.77114972
0.6648455858230591	39099904.201795496
0.6670085787773132	35322298.73415845
0.6691668033599854	30857828.132306505
0.6713210344314575	28379238.198155295
0.6734722256660461	30158586.83371231
0.6756211519241333	33435854.42268452
0.6777685880661011	35453686.26649644
0.6799154281616211	36295928.24559718
0.6820623278617859	37638068.543649085
0.6842101216316223	40074925.64553686
0.6863595843315125	43371327.03712397
0.688511312007904	46470627.18413351
0.6906660795211792	48418607.350251704
0.6928245425224304	54614878.73767208
0.6949873566627502	67697089.41138516
0.6971551775932312	81699459.83225241
0.6993286609649658	91948680.58063906
0.7015084028244019	99158129.76500735
0.7036949396133423	95959714.92675613
0.7058889269828796	72974274.36241303
0.7080909013748169	50127049.70516238
0.710301399230957	43611819.072868906
0.712520956993103	43593582.46184276
0.7147500514984131	44513549.124046974
0.7169892191886902	47042811.29208269
0.7192389369010925	50961903.10637409
0.7214996814727783	55476742.17226275
0.723771870136261	61753734.972941585
0.7260559797286987	70674694.15862732
0.7283523678779602	82823571.9716134
0.7306615710258484	100844972.34237695
0.7329838871955872	122606159.52080509
0.7353196740150452	139657487.19559923
0.7376693487167358	153582535.98681206
0.7400332689285278	171396443.0274758
0.7424117922782898	183238457.42780262
0.7448052167892456	183343388.17302746
0.7472138404846191	182117250.59520775
0.7496379613876343	181558128.31579944
0.7520779371261597	177476988.56405765
0.7545340061187744	166095040.37011355
0.7570064663887024	138893971.2676588
0.7594954967498779	96819314.72884274
0.7620013952255249	56662196.91389237
0.7645244002342224	26168134.555196
0.7670646905899048	7925904.219877163
0.7696225643157959	7636654.029188547
0.7721980810165405	25945856.289026633
0.7747915983200073	53900107.734770186
0.7774031162261963	77184427.75382648
0.7800329327583313	95437337.74541256
0.7826811671257019	112952694.28243814
0.7853479981422424	124615848.87837344
0.7880334854125977	130967759.95351027
0.7907378077507019	130723830.6664865
0.7934610247612	119216268.81888367
0.7962033748626709	124359010.15244645
0.7989648580551147	153948283.91788694
0.801745593547821	188385545.84105626
0.8045456409454346	228734710.00866148
0.8073651194572449	272029250.0679609
0.8102040886878967	313368451.22808963
0.8130625486373901	344120071.16496813
0.8159406185150146	336954840.594382
0.8188382983207703	299780596.76357985
0.8217556476593018	296483064.26109254
0.8246926665306091	323010525.9681586
0.8276493549346924	323952037.207136
0.8306257724761963	312210201.6369721
0.8336219191551208	314298231.27789193
0.8366377949714661	320235277.69763815
0.8396733403205872	316823871.6958574
0.8427285552024841	286012490.7826832
0.8458034992218018	233425835.866886
0.8488980531692505	209602080.3381109
0.8520121574401855	223175208.64457193
0.8551458716392517	243565096.83489224
0.8582990765571594	261659795.16496852
0.8614717125892639	277436353.4654429
0.8646637797355652	294897248.93916404
0.8678751587867737	311563760.72173244
0.8711057901382446	323030242.361104
0.8743556141853333	343762793.36389214
0.87762451171875	375027795.93853056
0.8809124231338501	394657354.8012325
0.8842192888259888	376378912.1017355
0.8875449895858765	320304245.42733824
0.8908893465995789	291257699.06215376
0.894252359867096	312934200.4294073
0.8976338505744934	355097133.42917144
0.9010337591171265	404899458.4146657
0.9044519662857056	444852796.9326362
0.9078882932662964	476150529.65165263
0.9113426208496094	516618312.37393063
0.914814829826355	559376769.3861374
0.9183048605918884	572935351.2781976
0.9218124747276306	539812190.486796
0.925337553024292	493912888.950224
0.9288799166679382	471652129.04520106
0.9324395060539246	469836634.6594995
0.9360161423683167	480429715.02858776
0.9396095871925354	499810932.059057
0.943219780921936	522758750.1107729
0.9468464851379395	546001427.2084311
0.9504896402359009	572590646.4604696
0.9541489481925964	597142533.7786623
0.9578243494033813	610526891.8066132
0.9615156054496765	617568143.9978776
0.9652225375175476	632762365.2860724
0.9689450263977051	651244196.6947633
0.9726828336715698	650694292.2824917
0.9764357805252075	637002646.2916659
0.9802037477493286	631186127.0775173
0.983986496925354	625601673.589638
0.9877838492393494	575712829.1929721
0.9915955662727356	488161337.5424143
0.9954215884208679	462090193.2729866
0.9992615580558777	478335958.26039225
1.0031154155731201	469718086.18918586
1.0069829225540161	472177023.2862455
1.0108637809753418	488908957.9265419
1.0147579908370972	505306659.34217715
1.018665075302124	524471065.68421096
1.022585153579712	524803767.2599009
1.0265177488327026	513064929.708127
1.0304628610610962	531455619.92510897
1.0344202518463135	583605329.8340918
1.0383895635604858	620493912.9501504
1.0423706769943237	616447004.9996961
1.0463634729385376	607597612.4859966
1.0503677129745483	608547178.1457464
1.0543830394744873	607091888.9766718
1.058409333229065	600062911.9122318
1.0624464750289917	605265609.5492367
1.0664942264556885	632677169.5503557
1.0705522298812866	661766286.796773
1.0746204853057861	687927614.5163833
1.0786986351013184	709314075.2679677
1.0827864408493042	718488029.0978098
1.086883783340454	723286201.3509092
1.0909905433654785	730233774.9034429
1.0951062440872192	731815108.3629209
1.0992310047149658	723856348.9083624
1.10336434841156	708614395.6130095
1.1075061559677124	701005154.2712859
1.1116561889648438	708352549.4031957
1.115814208984375	717249216.569212
1.1199802160263062	718286481.8630866
1.124153733253479	720409386.4769791
1.1283347606658936	722799617.4204293
1.1325229406356812	687499570.6142383
1.1367181539535522	612584061.9321853
1.1409201622009277	596787217.2268684
1.145128846168518	675301655.9968477
1.1493438482284546	741426712.7738569
1.1535650491714478	750600496.0749738
1.1577922105789185	747282576.4432185
1.1620250940322876	736599782.9809182
1.1662636995315552	687871394.4064609
1.170507550239563	633571971.140283
1.174756646156311	603541614.1237011
1.1790107488632202	611031758.4213285
1.1832695007324219	676702965.3881414
1.1875330209732056	738024788.0887185
1.191800832748413	756734410.8727319
1.1960728168487549	754698632.9526554
1.2003488540649414	752472332.9548044
1.2046287059783936	767081768.5516056
1.2089121341705322	779587492.1346283
1.2131990194320679	784781012.1171889
1.2174891233444214	797340504.2493123
1.2217823266983032	810861795.7386348
1.2260783910751343	820674023.9338117
1.230377197265625	823312411.4949527
1.2346785068511963	815687333.5729917
1.238982081413269	775633314.6580329
1.2432878017425537	717287874.4967957
1.2475954294204712	692476263.5056337
1.2519049644470215	684718222.6856413
1.256216049194336	728600038.0899891
1.2605286836624146	800387271.1578187
1.2648425102233887	820217259.1997267
1.2691574096679688	824166461.8958603
1.2734732627868652	832701358.6627169
1.2777899503707886	838029802.2430669
1.2821072340011597	839809848.8763821
1.2864248752593994	835856221.2587203
1.2907428741455078	828879351.1171417
1.2950609922409058	826904240.5749716
1.2993791103363037	827574662.6910506
1.303696870803833	828196171.3566854
1.3080145120620728	828956451.4790986
1.3123314380645752	826476768.7892911
1.3166478872299194	818421689.6306996
1.3209635019302368	800601169.7571993
1.3252781629562378	766941837.0655146
1.3295916318893433	696120499.0958004
1.3339040279388428	568784018.054273
1.3382149934768677	439840314.88536954
1.3425244092941284	391205023.66031265
1.3468321561813354	394092223.0899423
1.3511382341384888	373183529.7873103
1.3554422855377197	368195100.2819487
1.3597444295883179	400876798.1899834
1.3640443086624146	427692949.67256355
1.3683418035507202	448664938.0049119
1.3726370334625244	465482501.5786111
1.3769296407699585	462875803.25730354
1.381219506263733	421768974.4383369
1.3855066299438477	385818553.1175265
1.3897908926010132	390651802.74099225
1.3940720558166504	400340556.44507897
1.3983501195907593	398348263.92145133
1.4026249647140503	411753367.5951007
1.4068963527679443	426140676.3800198
1.4111642837524414	394404870.52857983
1.4154287576675415	361596706.3487426
1.419689416885376	360816124.95393157
1.4239463806152344	364879822.04128623
1.4281994104385376	373281805.2410117
1.4324485063552856	371784279.2176104
1.436693549156189	364620034.12312263
1.440934419631958	374967795.1244975
1.4451709985733032	395894011.16497976
1.449403166770935	415715606.0320076
1.453631043434143	429414191.03893006
1.4578542709350586	442049413.9428605
1.4620729684829712	453424840.1072826
1.4662868976593018	453234019.10214025
1.4704961776733398	448706489.41032875
1.4747005701065063	449247446.56634575
1.4788999557495117	449796671.6800629
1.4830944538116455	454718807.4459715
1.4872838258743286	462906023.37818897
1.491468071937561	467227567.6264145
1.4956470727920532	475231624.11717486
1.4998208284378052	490434246.5261511
1.5039892196655273	503398870.57887584
1.5081522464752197	507016933.2018265
1.5123097896575928	505912085.5719659
1.5164618492126465	509541887.346867
1.5206083059310913	524408703.7152643
1.5247491598129272	536057585.1937094
1.5288842916488647	534870777.50355387
1.5330137014389038	537764912.6199621
1.5371372699737549	544281390.8183526
1.541254997253418	547487829.7973102
1.545366883277893	553289627.09
1.5494728088378906	558849709.6448102
1.5535727739334106	561613231.8962064
1.5576666593551636	567174442.8618892
1.561754584312439	574342732.4244057
1.5658363103866577	579219930.5861356
1.5699119567871094	583116856.9207592
1.5739814043045044	586804376.8458129
1.5780447721481323	589750239.6530458
1.582101821899414	592970754.2130687
1.5861525535583496	597267178.3371378
1.5901970863342285	600780624.140883
1.5942351818084717	602610416.6949232
1.5982669591903687	603779044.9858952
1.6022924184799194	604807573.7793716
1.606311559677124	605477962.1312741
1.6103241443634033	606149222.8184243
1.6143304109573364	606730882.5889343
1.6183301210403442	605032329.4484564
1.6223233938217163	602780163.4680022
1.6263102293014526	602090279.0866606
1.6302905082702637	600436564.5450821
1.634264349937439	598118990.7475169
1.638231635093689	596417125.5951911
1.6421923637390137	593979935.6947957
1.646146535873413	591494473.2313869
1.6500942707061768	588564004.2295979
1.6540353298187256	585539064.9004833
1.6579699516296387	582834888.986673
1.661897897720337	579349673.0298932
1.6658192873001099	576226356.1175625
1.6697341203689575	573470364.7563585
1.6736423969268799	571389919.8246815
1.677544116973877	569926446.2981468
1.6814392805099487	567068262.4554232
1.6853278875350952	562054592.5294101
1.6892099380493164	554927234.7976254
1.6930854320526123	547072455.0101773
1.696954369544983	540370893.7436773
1.7008168697357178	534865277.5544432
1.7046726942062378	528353687.7814778
1.708522081375122	518791552.3536793
1.712364912033081	508022619.94150454
1.7162011861801147	498256600.2718289
1.7200311422348022	490137748.63089293
1.723854422569275	483041620.7373475
1.7276713848114014	473722238.3329454
1.731481909751892	461061859.94126046
1.7352858781814575	449088229.2928717
1.7390835285186768	438546309.2979542
1.7428747415542603	426594450.6326228
1.7466596364974976	417456642.1527336
1.7504380941390991	405998567.22560596
1.7542102336883545	382119597.8148283
1.7579760551452637	365770909.1793112
1.7617355585098267	370112820.228167
1.7654887437820435	369821864.5565307
1.7692357301712036	353398854.5095375
1.7729763984680176	333985793.68005383
1.776710867881775	313735017.8245592
1.7804391384124756	298099144.8324095
1.7841613292694092	288032721.52532494
1.7878772020339966	275245990.612152
1.7915871143341064	266737542.14577484
1.7952908277511597	263999926.68556568
1.7989884614944458	256773232.85043916
1.8026801347732544	242269477.6495683
1.806365728378296	228808167.57492095
1.8100452423095703	220840824.99073678
1.8137187957763672	216816042.25611684
1.817386507987976	216209789.73146504
1.8210482597351074	217766457.1624666
1.8247040510177612	219585521.51056042
1.828354001045227	224061452.1005786
1.8319982290267944	231014664.698803
1.8356364965438843	234826823.9422396
1.8392690420150757	246421112.5706712
1.8428958654403687	259025854.55678606
1.8465168476104736	249981385.58726633
1.8501322269439697	227736107.19324023
1.8537418842315674	206856514.52240065
1.8573459386825562	194912601.78139108
1.860944390296936	193512258.51982427
1.864537239074707	209595136.42789936
1.8681244850158691	235527102.14556488
1.871706247329712	242027807.11153635
1.8752825260162354	238280763.60402307
1.8788533210754395	244072089.62774888
1.8824186325073242	251051302.07163334
1.8859784603118896	256339858.07749912
1.8895330429077148	262286721.01789635
1.8930821418762207	267367539.6029753
1.8966259956359863	271513023.8775876
1.9001644849777222	267648006.7036795
1.9036977291107178	262905069.0906575
1.9072256088256836	268948510.37147266
1.9107483625411987	267729852.95034277
1.9142658710479736	253700096.19417512
1.9177782535552979	237647014.25193268
1.9212853908538818	219467073.70271346
1.9247875213623047	211863550.95613015
1.9282845258712769	217867018.70512062
1.9317764043807983	225879981.12355864
1.9352631568908691	232898892.71913525
1.9387450218200684	229551163.68542916
1.942221760749817	218612104.37724102
1.9456936120986938	212218587.69500872
1.9491604566574097	213244369.1690846
1.952622413635254	207211875.35897848
1.956079363822937	190531102.5829082
1.959531545639038	187108022.13642874
1.962978720664978	199735048.8249559
1.966421127319336	219932027.1920321
1.9698586463928223	235170695.76208702
1.9732913970947266	229672863.6886757
1.9767193794250488	219273605.7441133
1.9801424741744995	220955929.81017995
1.9835609197616577	232936300.56678605
1.9869745969772339	241588939.31900957
1.990383505821228	234892375.3592066
1.9937876462936401	230160399.32325688
1.9971871376037598	232092469.61505646
2.000581979751587	234714100.65438747
2.003972291946411	242895250.586871
2.007357597351074	247433633.00525963
2.0107386112213135	247728197.61536762
2.0141148567199707	249845711.13405612
2.017486572265625	250048250.2694886
2.0208535194396973	255659010.2030581
2.0242159366607666	265414241.70152122
2.027573823928833	266975317.469663
2.0309269428253174	265538850.93374142
2.034275770187378	267261249.25677976
2.0376198291778564	268734780.0977286
2.040959596633911	270677239.1944595
2.044294595718384	274839074.6924696
2.0476250648498535	281228094.951638
2.0509510040283203	284614985.35810024
2.054272413253784	285305313.7572827
2.057589530944824	290113592.72439045
2.0609018802642822	292629500.1444715
2.0642096996307373	291575408.1530363
2.0675129890441895	295396742.11932075
2.0708119869232178	299736075.15036726
2.074106216430664	298106953.53919387
2.0773961544036865	296188536.72262377
2.080681324005127	297112469.95257217
2.0839622020721436	297823641.6732174
2.087238311767578	298372737.3014313
2.090510129928589	300240987.96532613
2.0937774181365967	302353191.9362556
2.0970399379730225	303650022.3141009
2.1002981662750244	304227015.1558539
2.1035518646240234	303650390.99568224
2.1068007946014404	302919431.55399317
2.1100454330444336	304424167.0302316
2.1132853031158447	306419038.35992557
2.116520881652832	306046644.3114056
2.1197516918182373	305218062.7675926
2.1229779720306396	305482168.5385053
2.12619948387146	305527681.1252297
2.1294167041778564	304963934.168334
2.132629156112671	304736262.91081274
2.1358368396759033	304267310.1388894
2.139039993286133	302977786.5702916
2.1422386169433594	302434391.75001407
2.145432472229004	302762104.3217199
2.1486217975616455	301929787.9558388
2.151806354522705	300388756.8130142
2.1549863815307617	300065636.9955369
2.1581614017486572	300221355.9937831
2.16133189201355	299398893.03533983
2.1644976139068604	298046419.4918943
2.167658567428589	296985962.4117516
2.1708147525787354	295920810.0869869
2.173966407775879	294402851.89808977
2.1771130561828613	292864323.53612983
2.1802549362182617	292045964.4175717
2.183391809463501	291666091.7548443
2.1865241527557373	290925107.0505002
2.1896514892578125	289743858.2337125
2.1927738189697266	288245053.4796033
2.1958916187286377	286671599.0994684
2.1990041732788086	285301035.6239064
2.2021119594573975	283673799.7398748
2.2052149772644043	281981277.825918
2.208312749862671	281180898.6314153
2.2114057540893555	281066916.37140095
2.214493751525879	280666577.50308686
2.217576742172241	279460602.29485273
2.2206547260284424	278016288.4052388
2.2237277030944824	277095371.41925514
2.2267956733703613	276199363.3873707
2.2298583984375	275068344.53683835
2.2329163551330566	274005472.035302
2.235969066619873	273110685.28261775
2.2390167713165283	272190471.9163405
2.2420592308044434	270596030.7468087
2.2450966835021973	268710055.1965768
2.248128890991211	267252559.56996137
2.2511560916900635	266209767.87974286
2.254178285598755	265462296.80199635
2.257194995880127	264939989.40188113
2.260206699371338	264421934.66697294
2.2632133960723877	262933682.4801116
2.266214609146118	260845234.55769783
2.2692108154296875	259216777.8306707
2.2722020149230957	258324079.839511
2.2751877307891846	258336010.8806232
2.278168201446533	257490216.67765954
2.2811436653137207	255559675.80975652
2.284113883972168	255037957.04185155
2.287078857421875	254906591.80866393
2.290038824081421	249478897.31693137
2.2929933071136475	235718596.5356778
2.295942783355713	219081675.34797174
2.298887014389038	206362103.6955603
2.301826238632202	198120165.5335494
2.304760217666626	192898705.10489672
2.3076889514923096	190487244.15381515
2.310612440109253	191238259.4452782
2.3135311603546143	193620344.92056644
2.3164443969726562	194062801.4888383
2.319352865219116	192579219.61933568
2.322256088256836	192362749.86811534
2.3251543045043945	194965101.5751125
2.328047275543213	195727103.0335103
2.330935478210449	191532648.41126913
2.3338186740875244	189077935.86044598
2.3366971015930176	192375071.93523142
2.3395702838897705	198230165.7812788
2.3424389362335205	203509178.57418102
2.3453025817871094	207600418.69987655
2.348161458969116	209271266.39302048
2.351015567779541	206316422.1797342
2.353865146636963	200470886.30364963
2.3567099571228027	195654693.4613051
2.3595502376556396	194492392.98100823
2.3623859882354736	196499310.69436252
2.3652172088623047	197955307.3555673
2.368043899536133	197750572.8552399
2.370866537094116	197975808.7858594
2.3736846446990967	197111933.0220549
2.3764986991882324	192900325.40313244
2.3793084621429443	189553022.25016448
2.3821144104003906	188629472.75499117
2.384916305541992	186279871.98832345
2.387714147567749	185254707.74719384
2.3905084133148193	188516028.88279012
2.393299102783203	191184308.08787635
2.3960859775543213	190640245.61615998
2.398869514465332	188884883.13185385
2.4016497135162354	186751413.46358857
2.4044265747070312	184825267.49128225
2.407200336456299	183327433.2616807
2.409970998764038	180683427.3470012
2.4127390384674072	176891377.47066566
2.415503978729248	174504313.28892836
2.418266534805298	173608677.4891226
2.4210267066955566	171560647.31053337
2.4237842559814453	167552624.94872174
2.426539897918701	162993172.0994861
2.429293394088745	160356584.76899803
2.4320452213287354	159418841.59741545
2.4347951412200928	156114427.91090468
2.4375438690185547	151526958.80920985
2.440291166305542	148997430.59956518
2.443037271499634	143339341.09980908
2.445782423019409	134781833.72753012
2.4485268592834473	131794427.74612771
2.451270818710327	130339724.02347153
2.454014539718628	129161685.97682768
2.4567582607269287	132116626.19364506
2.4595019817352295	129606890.0752898
2.4622461795806885	126278850.96112363
2.4649908542633057	125193869.35845403
2.4677364826202393	117111742.87610917
2.4704833030700684	106484676.65650825
2.473231554031372	97227125.23470122
2.4759814739227295	90158811.01505814
2.4787333011627197	88489341.9248477
2.481487512588501	93487264.61573718
