#wavelength	surface flux
0.6450077295303345	17139593.918913096
0.6472567915916443	25533098.553778987
0.6494921445846558	30661018.472381417
0.6517150402069092	33242601.27600682
0.6539263725280762	35216951.75369932
0.6561272740364075	35116938.27390237
0.6583186388015747	34887385.36841541
0.6605015397071838	34897531.315460026
0.6626768708229065	33582682.73409065
0.6648455858230591	31408978.922688894
0.6670085787773132	28954608.532883316
0.6691668033599854	26150859.69679924
0.6713210344314575	24620797.225355946
0.6734722256660461	25739930.25635292
0.6756211519241333	27948075.69214909
0.6777685880661011	29525990.709478952
0.6799154281616211	30351161.202267505
0.6820623278617859	31551642.35589977
0.6842101216316223	33544934.990575798
0.6863595843315125	36112599.39704734
0.688511312007904	38527292.50548483
0.6906660795211792	39942665.949026935
0.6928245425224304	43819339.92192749
0.6949873566627502	51908296.92408192
0.6971551775932312	60145933.07702085
0.6993286609649658	65896058.546131976
0.7015084028244019	70166698.6563711
0.7036949396133423	68141533.34044865
0.7058889269828796	53817700.254411526
0.7080909013748169	39792721.885278754
0.710301399230957	35953910.625496365
0.712520956993103	36093027.552282624
0.7147500514984131	36916667.0526118
0.7169892191886902	38960245.25637108
0.7192389369010925	42090556.571294434
0.7214996814727783	45683140.456577286
0.723771870136261	50507983.16914173
0.7260559797286987	57126266.985500276
0.7283523678779602	65768543.254445486
0.7306615710258484	77936328.89683418
0.7329838871955872	91960054.87752952
0.7353196740150452	102216023.89864458
0.7376693487167358	109864983.0179142
0.7400332689285278	120204812.27883801
0.7424117922782898	127370183.20315303
0.7448052167892456	127647163.30138655
0.7472138404846191	129403957.93515061
0.7496379613876343	133835339.30516858
0.7520779371261597	136793612.1149517
0.7545340061187744	135549180.8884104
0.7570064663887024	120242033.78081475
0.7594954967498779	88493570.72378258
0.7620013952255249	55844102.13265477
0.7645244002342224	28624145.994228303
0.7670646905899048	9836495.10248022
0.7696225643157959	9338394.244298942
0.7721980810165405	28109015.6087804
0.7747915983200073	53391636.59776535
0.7774031162261963	71406939.35922131
0.7800329327583313	84345567.02304962
0.7826811671257019	95532362.7582856
0.7853479981422424	99983769.15583685
0.7880334854125977	99520463.0330991
0.7907378077507019	96408967.91200827
0.7934610247612	87595212.7674924
0.7962033748626709	88892102.67883363
0.7989648580551147	105646015.44247545
0.801745593547821	127124164.1785199
0.8045456409454346	154295732.56418136
0.8073651194572449	184851777.68916613
0.8102040886878967	215552189.97602776
0.8130625486373901	241833367.50446376
0.8159406185150146	248119835.81859815
0.8188382983207703	232231090.00158593
0.8217556476593018	224492018.66157562
0.8246926665306091	231439287.7073655
0.8276493549346924	228291465.85862777
0.8306257724761963	220148025.86704525
0.8336219191551208	221552863.03892118
0.8366377949714661	226197063.15319997
0.8396733403205872	225539884.6750557
0.8427285552024841	207433763.66100556
0.8458034992218018	175046508.0993048
0.8488980531692505	160555042.95909953
0.8520121574401855	169011507.87902322
0.8551458716392517	180403047.45154846
0.8582990765571594	190348871.2346961
0.8614717125892639	200300414.74814063
0.8646637797355652	211023816.29223177
0.8678751587867737	221724885.99983627
0.8711057901382446	232713475.42407405
0.8743556141853333	250063096.25558585
0.87762451171875	271832887.4552577
0.8809124231338501	286070565.7552326
0.8842192888259888	275176981.04804
0.8875449895858765	237749692.96066198
0.8908893465995789	217861955.7457383
0.894252359867096	232001744.0714149
0.8976338505744934	260020056.386557
0.9010337591171265	293786852.5260373
0.9044519662857056	322491768.43561715
0.9078882932662964	346127119.15898687
0.9113426208496094	374132086.8180417
0.914814829826355	402491315.69868004
0.9183048605918884	410415153.6362341
0.9218124747276306	384829674.4863219
0.925337553024292	350429128.40961885
0.9288799166679382	333513590.66304797
0.9324395060539246	331998447.41717464
0.9360161423683167	339816537.48473644
0.9396095871925354	353286210.1783207
0.943219780921936	367945720.59703225
0.9468464851379395	381964073.5200993
0.9504896402359009	398082704.4462222
0.9541489481925964	413252719.01675826
0.9578243494033813	421301711.17987454
0.9615156054496765	425017463.735156
0.9652225375175476	434905283.0755436
0.9689450263977051	448471323.0804944
0.9726828336715698	449890113.2729136
0.9764357805252075	442100559.94106185
0.9802037477493286	439982953.00600517
0.983986496925354	440467039.5145322
0.9877838492393494	419158604.89422065
0.9915955662727356	378565128.28871894
0.9954215884208679	372494743.28040695
0.9992615580558777	385954264.40923387
1.0031154155731201	380429877.55228966
1.0069829225540161	382312406.76013905
1.0108637809753418	393693784.11237895
1.0147579908370972	405405899.98815125
1.018665075302124	419208308.1470572
1.022585153579712	419788886.008993
1.0265177488327026	412934932.3026312
1.0304628610610962	425762189.25815785
1.0344202518463135	459293707.6503616
1.0383895635604858	482711290.3150229
1.0423706769943237	478259111.6598061
1.0463634729385376	467399140.22860277
1.0503677129745483	461875432.5403688
1.0543830394744873	457193951.50769126
1.058409333229065	451661590.6592225
1.0624464750289917	456481843.38338995
1.0664942264556885	477892612.5914622
1.0705522298812866	500616952.1425983
1.0746204853057861	520184636.27517647
1.0786986351013184	536169159.20046365
1.0827864408493042	543621967.5356773
1.086883783340454	546107985.532287
1.0909905433654785	548108885.4947262
1.0951062440872192	546952532.2854604
1.0992310047149658	539691995.5997212
1.10336434841156	525901900.24702007
1.1075061559677124	517728495.16380674
1.1116561889648438	521684674.9087566
1.115814208984375	527499126.6710627
1.1199802160263062	527488092.52497405
1.124153733253479	528009407.0968447
1.1283347606658936	530741806.848954
1.1325229406356812	510716481.9812978
1.1367181539535522	471209032.05654365
1.1409201622009277	470122132.80194855
1.145128846168518	517152688.1548334
1.1493438482284546	551213421.4058402
1.1535650491714478	552115019.4588878
1.1577922105789185	548545034.4368042
1.1620250940322876	546185034.5587271
1.1662636995315552	526317310.2964533
1.170507550239563	500385312.8271007
1.174756646156311	483768189.51630694
1.1790107488632202	487239779.0571676
1.1832695007324219	520278267.94786924
1.1875330209732056	550122913.4087336
1.191800832748413	560650560.4082692
1.1960728168487549	563291509.319117
1.2003488540649414	565865846.3490864
1.2046287059783936	577263954.3774557
1.2089121341705322	586081032.5879911
1.2131990194320679	590255766.522801
1.2174891233444214	600349579.3801863
1.2217823266983032	611543010.2239077
1.2260783910751343	619454306.2800684
1.230377197265625	622319307.7158402
1.2346785068511963	620176843.1011379
1.238982081413269	600137123.440644
1.2432878017425537	568417887.9367328
1.2475954294204712	553087103.3940518
1.2519049644470215	545663097.3671979
1.256216049194336	572471567.6238356
1.2605286836624146	616188962.4669247
1.2648425102233887	625568360.3594155
1.2691574096679688	626788887.6218853
1.2734732627868652	633306038.9636922
1.2777899503707886	637984427.4661391
1.2821072340011597	639626230.9360511
1.2864248752593994	637467214.6789062
1.2907428741455078	633083976.0897381
1.2950609922409058	631681112.7158914
1.2993791103363037	631758213.1787083
1.303696870803833	631823828.4997481
1.3080145120620728	631996936.1375881
1.3123314380645752	629179653.6346203
1.3166478872299194	622191314.2449914
1.3209635019302368	608312088.2802705
1.3252781629562378	581841894.4596832
1.3295916318893433	526733879.76633143
1.3339040279388428	428614088.8903132
1.3382149934768677	327966175.9060331
1.3425244092941284	288601847.9721808
1.3468321561813354	289398400.12126315
1.3511382341384888	270974949.302143
1.3554422855377197	266315852.6794927
1.3597444295883179	292687055.2327945
1.3640443086624146	314008118.1310804
1.3683418035507202	330885242.4627635
1.3726370334625244	345050814.0991631
1.3769296407699585	342521931.97820705
1.381219506263733	307446034.86235666
1.3855066299438477	277978634.7799384
1.3897908926010132	284123961.8065808
1.3940720558166504	294270341.4838805
1.3983501195907593	294203118.0090774
1.4026249647140503	306815567.8854989
1.4068963527679443	319653276.6462496
1.4111642837524414	294330938.33785856
1.4154287576675415	268465791.4932197
1.419689416885376	268941080.95889884
1.4239463806152344	273297496.77509236
1.4281994104385376	281222738.6091868
1.4324485063552856	280347105.7005398
1.436693549156189	274339834.8171496
1.440934419631958	283424683.0990772
1.4451709985733032	301639461.56867576
1.449403166770935	318737534.96826667
1.453631043434143	330567629.5792368
1.4578542709350586	341465383.0463551
1.4620729684829712	351475358.67098194
1.4662868976593018	352298513.9792429
1.4704961776733398	349643738.12465376
1.4747005701065063	351124978.55941427
1.4788999557495117	352314029.0777883
1.4830944538116455	356332455.7779265
1.4872838258743286	362914476.25878453
1.491468071937561	366770134.3300544
1.4956470727920532	373759945.3254398
1.4998208284378052	386625942.009912
1.5039892196655273	397493934.8489256
1.5081522464752197	400691371.2661061
1.5123097896575928	401493249.2197399
1.5164618492126465	406841123.10388094
1.5206083059310913	418972816.6865439
1.5247491598129272	427567938.6810714
1.5288842916488647	426954522.833626
1.5330137014389038	429785954.1450465
1.5371372699737549	435303163.7733855
1.541254997253418	438267333.97891957
1.545366883277893	443601645.3576649
1.5494728088378906	448858091.1415453
1.5535727739334106	451706205.2902462
1.5576666593551636	456663452.6589052
1.561754584312439	463122384.2956527
1.5658363103866577	468095677.0751477
1.5699119567871094	472389585.4439101
1.5739814043045044	476327772.02344835
1.5780447721481323	479605056.314618
1.582101821899414	483430805.078003
1.5861525535583496	488503623.39019626
1.5901970863342285	492902061.9901215
1.5942351818084717	495749567.69103706
1.5982669591903687	498033797.78817785
1.6022924184799194	500388181.3990041
1.606311559677124	502530618.1964474
1.6103241443634033	504668369.18436784
1.6143304109573364	506706660.69697785
1.6183301210403442	506452678.17309886
1.6223233938217163	505715254.4855876
1.6263102293014526	506687343.75398463
1.6302905082702637	506576349.98642033
1.634264349937439	505689899.6376455
1.638231635093689	505391863.13866735
1.6421923637390137	504272136.6331984
1.646146535873413	503211628.561441
1.6500942707061768	501680111.3346383
1.6540353298187256	500019837.18521
1.6579699516296387	498659058.6436335
1.661897897720337	496355663.21472514
1.6658192873001099	494511518.12665385
1.6697341203689575	493021942.14549255
1.6736423969268799	492198801.4329586
1.677544116973877	492123125.8936905
1.6814392805099487	490448682.8450058
1.6853278875350952	486148939.2717658
1.6892099380493164	479281766.82461303
1.6930854320526123	471681011.0185219
1.696954369544983	465552111.28333634
1.7008168697357178	460776086.00551707
1.7046726942062378	454884050.35209006
1.708522081375122	445642963.68063515
1.712364912033081	435129868.1874512
1.7162011861801147	425877867.1987527
1.7200311422348022	418514765.77576715
1.723854422569275	412299442.3265807
1.7276713848114014	403894322.9993571
1.731481909751892	392165601.6080418
1.7352858781814575	380992997.3505201
1.7390835285186768	371099509.7779894
1.7428747415542603	359959302.68001896
1.7466596364974976	351686472.0328474
1.7504380941390991	341339923.98263144
1.7542102336883545	319335661.87786615
1.7579760551452637	304418470.4048902
1.7617355585098267	308797944.72952896
1.7654887437820435	308757011.63091004
1.7692357301712036	293675693.4808868
1.7729763984680176	275633423.9780357
1.776710867881775	256659319.63882056
1.7804391384124756	242293184.2995339
1.7841613292694092	233321336.75116026
1.7878772020339966	221601626.3864289
1.7915871143341064	213803380.91918477
1.7952908277511597	211442991.91452947
1.7989884614944458	204813066.38837117
1.8026801347732544	191185475.15832666
1.806365728378296	178610961.40577745
1.8100452423095703	171325033.16784093
1.8137187957763672	167617331.4735506
1.817386507987976	167181438.29068932
1.8210482597351074	168754575.12068045
1.8247040510177612	170482773.57042882
1.828354001045227	174664547.61455485
1.8319982290267944	181248259.3921281
1.8356364965438843	184963916.45874134
1.8392690420150757	196278165.98959005
1.8428958654403687	209668377.68257
1.8465168476104736	202813195.9753169
1.8501322269439697	182366401.95068726
1.8537418842315674	163078690.4108967
1.8573459386825562	152665146.8941823
1.860944390296936	151285646.69534513
1.864537239074707	165058585.72035825
1.8681244850158691	188400847.78911754
1.871706247329712	194642413.7460137
1.8752825260162354	192286060.24852
1.8788533210754395	199151365.03268567
1.8824186325073242	206199573.3550761
1.8859784603118896	210973797.63861495
1.8895330429077148	216703749.76673308
1.8930821418762207	222187271.00369683
1.8966259956359863	226006954.78685087
1.9001644849777222	220598804.56639892
1.9036977291107178	215165727.9233211
1.9072256088256836	222110137.3382699
1.9107483625411987	221284740.19640696
1.9142658710479736	206509831.333457
1.9177782535552979	190418618.0068284
1.9212853908538818	173211133.03994635
1.9247875213623047	166233125.55975944
1.9282845258712769	172158777.28573215
1.9317764043807983	180045051.76390997
1.9352631568908691	187526699.03621522
1.9387450218200684	185685130.68130612
1.942221760749817	176263632.0883691
1.9456936120986938	170322492.7172813
1.9491604566574097	171394904.42644078
1.952622413635254	166178922.67620274
1.956079363822937	150893624.88241962
1.959531545639038	147954308.60913628
1.962978720664978	160166086.7335202
1.966421127319336	179926642.2528298
1.9698586463928223	195295285.00034106
1.9732913970947266	190739261.14350337
1.9767193794250488	181259486.36979604
1.9801424741744995	183276181.91766566
1.9835609197616577	195280786.6648581
1.9869745969772339	204009778.98993918
1.990383505821228	197736571.92359886
1.9937876462936401	193573273.87028468
1.9971871376037598	195908369.91378376
2.000581979751587	198790031.87997654
2.003972291946411	207260404.0650277
2.007357597351074	212214481.86973637
2.0107386112213135	212902148.4736384
2.0141148567199707	215271486.0658823
2.017486572265625	215716850.10324126
2.0208535194396973	221681132.40372357
2.0242159366607666	231747142.4727959
2.027573823928833	233494143.27770376
2.0309269428253174	232264979.07363972
2.034275770187378	234343889.8368202
2.0376198291778564	236195975.34828505
2.040959596633911	238381817.99527174
2.044294595718384	242903956.55998665
2.0476250648498535	249768113.6404593
2.0509510040283203	253334479.45802104
2.054272413253784	254160100.94734183
2.057589530944824	259480807.69471854
2.0609018802642822	262539215.89584318
2.0642096996307373	261903978.6131343
2.0675129890441895	266313550.7551529
2.0708119869232178	271168139.50683147
2.074106216430664	269669388.6082379
2.0773961544036865	267837332.51766545
2.080681324005127	269052347.1215227
2.0839622020721436	270086718.4430646
2.087238311767578	270960262.57143396
2.090510129928589	273241313.36679596
2.0937774181365967	275794898.294745
2.0970399379730225	277530052.6235456
2.1002981662750244	278546085.22371644
2.1035518646240234	278343404.51884717
2.1068007946014404	278050406.1904061
2.1100454330444336	280237575.2973902
2.1132853031158447	282836956.43573546
2.116520881652832	282697712.0351003
2.1197516918182373	282078837.2114059
2.1229779720306396	282780322.33209586
2.12619948387146	283288534.53554225
2.1294167041778564	283131443.85539883
2.132629156112671	283390952.32030386
2.1358368396759033	283334015.9483192
2.139039993286133	282247990.5043071
2.1422386169433594	282037579.58969444
2.145432472229004	282869955.6419884
2.1486217975616455	282258472.1281675
2.151806354522705	280764295.01343364
2.1549863815307617	280776549.51232034
2.1581614017486572	281376222.830798
2.16133189201355	280762629.8254918
2.1644976139068604	279530460.06766343
2.167658567428589	278727916.42464566
2.1708147525787354	277955690.03073925
2.173966407775879	276618786.00195676
2.1771130561828613	275251472.59556407
2.1802549362182617	274757130.3403518
2.183391809463501	274751115.22821033
2.1865241527557373	274251146.6743752
2.1896514892578125	273196310.7971444
2.1927738189697266	271750246.8561799
2.1958916187286377	270214856.7086893
2.1990041732788086	268946796.5781362
2.2021119594573975	267343989.4800646
2.2052149772644043	265583051.44771764
2.208312749862671	264959097.02696046
2.2114057540893555	265318098.47537002
2.214493751525879	265317722.95575908
2.217576742172241	264248728.81258443
2.2206547260284424	262886612.2351576
2.2237277030944824	262174655.15162697
2.2267956733703613	261457304.613598
2.2298583984375	260404571.21186328
2.2329163551330566	259406904.45287186
2.235969066619873	258627113.9998059
2.2390167713165283	257824351.91367534
2.2420592308044434	256140490.77414313
2.2450966835021973	254076344.08582506
2.248128890991211	252566217.68656623
2.2511560916900635	251575796.95382896
2.254178285598755	250967538.42265034
2.257194995880127	250642263.78506285
2.260206699371338	250307204.23235196
2.2632133960723877	248771121.86310127
2.266214609146118	246483283.62021446
2.2692108154296875	244697347.31956977
2.2722020149230957	243784979.33148992
2.2751877307891846	244096252.63380826
2.278168201446533	243436546.33118862
2.2811436653137207	241405730.2087345
2.284113883972168	241101212.41632727
2.287078857421875	241422434.81842688
2.290038824081421	235557087.6545764
2.2929933071136475	219549196.55710396
2.295942783355713	199632662.19196948
2.298887014389038	184197020.98737827
2.301826238632202	174176829.90143952
2.304760217666626	167774000.04449344
2.3076889514923096	164678989.50053456
2.310612440109253	165290491.95644602
2.3135311603546143	167903044.24231446
2.3164443969726562	168511874.43676233
2.319352865219116	167174912.53068697
2.322256088256836	167668704.00222123
2.3251543045043945	171618254.1084815
2.328047275543213	173095441.64399412
2.330935478210449	168389807.91015577
2.3338186740875244	165531687.04310814
2.3366971015930176	169424047.22780874
2.3395702838897705	176543873.8708699
2.3424389362335205	183176121.62770054
2.3453025817871094	188370155.14377144
2.348161458969116	190515803.20450187
2.351015567779541	187112052.6931361
2.353865146636963	180341469.14104316
2.3567099571228027	174742883.01460454
2.3595502376556396	173309683.04164413
2.3623859882354736	175567374.64810175
2.3652172088623047	177315161.75874403
2.368043899536133	177291242.87561876
2.370866537094116	177733568.3080149
2.3736846446990967	176719354.0816452
2.3764986991882324	171770999.13616168
2.3793084621429443	168058168.30305427
2.3821144104003906	167477699.4663206
2.384916305541992	165321155.82277498
2.387714147567749	164343261.83933368
2.3905084133148193	167918344.4141402
2.393299102783203	170928019.2294914
2.3960859775543213	170559711.37275836
2.398869514465332	168865484.79901233
2.4016497135162354	166652733.11065653
2.4044265747070312	164647597.97925994
2.407200336456299	163270746.9275657
2.409970998764038	160834468.32094714
2.4127390384674072	157151848.0114372
2.415503978729248	154758287.16083515
2.418266534805298	153767822.06572118
2.4210267066955566	151667946.93277222
2.4237842559814453	147837541.8351903
2.426539897918701	143533981.42771637
2.429293394088745	140963085.3792726
2.4320452213287354	140008527.61264777
2.4347951412200928	136791073.77683938
2.4375438690185547	132345334.68356667
2.440291166305542	129958495.16804565
2.443037271499634	124459518.30768871
2.445782423019409	115996609.28435215
2.4485268592834473	112943871.26488288
2.451270818710327	111630665.52271006
2.454014539718628	110906969.2622704
2.4567582607269287	114179667.55661009
2.4595019817352295	111924384.22912744
2.4622461795806885	108676563.66919631
2.4649908542633057	107472680.5897133
2.4677364826202393	99443057.4666507
2.4704833030700684	89077232.41646883
2.473231554031372	80276245.10856472
2.4759814739227295	73603780.12037823
2.4787333011627197	71959321.04057752
