#wavelength	surface flux
0.6450077295303345	28267.948528062636
0.6472567915916443	44790.57177932001
0.6494921445846558	59090.437779608925
0.6517150402069092	68699.5396384037
0.6539263725280762	78761.77032423411
0.6561272740364075	89585.2785431247
0.6583186388015747	101177.58123704918
0.6605015397071838	113505.57791111649
0.6626768708229065	126250.45356656962
0.6648455858230591	138051.10691600278
0.6670085787773132	141069.2476718146
0.6691668033599854	124169.53317074785
0.6713210344314575	117244.30085896501
0.6734722256660461	155893.9275647014
0.6756211519241333	205757.25579695724
0.6777685880661011	236374.07797026105
0.6799154281616211	258573.324957798
0.6820623278617859	279046.4968827113
0.6842101216316223	298854.38925266993
0.6863595843315125	317999.5751134302
0.688511312007904	335858.4030257972
0.6906660795211792	350568.46222069114
0.6928245425224304	363651.9933350401
0.6949873566627502	380260.0699640813
0.6971551775932312	398776.25269400486
0.6993286609649658	413429.04722792667
0.7015084028244019	423648.70221646636
0.7036949396133423	432381.5088867811
0.7058889269828796	440022.58392481104
0.7080909013748169	444747.7637403416
0.710301399230957	446180.7714971958
0.712520956993103	443624.9020791688
0.7147500514984131	434265.38897991256
0.7169892191886902	417809.58495681046
0.7192389369010925	401556.5680225987
0.7214996814727783	388188.2235482752
0.723771870136261	370826.535021047
0.7260559797286987	347882.82677664974
0.7283523678779602	322376.49836351123
0.7306615710258484	295357.26675864897
0.7329838871955872	267916.54466001724
0.7353196740150452	239097.96511024924
0.7376693487167358	208076.93161886575
0.7400332689285278	176990.40548777656
0.7424117922782898	146674.69622708022
0.7448052167892456	117398.79210461183
0.7472138404846191	90332.01446427703
0.7496379613876343	66241.69351539452
0.7520779371261597	45806.677160777705
0.7545340061187744	29553.341787199526
0.7570064663887024	17552.433453018417
0.7594954967498779	9439.45519298117
0.7620013952255249	4456.4749663421235
0.7645244002342224	1718.6901544947668
0.7670646905899048	563.4973915877774
0.7696225643157959	613.3721752611823
0.7721980810165405	2177.0965039645816
0.7747915983200073	6055.516898592024
0.7774031162261963	12307.06103431343
0.7800329327583313	23259.78914924894
0.7826811671257019	45277.927735018406
0.7853479981422424	79352.30287931835
0.7880334854125977	121140.20065844098
0.7907378077507019	151098.79459802402
0.7934610247612	156850.99707519423
0.7962033748626709	222410.804949897
0.7989648580551147	377389.99607847404
0.801745593547821	531906.2231081288
0.8045456409454346	667387.7015257428
0.8073651194572449	804559.4666991454
0.8102040886878967	940102.1912016406
0.8130625486373901	1089899.7475229355
0.8159406185150146	1277318.282986032
0.8188382983207703	1496641.3515048795
0.8217556476593018	1738475.8347388385
0.8246926665306091	2005823.2089918766
0.8276493549346924	2292712.929138667
0.8306257724761963	2590848.4811278884
0.8336219191551208	2897911.918568974
0.8366377949714661	3220367.892310032
0.8396733403205872	3578126.2152360263
0.8427285552024841	3988024.3013754743
0.8458034992218018	4392193.45440912
0.8488980531692505	4447034.112193567
0.8520121574401855	4360961.3845536625
0.8551458716392517	5170218.545578814
0.8582990765571594	6329292.553250398
0.8614717125892639	6665275.578374197
0.8646637797355652	6803098.898307198
0.8678751587867737	7395056.451363271
0.8711057901382446	8092373.563445165
0.8743556141853333	8721941.09289578
0.87762451171875	9373838.511025092
0.8809124231338501	9958638.85050825
0.8842192888259888	10534650.299875606
0.8875449895858765	10829503.576894125
0.8908893465995789	10102513.650150457
0.894252359867096	9472753.068053193
0.8976338505744934	11258206.454794608
0.9010337591171265	14489572.095142184
0.9044519662857056	16924768.82883049
0.9078882932662964	18435546.147290085
0.9113426208496094	19541402.264070194
0.914814829826355	20120980.82266575
0.9183048605918884	20451949.012800477
0.9218124747276306	20695326.09379225
0.925337553024292	17525281.3874306
0.9288799166679382	11447723.641354633
0.9324395060539246	8995330.5027367
0.9360161423683167	11067903.287913712
0.9396095871925354	13387040.304013649
0.943219780921936	12311036.759128537
0.9468464851379395	9948003.763975436
0.9504896402359009	10579409.274004454
0.9541489481925964	13326708.637503112
0.9578243494033813	14301887.45902601
0.9615156054496765	12436713.044218421
0.9652225375175476	11578808.103578966
0.9689450263977051	14529734.736666024
0.9726828336715698	20069902.832142718
0.9764357805252075	23641455.80511481
0.9802037477493286	24452078.478193525
0.983986496925354	26188778.768911637
0.9877838492393494	28835024.311791956
0.9915955662727356	30553449.902439874
0.9954215884208679	30808286.06955537
0.9992615580558777	29635747.499965966
1.0031154155731201	29374138.22750246
1.0069829225540161	31630308.098968048
1.0108637809753418	35131260.244887784
1.0147579908370972	38553618.48914579
1.018665075302124	40838405.318755515
1.022585153579712	41496545.81549505
1.0265177488327026	41708528.573497154
1.0304628610610962	43391563.50990975
1.0344202518463135	46186092.61707324
1.0383895635604858	48098379.97097048
1.0423706769943237	48840468.3958176
1.0463634729385376	49256941.99136195
1.0503677129745483	49466842.0747202
1.0543830394744873	49971951.40330866
1.058409333229065	50977252.913206175
1.0624464750289917	51602589.23469473
1.0664942264556885	51393632.72105063
1.0705522298812866	50856647.27757144
1.0746204853057861	50746237.59719732
1.0786986351013184	50874769.09872268
1.0827864408493042	50400724.2212351
1.086883783340454	47747666.3876941
1.0909905433654785	41452417.26044606
1.0951062440872192	33252295.087944556
1.0992310047149658	24602982.538608186
1.10336434841156	16245048.410516469
1.1075061559677124	11974269.936951375
1.1116561889648438	10261468.16528609
1.115814208984375	8336149.849131971
1.1199802160263062	6589782.114484475
1.124153733253479	5373557.840626584
1.1283347606658936	5814231.517674095
1.1325229406356812	6244683.375568421
1.1367181539535522	7840432.6745003965
1.1409201622009277	10022652.815763878
1.145128846168518	10230790.119300328
1.1493438482284546	9439831.69246285
1.1535650491714478	7193013.020679499
1.1577922105789185	5548412.760713188
1.1620250940322876	6187198.675921542
1.1662636995315552	7360249.233275038
1.170507550239563	8498638.287758686
1.174756646156311	11016416.437683728
1.1790107488632202	15915827.183422703
1.1832695007324219	22211786.005251534
1.1875330209732056	27072913.229314275
1.191800832748413	31220385.840699647
1.1960728168487549	36062644.67560324
1.2003488540649414	39660816.052030295
1.2046287059783936	42614568.42154508
1.2089121341705322	44554188.50519259
1.2131990194320679	46127743.42178421
1.2174891233444214	49494591.87700243
1.2217823266983032	53441247.334873505
1.2260783910751343	56502726.1351388
1.230377197265625	58606999.81578994
1.2346785068511963	60514164.951442726
1.238982081413269	61670897.51929582
1.2432878017425537	61883561.70974143
1.2475954294204712	62266441.68603255
1.2519049644470215	62835173.67929039
1.256216049194336	66361912.15314394
1.2605286836624146	70791478.30475931
1.2648425102233887	72174809.32693861
1.2691574096679688	72856944.35097498
1.2734732627868652	73608614.03552859
1.2777899503707886	72846008.23694523
1.2821072340011597	70003191.1740023
1.2864248752593994	66169035.83242482
1.2907428741455078	61660187.68722456
1.2950609922409058	58737773.49673269
1.2993791103363037	57929748.431740336
1.303696870803833	57738682.82879452
1.3080145120620728	57575389.53946492
1.3123314380645752	55811882.24933193
1.3166478872299194	53721866.077206455
1.3209635019302368	49264346.508288376
1.3252781629562378	38548277.87083889
1.3295916318893433	24180240.912812147
1.3339040279388428	10882410.205828838
1.3382149934768677	3104268.878712734
1.3425244092941284	895873.5313463747
1.3468321561813354	550674.9734085178
1.3511382341384888	344647.5315282427
1.3554422855377197	218004.3148723167
1.3597444295883179	244651.21547709295
1.3640443086624146	237227.85127375773
1.3683418035507202	264037.1944923949
1.3726370334625244	364808.4302696828
1.3769296407699585	369854.8493433204
1.381219506263733	200327.3539867741
1.3855066299438477	87943.20621494336
1.3897908926010132	139841.22927106274
1.3940720558166504	255589.35946012943
1.3983501195907593	401529.9569984209
1.4026249647140503	678728.6780279914
1.4068963527679443	843225.5003506753
1.4111642837524414	573437.7846136767
1.4154287576675415	286302.2416355818
1.419689416885376	273259.0060078653
1.4239463806152344	384158.8451537796
1.4281994104385376	573251.387925593
1.4324485063552856	644633.7435351278
1.436693549156189	661907.5715558451
1.440934419631958	970894.5744712306
1.4451709985733032	1448292.2545394597
1.449403166770935	1911605.405802574
1.453631043434143	2413593.949190328
1.4578542709350586	3137648.076423289
1.4620729684829712	3718687.0403611595
1.4662868976593018	3777213.621088534
1.4704961776733398	3882821.0224990626
1.4747005701065063	4142764.967770861
1.4788999557495117	4164498.066861046
1.4830944538116455	4256589.910965064
1.4872838258743286	4385058.502822479
1.491468071937561	4493029.93817218
1.4956470727920532	5234044.2502039
1.4998208284378052	7017399.311753886
1.5039892196655273	8937083.63414405
1.5081522464752197	9664291.50427846
1.5123097896575928	10654107.684182698
1.5164618492126465	12926285.97203563
1.5206083059310913	15521362.319784218
1.5247491598129272	17670782.101539236
1.5288842916488647	19154872.11443168
1.5330137014389038	20885993.63654032
1.5371372699737549	22652512.65736507
1.541254997253418	24182319.04300502
1.545366883277893	26166498.308469407
1.5494728088378906	28083100.289352454
1.5535727739334106	29312506.35186265
1.5576666593551636	30613814.854444794
1.561754584312439	32705748.216755275
1.5658363103866577	34760226.05091821
1.5699119567871094	35647733.230206355
1.5739814043045044	35524397.65702022
1.5780447721481323	35558072.37244078
1.582101821899414	36542189.583362706
1.5861525535583496	37604379.99483153
1.5901970863342285	37226429.522267416
1.5942351818084717	35921967.73064433
1.5982669591903687	34855632.689399816
1.6022924184799194	33496544.746671304
1.606311559677124	31733561.414841887
1.6103241443634033	30210123.810251206
1.6143304109573364	28514978.19822987
1.6183301210403442	26109498.555552896
1.6223233938217163	23377010.437892213
1.6263102293014526	21008353.063822575
1.6302905082702637	19651046.247093663
1.634264349937439	20921705.969104882
1.638231635093689	24175705.4221575
1.6421923637390137	23988396.12712676
1.646146535873413	19462831.62172285
1.6500942707061768	17736334.180249665
1.6540353298187256	20285561.689364914
1.6579699516296387	21653226.39112766
1.661897897720337	19640124.795687813
1.6658192873001099	14278399.332584739
1.6697341203689575	10772645.424167722
1.6736423969268799	12637380.211197749
1.677544116973877	14188270.236430224
1.6814392805099487	13728796.12434501
1.6853278875350952	12886788.38909206
1.6892099380493164	11325331.763522442
1.6930854320526123	9219692.200832041
1.696954369544983	7506539.169734142
1.7008168697357178	7257858.011434599
1.7046726942062378	7954147.736419781
1.708522081375122	9143494.671978433
1.712364912033081	10586782.090829767
1.7162011861801147	11817839.45722414
1.7200311422348022	12405359.599384
1.723854422569275	11923433.748707429
1.7276713848114014	10957699.237218974
1.731481909751892	10135646.424971472
1.7352858781814575	9490797.58880312
1.7390835285186768	8944594.569131436
1.7428747415542603	8339773.912762976
1.7466596364974976	7779348.999980774
1.7504380941390991	7035662.166951513
1.7542102336883545	5739308.327321839
1.7579760551452637	4839806.596872189
1.7617355585098267	4714027.398133435
1.7654887437820435	4271640.344028541
1.7692357301712036	3432787.880555171
1.7729763984680176	2709869.5045439997
1.776710867881775	2043746.0095238308
1.7804391384124756	1656997.7107370524
1.7841613292694092	1529104.1154864654
1.7878772020339966	1210921.8235822285
1.7915871143341064	909202.7859356288
1.7952908277511597	885284.5464376339
1.7989884614944458	882775.2123892686
1.8026801347732544	611821.1713795888
1.806365728378296	329114.32785928465
1.8100452423095703	234318.93568482186
1.8137187957763672	188987.33690624346
1.817386507987976	171322.54449969679
1.8210482597351074	172605.54222337506
1.8247040510177612	163831.78285780115
1.828354001045227	145920.3347691966
1.8319982290267944	145734.99432348757
1.8356364965438843	157611.5032461685
1.8392690420150757	260996.26691205573
1.8428958654403687	557170.3414138373
1.8465168476104736	762190.9447078722
1.8501322269439697	606518.3176808909
1.8537418842315674	389315.74500897323
1.8573459386825562	391155.7526587363
1.860944390296936	399911.18786493136
1.864537239074707	332550.74442956503
1.8681244850158691	318313.2990285512
1.871706247329712	307099.99516651663
1.8752825260162354	488491.81703940354
1.8788533210754395	994461.965181113
1.8824186325073242	1252685.2025341708
1.8859784603118896	1051809.7827529889
1.8895330429077148	979139.3443222076
1.8930821418762207	1428349.0807605304
1.8966259956359863	1655649.3514388746
1.9001644849777222	982637.8195416062
1.9036977291107178	455740.77708699804
1.9072256088256836	616674.9506221312
1.9107483625411987	625156.8269352617
1.9142658710479736	342651.3009182459
1.9177782535552979	187446.55304869844
1.9212853908538818	147236.30965876824
1.9247875213623047	150179.86570057707
1.9282845258712769	190692.6680829879
1.9317764043807983	242526.37079147328
1.9352631568908691	325606.0748622789
1.9387450218200684	430545.578727195
1.942221760749817	518451.9658432663
1.9456936120986938	550708.613833826
1.9491604566574097	624140.9970727117
1.952622413635254	627446.8298054427
1.956079363822937	476262.20844565163
1.959531545639038	471473.9746946226
1.962978720664978	719177.9524254109
1.966421127319336	1205846.512990564
1.9698586463928223	1704309.329662809
1.9732913970947266	1740439.9187027044
1.9767193794250488	1500174.7200934503
1.9801424741744995	1615894.2285671094
1.9835609197616577	2278948.232214874
1.9869745969772339	2738832.8863172964
1.990383505821228	2461464.4873365923
1.9937876462936401	2261202.6755801043
1.9971871376037598	2630588.4372747396
2.000581979751587	2990004.648792938
2.003972291946411	2911641.131956898
2.007357597351074	3168907.8661471615
2.0107386112213135	4161657.5624577925
2.0141148567199707	4692602.235568213
2.017486572265625	4522991.332055329
2.0208535194396973	4568585.016422685
2.0242159366607666	4787547.962122873
2.027573823928833	5017351.236368509
2.0309269428253174	5330465.886527339
2.034275770187378	5504745.607606775
2.0376198291778564	5692627.001788734
2.040959596633911	6075929.864930278
2.044294595718384	6574984.723545942
2.0476250648498535	7080275.779637047
2.0509510040283203	7156325.996015722
2.054272413253784	6907771.806997195
2.057589530944824	7045861.008950624
2.0609018802642822	7404014.7226916915
2.0642096996307373	7538434.2985112425
2.0675129890441895	7586002.273142369
2.0708119869232178	7619969.849397803
2.074106216430664	7551484.298144576
2.0773961544036865	7456528.926581752
2.080681324005127	7414586.112067394
2.0839622020721436	7402748.596734665
2.087238311767578	7412178.099509041
2.090510129928589	7414892.573642306
2.0937774181365967	7369568.031918091
2.0970399379730225	7306765.875558018
2.1002981662750244	7218545.254850763
2.1035518646240234	7085972.790974994
2.1068007946014404	6947920.317306933
2.1100454330444336	6863860.022522169
2.1132853031158447	6832903.761759529
2.116520881652832	6778489.0320854895
2.1197516918182373	6696064.517129545
2.1229779720306396	6632343.335368515
2.12619948387146	6575119.716623529
2.1294167041778564	6505503.019130656
2.132629156112671	6433050.389512348
2.1358368396759033	6314017.3152056895
2.139039993286133	6157689.485766081
2.1422386169433594	5959791.880321835
2.145432472229004	5767542.49319862
2.1486217975616455	5648154.186725422
2.151806354522705	5492312.89358041
2.1549863815307617	5406524.59390552
2.1581614017486572	5377728.42703123
2.16133189201355	5252161.613183249
2.1644976139068604	5137308.807090719
2.167658567428589	5048581.575589208
2.1708147525787354	4960621.835589602
2.173966407775879	4870628.287573889
2.1771130561828613	4734529.599470617
2.1802549362182617	4554489.94523662
2.183391809463501	4368940.791208773
2.1865241527557373	4162544.121256714
2.1896514892578125	3812297.7819939842
2.1927738189697266	3214617.8693613443
2.1958916187286377	2528450.0544697754
2.1990041732788086	1952124.0198849074
2.2021119594573975	1534185.1951568176
2.2052149772644043	1380934.902624775
2.208312749862671	1566576.3723477225
2.2114057540893555	1912240.710836939
2.214493751525879	2129138.341749323
2.217576742172241	2103249.3641626034
2.2206547260284424	1925104.8344064262
2.2237277030944824	1752515.6049685539
2.2267956733703613	1621380.408675226
2.2298583984375	1520780.4932963725
2.2329163551330566	1439343.2920788333
2.235969066619873	1349209.3186022935
2.2390167713165283	1253346.663191802
2.2420592308044434	1079350.2145261157
2.2450966835021973	830024.3991754232
2.248128890991211	766571.9917013973
2.2511560916900635	920517.3487565649
2.254178285598755	987687.2216232868
2.257194995880127	956755.5940680989
2.260206699371338	938701.6749527552
2.2632133960723877	887015.7134027459
2.266214609146118	864229.1969533279
2.2692108154296875	947614.632273061
2.2722020149230957	1089276.2984013103
2.2751877307891846	1174941.0447561713
2.278168201446533	1134690.4308951553
2.2811436653137207	1025028.5746312422
2.284113883972168	927382.5875279211
2.287078857421875	855541.6492608236
2.290038824081421	798908.0318897666
2.2929933071136475	784773.601714592
2.295942783355713	803814.0015533381
2.298887014389038	800701.9061266691
2.301826238632202	824732.6465272689
2.304760217666626	1033682.7787101467
2.3076889514923096	1456511.7061350152
2.310612440109253	1858931.7925239205
2.3135311603546143	1839716.0930882455
2.3164443969726562	1289565.1545757193
2.319352865219116	755002.0539547007
2.322256088256836	639556.8428452715
2.3251543045043945	682910.132700368
2.328047275543213	662673.0843537925
2.330935478210449	650354.8721172932
2.3338186740875244	659938.263050377
2.3366971015930176	639983.6125680304
2.3395702838897705	596001.6571862719
2.3424389362335205	539530.6128667359
2.3453025817871094	499072.19950284885
2.348161458969116	520865.8049788843
2.351015567779541	618717.4585516007
2.353865146636963	760751.7078421266
2.3567099571228027	907893.3891783307
2.3595502376556396	1075390.8456075126
2.3623859882354736	1224531.4972054947
2.3652172088623047	1168800.9149352708
2.368043899536133	845099.4243702713
2.370866537094116	506397.7633919525
2.3736846446990967	414481.68579421984
2.3764986991882324	525321.2915878057
2.3793084621429443	656017.3468839466
2.3821144104003906	725132.2238248566
2.384916305541992	775057.1927787049
2.387714147567749	855637.1697671624
2.3905084133148193	927608.056360289
2.393299102783203	951818.7684360999
2.3960859775543213	957175.722471478
2.398869514465332	1000319.8473161983
2.4016497135162354	1035867.495632505
2.4044265747070312	1013153.321017652
2.407200336456299	1041693.6169030366
2.409970998764038	1206445.2713978027
2.4127390384674072	1380497.756497922
2.415503978729248	1401990.0463871176
2.418266534805298	1344182.624844436
2.4210267066955566	1354669.7787051906
2.4237842559814453	1399821.2133855394
2.426539897918701	1464557.0765991157
2.429293394088745	1661651.263455372
2.4320452213287354	1879246.3533164249
2.4347951412200928	1858103.5893032467
2.4375438690185547	1781891.8810754928
2.440291166305542	1955647.642598278
2.443037271499634	2045717.5922737163
2.445782423019409	1781372.955582207
2.4485268592834473	1518536.3480187512
2.451270818710327	1502351.166336741
2.454014539718628	1655233.3150479917
2.4567582607269287	1812315.6318523723
2.4595019817352295	1831644.6488888208
2.4622461795806885	1812110.4458326967
2.4649908542633057	1761623.1493177435
2.4677364826202393	1578031.1575198516
2.4704833030700684	1363920.3982996983
2.473231554031372	1176605.8072350502
2.4759814739227295	1020975.26386292
2.4787333011627197	965337.070800378
2.481487512588501	1033758.6454783457
