#wavelength	surface flux
0.6450077295303345	22565.71516687038
0.6472567915916443	35227.663356679746
0.6494921445846558	45305.162744412
0.6517150402069092	51191.46073754621
0.6539263725280762	57150.17680287129
0.6561272740364075	63430.31236453748
0.6583186388015747	70087.17481773342
0.6605015397071838	77208.5158955908
0.6626768708229065	84734.86925942912
0.6648455858230591	92411.57947351816
0.6670085787773132	97644.07889609804
0.6691668033599854	95409.5477961361
0.6713210344314575	96702.79223548586
0.6734722256660461	114642.36268881605
0.6756211519241333	134990.46812404264
0.6777685880661011	147761.74722289803
0.6799154281616211	158496.90599421662
0.6820623278617859	169150.07226671115
0.6842101216316223	179811.8193749436
0.6863595843315125	190382.2989158355
0.688511312007904	200316.46791780685
0.6906660795211792	208113.9246720634
0.6928245425224304	215018.63680227692
0.6949873566627502	225180.93932450103
0.6971551775932312	237454.35227380935
0.6993286609649658	247348.3719350112
0.7015084028244019	254541.41627926784
0.7036949396133423	261572.4611109108
0.7058889269828796	268760.9100124764
0.7080909013748169	274649.62372650625
0.710301399230957	279034.533985706
0.712520956993103	281290.77646354586
0.7147500514984131	278814.20168252353
0.7169892191886902	271120.0189468512
0.7192389369010925	264738.5276069398
0.7214996814727783	262266.2153226432
0.723771870136261	257366.1958037849
0.7260559797286987	248209.63265793605
0.7283523678779602	237234.7669363382
0.7306615710258484	225372.05814235174
0.7329838871955872	213628.76670445316
0.7353196740150452	200413.27122271928
0.7376693487167358	184195.5637850238
0.7400332689285278	166907.52724678797
0.7424117922782898	148857.67957226362
0.7448052167892456	129687.35594978025
0.7472138404846191	110263.4578612588
0.7496379613876343	90947.28263794143
0.7520779371261597	72201.4997076697
0.7545340061187744	54717.864075261336
0.7570064663887024	39029.275788092826
0.7594954967498779	25546.362457160252
0.7620013952255249	14561.629461335946
0.7645244002342224	6560.406661190452
0.7670646905899048	2408.252571048017
0.7696225643157959	2547.8392901463367
0.7721980810165405	7925.645281258004
0.7747915983200073	19098.431213462503
0.7774031162261963	33537.41019636374
0.7800329327583313	52072.073134642946
0.7826811671257019	81879.43022433516
0.7853479981422424	121619.89245354633
0.7880334854125977	163846.86941023724
0.7907378077507019	189658.4930809688
0.7934610247612	187130.5627263511
0.7962033748626709	236284.5547079137
0.7989648580551147	361910.8311518413
0.801745593547821	476740.8815086209
0.8045456409454346	565827.139453774
0.8073651194572449	648460.6809123373
0.8102040886878967	720051.650614814
0.8130625486373901	797729.0258080082
0.8159406185150146	907767.6915020917
0.8188382983207703	1040669.8302471613
0.8217556476593018	1177085.0212878317
0.8246926665306091	1322414.5382362956
0.8276493549346924	1478050.6996821042
0.8306257724761963	1634069.661663539
0.8336219191551208	1786887.4597109354
0.8366377949714661	1942850.3875225056
0.8396733403205872	2119234.227352631
0.8427285552024841	2331218.4308998017
0.8458034992218018	2564315.160174902
0.8488980531692505	2670158.4962073537
0.8520121574401855	2707089.775610039
0.8551458716392517	3099801.0453714193
0.8582990765571594	3689682.4740756946
0.8614717125892639	4081924.4953807523
0.8646637797355652	4397284.38783307
0.8678751587867737	4759641.1477738265
0.8711057901382446	5149259.076532367
0.8743556141853333	5526290.108300122
0.87762451171875	5868770.554764378
0.8809124231338501	6162881.852475507
0.8842192888259888	6407069.34081215
0.8875449895858765	6464980.377602741
0.8908893465995789	5988005.210208375
0.894252359867096	5484520.09915455
0.8976338505744934	6243302.200532011
0.9010337591171265	7865102.328927775
0.9044519662857056	9105426.172415258
0.9078882932662964	9775848.71376415
0.9113426208496094	10144497.641223136
0.914814829826355	10233723.73211988
0.9183048605918884	10194951.587469572
0.9218124747276306	10151960.437827531
0.925337553024292	8320446.628418277
0.9288799166679382	5002560.664924446
0.9324395060539246	3552387.40308064
0.9360161423683167	4318121.759723345
0.9396095871925354	5298535.630707308
0.943219780921936	4735240.1064993
0.9468464851379395	3541752.0344964727
0.9504896402359009	3788619.7873875075
0.9541489481925964	5108126.228046869
0.9578243494033813	5586959.282547141
0.9615156054496765	4672943.634621132
0.9652225375175476	4291413.423723035
0.9689450263977051	5884515.308339254
0.9726828336715698	8838289.073829558
0.9764357805252075	10696494.742367927
0.9802037477493286	11106017.11595347
0.983986496925354	12234417.918586401
0.9877838492393494	14373352.455899285
0.9915955662727356	16610825.606087707
0.9954215884208679	18476179.877265286
0.9992615580558777	19792789.890726913
1.0031154155731201	21211109.877186656
1.0069829225540161	23569082.804216404
1.0108637809753418	26778431.532663174
1.0147579908370972	30281701.512968726
1.018665075302124	33124232.79804196
1.022585153579712	34685451.14612103
1.0265177488327026	35840727.61398112
1.0304628610610962	38468073.52686016
1.0344202518463135	42678112.508820385
1.0383895635604858	46417408.58220264
1.0423706769943237	49155295.92664224
1.0463634729385376	51486051.82915767
1.0503677129745483	53558786.886911206
1.0543830394744873	56600948.462867945
1.058409333229065	60472121.12996578
1.0624464750289917	63517320.939514734
1.0664942264556885	65294324.22540404
1.0705522298812866	66753200.38672926
1.0746204853057861	69492059.82691705
1.0786986351013184	72762324.02979015
1.0827864408493042	73349271.00599378
1.086883783340454	66282146.92817982
1.0909905433654785	49979952.765373714
1.0951062440872192	32616995.15102535
1.0992310047149658	20130671.633923046
1.10336434841156	11216443.313598607
1.1075061559677124	7223538.074734105
1.1116561889648438	6092545.983327176
1.115814208984375	4678342.917224019
1.1199802160263062	3393340.0069209514
1.124153733253479	2488039.070697542
1.1283347606658936	2656871.455495483
1.1325229406356812	3029144.1102911993
1.1367181539535522	4142112.6990059833
1.1409201622009277	5330119.801377225
1.145128846168518	5268944.771922411
1.1493438482284546	4792767.3583267005
1.1535650491714478	3486799.3561257105
1.1577922105789185	2462158.5412861584
1.1620250940322876	2803096.06214506
1.1662636995315552	3496041.9233304462
1.170507550239563	4261112.170438224
1.174756646156311	6145069.640043116
1.1790107488632202	10071885.692505822
1.1832695007324219	15560588.464878604
1.1875330209732056	20094093.01166239
1.191800832748413	24978433.310433704
1.1960728168487549	31311764.616507288
1.2003488540649414	36714189.2599494
1.2046287059783936	42151733.12458112
1.2089121341705322	45769575.37366628
1.2131990194320679	49030459.68451574
1.2174891233444214	56758965.83241615
1.2217823266983032	66739015.20832884
1.2260783910751343	74874519.14313735
1.230377197265625	79990045.86337474
1.2346785068511963	83825496.09989478
1.238982081413269	83558974.03703742
1.2432878017425537	79602201.26560113
1.2475954294204712	78129486.5165143
1.2519049644470215	78697517.4178633
1.256216049194336	88212880.75409603
1.2605286836624146	99694789.73050442
1.2648425102233887	100089733.89911523
1.2691574096679688	97567884.98201954
1.2734732627868652	96082085.71225591
1.2777899503707886	91548011.04007001
1.2821072340011597	82163020.4973702
1.2864248752593994	71525254.4317493
1.2907428741455078	61060586.20157643
1.2950609922409058	54458242.46075945
1.2993791103363037	52373467.29470727
1.303696870803833	51423701.5953825
1.3080145120620728	50497294.70450645
1.3123314380645752	46487737.55489487
1.3166478872299194	41887486.956962004
1.3209635019302368	36425885.090886645
1.3252781629562378	26278401.42260199
1.3295916318893433	14941338.897642897
1.3339040279388428	6319814.164730786
1.3382149934768677	1724593.894352658
1.3425244092941284	486596.9920682117
1.3468321561813354	291293.0393606505
1.3511382341384888	178703.7896113859
1.3554422855377197	106028.23175613258
1.3597444295883179	113339.11203093549
1.3640443086624146	103010.2735784751
1.3683418035507202	111849.08506262745
1.3726370334625244	157921.46861207858
1.3769296407699585	159666.5495258824
1.381219506263733	84476.82807646485
1.3855066299438477	37419.099709223956
1.3897908926010132	63884.12234882524
1.3940720558166504	121359.29354110383
1.3983501195907593	199653.96680091164
1.4026249647140503	346051.3401664613
1.4068963527679443	430961.97860755643
1.4111642837524414	290358.9356997673
1.4154287576675415	139632.34898584604
1.419689416885376	131662.09719060385
1.4239463806152344	190806.690804412
1.4281994104385376	293743.73275131616
1.4324485063552856	335481.58345146384
1.436693549156189	350237.29022557737
1.440934419631958	531123.6868701332
1.4451709985733032	809236.2189924704
1.449403166770935	1073562.9391060057
1.453631043434143	1365081.3667338623
1.4578542709350586	1815608.979356283
1.4620729684829712	2165022.906848731
1.4662868976593018	2187344.981709608
1.4704961776733398	2289077.026001333
1.4747005701065063	2484911.63944507
1.4788999557495117	2510204.672092272
1.4830944538116455	2668422.774703712
1.4872838258743286	2941497.771235097
1.491468071937561	3174106.5655275076
1.4956470727920532	3819599.3114103563
1.4998208284378052	5220611.7253682595
1.5039892196655273	6533203.799212302
1.5081522464752197	6954325.775328746
1.5123097896575928	7848958.749386068
1.5164618492126465	9804679.19793098
1.5206083059310913	12331165.546896372
1.5247491598129272	14490624.397255851
1.5288842916488647	15449211.870998815
1.5330137014389038	16972113.83515455
1.5371372699737549	18673165.36987987
1.541254997253418	19620712.10420148
1.545366883277893	21645377.55235596
1.5494728088378906	24028335.666804228
1.5535727739334106	25096789.092255536
1.5576666593551636	25953107.810815815
1.561754584312439	28362258.211238567
1.5658363103866577	31950266.907700483
1.5699119567871094	34462007.10748613
1.5739814043045044	34964568.45797112
1.5780447721481323	35401268.358641446
1.582101821899414	38040858.92481192
1.5861525535583496	41425518.802996926
1.5901970863342285	41974479.23842038
1.5942351818084717	40599250.95456075
1.5982669591903687	39818783.49362495
1.6022924184799194	38651123.88977689
1.606311559677124	36760251.06908677
1.6103241443634033	35201461.7539382
1.6143304109573364	33140947.14944515
1.6183301210403442	29761556.78013611
1.6223233938217163	26055482.593058687
1.6263102293014526	23115000.811965667
1.6302905082702637	21670629.093138516
1.634264349937439	25033604.78890313
1.638231635093689	32349538.481045198
1.6421923637390137	32628281.153240044
1.646146535873413	24181520.315211724
1.6500942707061768	21078541.827494364
1.6540353298187256	26090533.412902407
1.6579699516296387	28950210.667983677
1.661897897720337	26095047.544921502
1.6658192873001099	17922521.689435367
1.6697341203689575	11795484.640027065
1.6736423969268799	13897153.204442767
1.677544116973877	16304101.635234522
1.6814392805099487	15879194.097363971
1.6853278875350952	14595233.47477169
1.6892099380493164	11834817.665030586
1.6930854320526123	8661577.266870698
1.696954369544983	6475124.74888133
1.7008168697357178	6231925.562916712
1.7046726942062378	7301353.57817188
1.708522081375122	9080076.897802688
1.712364912033081	11193448.981224554
1.7162011861801147	13026600.315167949
1.7200311422348022	13925259.1955004
1.723854422569275	13144426.642286133
1.7276713848114014	11584697.084163677
1.731481909751892	10295043.600814177
1.7352858781814575	9264400.968953703
1.7390835285186768	8417385.327732941
1.7428747415542603	7585296.097729764
1.7466596364974976	6921856.392435972
1.7504380941390991	6158625.18472664
1.7542102336883545	4791940.190304144
1.7579760551452637	3817597.768395137
1.7617355585098267	3684257.4240745394
1.7654887437820435	3290974.635007515
1.7692357301712036	2537165.09966507
1.7729763984680176	1922942.4026455763
1.776710867881775	1400603.022989647
1.7804391384124756	1108275.4626282242
1.7841613292694092	1026299.7288405343
1.7878772020339966	795977.2582725813
1.7915871143341064	571863.712105002
1.7952908277511597	564153.6806719941
1.7989884614944458	580937.4536063102
1.8026801347732544	396009.8960597731
1.806365728378296	196769.5673135604
1.8100452423095703	134436.77591821802
1.8137187957763672	106652.40439851591
1.817386507987976	95196.16459173388
1.8210482597351074	95494.81776377924
1.8247040510177612	90028.3862902473
1.828354001045227	78489.054426175
1.8319982290267944	76796.84090221846
1.8356364965438843	82837.13045498704
1.8392690420150757	144778.78297954026
1.8428958654403687	335648.0966313508
1.8465168476104736	479262.3022999873
1.8501322269439697	380542.25635886483
1.8537418842315674	237183.7500275725
1.8573459386825562	244726.4519974123
1.860944390296936	251855.20441582566
1.864537239074707	199544.75388808662
1.8681244850158691	181584.8576645064
1.871706247329712	172875.96589906217
1.8752825260162354	305214.6747514909
1.8788533210754395	680080.7349993914
1.8824186325073242	864686.634847492
1.8859784603118896	690542.655442214
1.8895330429077148	655762.9468855205
1.8930821418762207	1117739.3796421676
1.8966259956359863	1363592.5920451307
1.9001644849777222	772953.4091635626
1.9036977291107178	307484.0810892275
1.9072256088256836	419636.98297690344
1.9107483625411987	417708.34655328665
1.9142658710479736	210263.28656875552
1.9177782535552979	104258.10861887499
1.9212853908538818	82806.49496002687
1.9247875213623047	88361.33304045937
1.9282845258712769	117141.61716849492
1.9317764043807983	158625.35273609747
1.9352631568908691	225518.5830398466
1.9387450218200684	325737.1380357324
1.942221760749817	437955.2583789332
1.9456936120986938	462769.8564331009
1.9491604566574097	478156.5385120814
1.952622413635254	465163.39866331604
1.956079363822937	356140.7901576968
1.959531545639038	358135.80891494907
1.962978720664978	563287.3438623628
1.966421127319336	1060960.019662094
1.9698586463928223	1608768.3671205533
1.9732913970947266	1655201.8533295158
1.9767193794250488	1497646.8867727204
1.9801424741744995	1755015.1373404996
1.9835609197616577	2592223.08966368
1.9869745969772339	3182660.6008698875
1.990383505821228	2887935.0384209333
1.9937876462936401	2798280.141556391
1.9971871376037598	3140895.4975046073
2.000581979751587	3462833.904834311
2.003972291946411	3982829.6192699685
2.007357597351074	4773169.8921377715
2.0107386112213135	5882098.353384839
2.0141148567199707	6488301.249021984
2.017486572265625	6471080.484391594
2.0208535194396973	7542190.616949296
2.0242159366607666	9072681.45547074
2.027573823928833	9275190.597058944
2.0309269428253174	9235646.805124452
2.034275770187378	10096224.333985094
2.0376198291778564	11045630.639391614
2.040959596633911	11716888.125439635
2.044294595718384	13386948.563132338
2.0476250648498535	15880076.628189854
2.0509510040283203	16223677.803032827
2.054272413253784	15597476.251601106
2.057589530944824	17323308.95773488
2.0609018802642822	19097003.192205485
2.0642096996307373	19440290.080498956
2.0675129890441895	20447545.259515017
2.0708119869232178	21622718.538047712
2.074106216430664	21289342.075050168
2.0773961544036865	20497090.190964475
2.080681324005127	20501315.995044928
2.0839622020721436	20815816.23455925
2.087238311767578	21230480.65354252
2.090510129928589	21750901.671957843
2.0937774181365967	21905054.241589203
2.0970399379730225	21813321.26268413
2.1002981662750244	21387839.775498424
2.1035518646240234	20422354.203086603
2.1068007946014404	19451010.3967937
2.1100454330444336	19203868.350461617
2.1132853031158447	19503506.681336273
2.116520881652832	19416024.243901175
2.1197516918182373	19045606.00924811
2.1229779720306396	18920441.6225728
2.12619948387146	18773972.400870062
2.1294167041778564	18419849.203997638
2.132629156112671	18087463.4840737
2.1358368396759033	17398773.36698618
2.139039993286133	16313695.647077007
2.1422386169433594	14983319.965151181
2.145432472229004	13707320.062455306
2.1486217975616455	13037124.752914615
2.151806354522705	12400232.514981817
2.1549863815307617	12073402.79921341
2.1581614017486572	11945612.848854657
2.16133189201355	11315510.200480852
2.1644976139068604	10843288.798446672
2.167658567428589	10482060.66573433
2.1708147525787354	9876831.561005421
2.173966407775879	9187483.629923772
2.1771130561828613	8552144.596824804
2.1802549362182617	7978420.896646391
2.183391809463501	7354916.123337655
2.1865241527557373	6676427.095579643
2.1896514892578125	5894633.112276763
2.1927738189697266	4705834.681460996
2.1958916187286377	3214007.195529806
2.1990041732788086	1986087.8164623997
2.2021119594573975	1283150.1366341943
2.2052149772644043	1106442.7721395637
2.208312749862671	1389856.1718487367
2.2114057540893555	1845712.9052829759
2.214493751525879	2094153.5387928449
2.217576742172241	2026118.0305506145
2.2206547260284424	1822049.2112475
2.2237277030944824	1665128.4788916525
2.2267956733703613	1488721.147463566
2.2298583984375	1292361.8518302748
2.2329163551330566	1157127.724136831
2.235969066619873	1049775.6877043063
2.2390167713165283	959239.5006159964
2.2420592308044434	839783.21716518
2.2450966835021973	694758.9421000971
2.248128890991211	679130.7658273865
2.2511560916900635	771888.0618500204
2.254178285598755	788438.5426181334
2.257194995880127	758052.8422991565
2.260206699371338	720302.4171745427
2.2632133960723877	634376.7604845577
2.266214609146118	593377.097074093
2.2692108154296875	663865.039132664
2.2722020149230957	795929.7746074874
2.2751877307891846	882501.1754807425
2.278168201446533	853338.8236044117
2.2811436653137207	762345.3560828769
2.284113883972168	686184.6046617964
2.287078857421875	631199.2228993531
2.290038824081421	576211.0699954407
2.2929933071136475	548624.4924949149
2.295942783355713	560554.2058675934
2.298887014389038	587728.2727127731
2.301826238632202	673372.2739041087
2.304760217666626	915709.6777430678
2.3076889514923096	1369133.484314955
2.310612440109253	1852763.4325258979
2.3135311603546143	1846076.5204861048
2.3164443969726562	1200859.0862468383
2.319352865219116	595053.7627439859
2.322256088256836	452855.7379664508
2.3251543045043945	496795.1029357698
2.328047275543213	505828.7897205601
2.330935478210449	491081.3980053963
2.3338186740875244	470280.34540546726
2.3366971015930176	441874.88649692765
2.3395702838897705	406126.85599163274
2.3424389362335205	363232.2330117003
2.3453025817871094	332456.6881425256
2.348161458969116	343138.5550280813
2.351015567779541	409458.5939701645
2.353865146636963	514955.0450398858
2.3567099571228027	634098.3976046043
2.3595502376556396	784243.4526127084
2.3623859882354736	926383.3280603586
2.3652172088623047	886441.4788485053
2.368043899536133	615739.1131365042
2.370866537094116	342615.60673676094
2.3736846446990967	269607.4008376438
2.3764986991882324	348633.97688411165
2.3793084621429443	446290.937689866
2.3821144104003906	503480.6731339322
2.384916305541992	544281.6518773407
2.387714147567749	602362.33565137
2.3905084133148193	652992.145567596
2.393299102783203	669840.7673043798
2.3960859775543213	674772.1893953774
2.398869514465332	711914.7762343491
2.4016497135162354	741240.9233240895
2.4044265747070312	721689.4570402673
2.407200336456299	749065.0366779533
2.409970998764038	898513.9822124944
2.4127390384674072	1056419.7664218703
2.415503978729248	1074568.7158416514
2.418266534805298	1022421.8603625384
2.4210267066955566	1033432.3549885273
2.4237842559814453	1070020.1892090777
2.426539897918701	1129208.229853712
2.429293394088745	1332464.8536364774
2.4320452213287354	1557256.3895085584
2.4347951412200928	1534474.980789948
2.4375438690185547	1462084.2039074206
2.440291166305542	1648901.515355621
2.443037271499634	1736534.385242162
2.445782423019409	1456474.446559338
2.4485268592834473	1182668.4765226115
2.451270818710327	1162629.570246817
2.454014539718628	1321414.9468957325
2.4567582607269287	1487293.5333974534
2.4595019817352295	1507464.5638557316
2.4622461795806885	1480400.1221773815
2.4649908542633057	1426970.5171517883
2.4677364826202393	1252535.9038933767
2.4704833030700684	1055711.5898969432
2.473231554031372	895141.2717284487
2.4759814739227295	769785.4903706096
2.4787333011627197	726647.2848542194
2.481487512588501	780013.4187400352
2.4842441082000732	815222.0031927924
