#wavelength	surface flux
0.6450077295303345	421886.6704790462
0.6472567915916443	656905.6070658705
0.6494921445846558	839748.482119901
0.6517150402069092	941329.5513401272
0.6539263725280762	1042738.8905000886
0.6561272740364075	1148591.015889428
0.6583186388015747	1258297.2700764243
0.6605015397071838	1369707.2842428165
0.6626768708229065	1476677.8781810482
0.6648455858230591	1557112.6626192308
0.6670085787773132	1512963.5888418313
0.6691668033599854	1238545.922014369
0.6713210344314575	1095706.5694014821
0.6734722256660461	1489391.8570161439
0.6756211519241333	2037198.5510165093
0.6777685880661011	2367146.415644186
0.6799154281616211	2576532.1121248775
0.6820623278617859	2752303.0497917943
0.6842101216316223	2912266.8421833864
0.6863595843315125	3053526.2765768487
0.688511312007904	3153228.9155823383
0.6906660795211792	3186871.0801278283
0.6928245425224304	3232819.394334645
0.6949873566627502	3378679.5296629765
0.6971551775932312	3564176.6596849663
0.6993286609649658	3696295.941117346
0.7015084028244019	3767612.6916660382
0.7036949396133423	3819485.3351881453
0.7058889269828796	3872384.914182905
0.7080909013748169	3908676.2010374237
0.710301399230957	3913427.5765470914
0.712520956993103	3889768.1354812123
0.7147500514984131	3822101.7806298165
0.7169892191886902	3708544.0900461334
0.7192389369010925	3596941.383510169
0.7214996814727783	3499279.7567772213
0.723771870136261	3377221.6775006047
0.7260559797286987	3219498.383461707
0.7283523678779602	3035192.7674947744
0.7306615710258484	2837620.1580676897
0.7329838871955872	2639665.118974039
0.7353196740150452	2429473.4231053717
0.7376693487167358	2200703.8701588367
0.7400332689285278	1971126.957993522
0.7424117922782898	1740107.9636156848
0.7448052167892456	1503915.674375116
0.7472138404846191	1270556.6912411342
0.7496379613876343	1043207.3095355966
0.7520779371261597	825259.2224043923
0.7545340061187744	621939.9964877941
0.7570064663887024	437750.59912166744
0.7594954967498779	277777.0915295595
0.7620013952255249	148393.0077813649
0.7645244002342224	59168.68109369652
0.7670646905899048	17061.396220843486
0.7696225643157959	18271.90393096369
0.7721980810165405	70751.48724042573
0.7747915983200073	186986.30704478224
0.7774031162261963	340196.27272445074
0.7800329327583313	533610.3324712092
0.7826811671257019	843282.7004210304
0.7853479981422424	1248270.6482942058
0.7880334854125977	1662107.4664800952
0.7907378077507019	1896443.6834793922
0.7934610247612	1835672.6742906685
0.7962033748626709	2283457.9830177594
0.7989648580551147	3490308.9684050153
0.801745593547821	4584307.177327969
0.8045456409454346	5414662.092798135
0.8073651194572449	6199047.160876982
0.8102040886878967	6938256.323543041
0.8130625486373901	7718240.997408312
0.8159406185150146	8517412.945488874
0.8188382983207703	9408799.4724682
0.8217556476593018	10813728.566951854
0.8246926665306091	12526680.166081645
0.8276493549346924	14104760.75685617
0.8306257724761963	15635954.6431449
0.8336219191551208	17180320.353295635
0.8366377949714661	18722596.913639363
0.8396733403205872	20332420.687065385
0.8427285552024841	22132058.181137074
0.8458034992218018	23933857.72646061
0.8488980531692505	23936073.39713636
0.8520121574401855	22809067.187244147
0.8551458716392517	25422099.916436743
0.8582990765571594	28667925.240999237
0.8614717125892639	25915870.124984045
0.8646637797355652	22174847.985087425
0.8678751587867737	22823008.319052357
0.8711057901382446	24476100.862048384
0.8743556141853333	25652099.251842562
0.87762451171875	27049732.252868403
0.8809124231338501	28065757.102823466
0.8842192888259888	30329021.444592267
0.8875449895858765	31782406.61237531
0.8908893465995789	29664681.715903543
0.894252359867096	30342786.952522255
0.8976338505744934	37169453.942002416
0.9010337591171265	45838100.81921827
0.9044519662857056	53170878.563368455
0.9078882932662964	58493971.02720801
0.9113426208496094	62650329.41004278
0.914814829826355	63350178.64488386
0.9183048605918884	61935044.23612389
0.9218124747276306	62173537.45116996
0.925337553024292	53960717.27803913
0.9288799166679382	37533365.09347153
0.9324395060539246	31312924.926246107
0.9360161423683167	36017237.605318494
0.9396095871925354	40698112.73504847
0.943219780921936	37944462.69392127
0.9468464851379395	32241072.980321024
0.9504896402359009	33320132.890562814
0.9541489481925964	39039797.992530085
0.9578243494033813	40503459.07495581
0.9615156054496765	35439321.916912556
0.9652225375175476	32615105.768388394
0.9689450263977051	38036498.87159144
0.9726828336715698	49722588.34241054
0.9764357805252075	57973553.86369067
0.9802037477493286	60456295.08646066
0.983986496925354	65166352.36967042
0.9877838492393494	70403531.83392723
0.9915955662727356	71990883.83731775
0.9954215884208679	70822619.84139334
0.9992615580558777	64722916.067133024
1.0031154155731201	60285324.703802094
1.0069829225540161	64772791.742728025
1.0108637809753418	74485627.8010551
1.0147579908370972	86642347.75764924
1.018665075302124	96842941.1663445
1.022585153579712	98353526.10475707
1.0265177488327026	96647994.39653283
1.0304628610610962	106867527.1263499
1.0344202518463135	127669406.5544749
1.0383895635604858	140806611.47760978
1.0423706769943237	141014445.70218384
1.0463634729385376	137280172.49092367
1.0503677129745483	132831673.91440538
1.0543830394744873	133209044.61352223
1.058409333229065	139455853.1957205
1.0624464750289917	145040353.87658072
1.0664942264556885	149881806.88062194
1.0705522298812866	156352043.13257146
1.0746204853057861	166709529.21139863
1.0786986351013184	179181106.90439376
1.0827864408493042	186608615.06672695
1.086883783340454	178851202.7065445
1.0909905433654785	150608421.58787802
1.0951062440872192	115171695.6945211
1.0992310047149658	83076119.92418675
1.10336434841156	54042887.501017496
1.1075061559677124	40031309.53538193
1.1116561889648438	36783615.36717567
1.115814208984375	32530256.546265956
1.1199802160263062	27022308.30336129
1.124153733253479	22795290.487984426
1.1283347606658936	23810163.280505728
1.1325229406356812	22788446.718153134
1.1367181539535522	23714738.38137212
1.1409201622009277	29801561.297257338
1.145128846168518	34580311.63938532
1.1493438482284546	36042401.0241078
1.1535650491714478	29840000.749397445
1.1577922105789185	23862286.339199156
1.1620250940322876	24782817.315350566
1.1662636995315552	26416878.755155515
1.170507550239563	26879653.63123094
1.174756646156311	30724712.234659582
1.1790107488632202	41888439.46997924
1.1832695007324219	58539328.93973002
1.1875330209732056	71451019.56686825
1.191800832748413	82433630.78307043
1.1960728168487549	95771967.22492245
1.2003488540649414	105803685.22093655
1.2046287059783936	115664176.48612548
1.2089121341705322	123718203.05629644
1.2131990194320679	132312017.44170904
1.2174891233444214	150411847.3198181
1.2217823266983032	173759819.90962973
1.2260783910751343	193137880.96841344
1.230377197265625	205581471.15520796
1.2346785068511963	214970609.31015956
1.238982081413269	208557218.61850858
1.2432878017425537	189121356.3185887
1.2475954294204712	182320026.1738049
1.2519049644470215	184237569.7212244
1.256216049194336	215454585.31668046
1.2605286836624146	254315328.46801245
1.2648425102233887	258215083.99459746
1.2691574096679688	255514260.85609937
1.2734732627868652	257234630.58332905
1.2777899503707886	253055772.9694003
1.2821072340011597	239223687.98883682
1.2864248752593994	219848806.31103852
1.2907428741455078	198202311.68933356
1.2950609922409058	185383547.6663855
1.2993791103363037	181351051.67160368
1.303696870803833	177965518.6115067
1.3080145120620728	175168155.09300205
1.3123314380645752	163395561.56993946
1.3166478872299194	144808412.45988855
1.3209635019302368	123745143.01596501
1.3252781629562378	93453654.46913129
1.3295916318893433	58754316.458482124
1.3339040279388428	28442182.89407036
1.3382149934768677	9736498.158943463
1.3425244092941284	4272359.431013008
1.3468321561813354	3493495.950186353
1.3511382341384888	2529685.8677578056
1.3554422855377197	2084158.3169010414
1.3597444295883179	2562809.091670103
1.3640443086624146	2843184.735099825
1.3683418035507202	3203384.7724756133
1.3726370334625244	3869188.4410791653
1.3769296407699585	3846053.8090066966
1.381219506263733	2474116.3230143767
1.3855066299438477	1476704.5872247943
1.3897908926010132	1845683.619233909
1.3940720558166504	2553538.686630603
1.3983501195907593	3132634.9857956287
1.4026249647140503	4353045.196686125
1.4068963527679443	5209273.281182959
1.4111642837524414	3996371.8214015216
1.4154287576675415	2713263.287578038
1.419689416885376	2745902.8182074027
1.4239463806152344	3264677.958933009
1.4281994104385376	4087254.7917747847
1.4324485063552856	4304380.327376036
1.436693549156189	4165453.0259715207
1.440934419631958	5064659.942139364
1.4451709985733032	6555842.344303585
1.449403166770935	7899111.638131119
1.453631043434143	9115240.338257331
1.4578542709350586	10782781.379487727
1.4620729684829712	12354063.762348013
1.4662868976593018	12810622.209529392
1.4704961776733398	13159369.169399817
1.4747005701065063	13910018.436340403
1.4788999557495117	14325170.398098236
1.4830944538116455	15013156.956869213
1.4872838258743286	16000843.050957613
1.491468071937561	16759785.823942041
1.4956470727920532	18610932.398266327
1.4998208284378052	22410982.329373933
1.5039892196655273	25713306.000008855
1.5081522464752197	26528543.08883004
1.5123097896575928	28201225.51895084
1.5164618492126465	32490988.601897262
1.5206083059310913	38345348.374595396
1.5247491598129272	42791713.70704427
1.5288842916488647	43779803.914922334
1.5330137014389038	46385005.353491
1.5371372699737549	49784019.571995035
1.541254997253418	51043675.93234586
1.545366883277893	54436358.59846769
1.5494728088378906	58802672.737402
1.5535727739334106	60106916.184156835
1.5576666593551636	59788135.40310639
1.561754584312439	62346096.26786665
1.5658363103866577	69752753.19375639
1.5699119567871094	76802891.96449766
1.5739814043045044	79034003.44143775
1.5780447721481323	80162707.79367289
1.582101821899414	86689800.75571388
1.5861525535583496	96737999.79036583
1.5901970863342285	101417908.21709809
1.5942351818084717	101042338.48376887
1.5982669591903687	101547755.22634636
1.6022924184799194	104425731.1363499
1.606311559677124	108356228.01091416
1.6103241443634033	111341934.14181022
1.6143304109573364	112348000.72509414
1.6183301210403442	113656279.00157973
1.6223233938217163	119040561.17125414
1.6263102293014526	125520245.0362326
1.6302905082702637	127033560.43317382
1.634264349937439	130592283.06168447
1.638231635093689	139648246.21745357
1.6421923637390137	141895003.28996205
1.646146535873413	138594520.9799877
1.6500942707061768	138750719.86967126
1.6540353298187256	143142287.54140955
1.6579699516296387	145684252.8052563
1.661897897720337	138781441.93981284
1.6658192873001099	123460625.1594865
1.6697341203689575	116029022.82934636
1.6736423969268799	128454775.19434418
1.677544116973877	141810481.37750062
1.6814392805099487	142968977.09603378
1.6853278875350952	133720954.7399162
1.6892099380493164	114687751.87482904
1.6930854320526123	97182161.87631282
1.696954369544983	89074232.43343437
1.7008168697357178	88148029.61959231
1.7046726942062378	88600232.86560018
1.708522081375122	85890359.67905498
1.712364912033081	80349604.30671231
1.7162011861801147	74544123.97077478
1.7200311422348022	69325253.22120851
1.723854422569275	63377620.54275216
1.7276713848114014	56996470.355229385
1.731481909751892	50482416.23142327
1.7352858781814575	44374967.31052984
1.7390835285186768	38817837.583339624
1.7428747415542603	33632289.16080031
1.7466596364974976	30322936.127140578
1.7504380941390991	27346271.132245254
1.7542102336883545	22188253.16241204
1.7579760551452637	18722114.309065174
1.7617355585098267	18905176.821610466
1.7654887437820435	18128971.37422899
1.7692357301712036	15206964.478293817
1.7729763984680176	12377119.342003124
1.776710867881775	9861062.650132759
1.7804391384124756	8343227.46740071
1.7841613292694092	7777197.660610498
1.7878772020339966	6646744.772231295
1.7915871143341064	5674965.512899464
1.7952908277511597	5537870.973621765
1.7989884614944458	5265873.717510908
1.8026801347732544	4070284.5254956274
1.806365728378296	2913521.5461517987
1.8100452423095703	2437462.069465633
1.8137187957763672	2187938.2357969596
1.817386507987976	2131189.3705881233
1.8210482597351074	2185867.6400562585
1.8247040510177612	2170535.1932657035
1.828354001045227	2141648.76103453
1.8319982290267944	2262536.5667625833
1.8356364965438843	2397561.858959063
1.8392690420150757	3136178.7639233395
1.8428958654403687	4800824.960383819
1.8465168476104736	5561046.350027106
1.8501322269439697	4526396.118137877
1.8537418842315674	3296577.5296422793
1.8573459386825562	3064252.332473478
1.860944390296936	3037513.440046141
1.864537239074707	3028120.9842864517
1.8681244850158691	3422433.005802599
1.871706247329712	3544739.5219719135
1.8752825260162354	4348243.311460551
1.8788533210754395	6413130.874744661
1.8824186325073242	7528944.149744791
1.8859784603118896	7217226.73497916
1.8895330429077148	7276628.852032408
1.8930821418762207	8797582.15773622
1.8966259956359863	9432950.531831
1.9001644849777222	6653609.416524287
1.9036977291107178	4663993.570421665
1.9072256088256836	6026399.973447055
1.9107483625411987	6093543.363896759
1.9142658710479736	3974476.723038876
1.9177782535552979	2652387.584181852
1.9212853908538818	2144196.322061044
1.9247875213623047	2083550.372455373
1.9282845258712769	2441290.050555895
1.9317764043807983	2913316.696940017
1.9352631568908691	3591625.7505724058
1.9387450218200684	4243484.522440534
1.942221760749817	4662981.596853873
1.9456936120986938	4600180.79647411
1.9491604566574097	4610571.143976416
1.952622413635254	4438229.607018699
1.956079363822937	3688445.4263572767
1.959531545639038	3708475.1867312226
1.962978720664978	4813846.714391302
1.966421127319336	7003807.328229306
1.9698586463928223	9178314.509473803
1.9732913970947266	9314360.234855352
1.9767193794250488	8808760.462741759
1.9801424741744995	9569945.892279025
1.9835609197616577	11818487.312514957
1.9869745969772339	13509055.73801942
1.990383505821228	12850235.267532598
1.9937876462936401	12831808.531200847
1.9971871376037598	13671364.314277133
2.000581979751587	14537595.881819671
2.003972291946411	16898310.038864043
2.007357597351074	18763465.19409456
2.0107386112213135	19653104.04679127
2.0141148567199707	20340376.27730216
2.017486572265625	20484427.51571764
2.0208535194396973	22883063.797686145
2.0242159366607666	26496411.38991177
2.027573823928833	27072960.275355212
2.0309269428253174	26649543.18126774
2.034275770187378	28129626.209715955
2.0376198291778564	29793923.397957757
2.040959596633911	30774013.849091753
2.044294595718384	33481713.691055767
2.0476250648498535	37806751.42655318
2.0509510040283203	38819071.79153363
2.054272413253784	38531701.35390601
2.057589530944824	42233621.12328063
2.0609018802642822	45226239.947418034
2.0642096996307373	45607856.42114587
2.0675129890441895	48413278.95251054
2.0708119869232178	51861765.930101655
2.074106216430664	51419744.18865553
2.0773961544036865	49971461.2210668
2.080681324005127	50784577.74014601
2.0839622020721436	52288211.20562476
2.087238311767578	53751184.548653506
2.090510129928589	55890745.972378924
2.0937774181365967	57928081.34863682
2.0970399379730225	59346860.35704454
2.1002981662750244	59718998.26523314
2.1035518646240234	58310621.316732064
2.1068007946014404	56695401.77926023
2.1100454330444336	58375339.59179643
2.1132853031158447	62179695.06373136
2.116520881652832	63701663.666955374
2.1197516918182373	64089565.59934555
2.1229779720306396	65534197.01871027
2.12619948387146	66539896.52364638
2.1294167041778564	66624853.476079434
2.132629156112671	66902550.94197757
2.1358368396759033	66258426.71182408
2.139039993286133	64224873.48757858
2.1422386169433594	63032143.92346811
2.145432472229004	63233971.86965319
2.1486217975616455	62901009.992877975
2.151806354522705	61536535.41699137
2.1549863815307617	61429136.55060021
2.1581614017486572	62381080.42305636
2.16133189201355	62151957.98935558
2.1644976139068604	61163063.843406126
2.167658567428589	60095525.864437506
2.1708147525787354	58563259.41330957
2.173966407775879	56353664.71503869
2.1771130561828613	54383583.640474096
2.1802549362182617	53816521.20835239
2.183391809463501	53580706.67706052
2.1865241527557373	52246758.17727723
2.1896514892578125	49876878.52237359
2.1927738189697266	45672791.11864509
2.1958916187286377	39399700.92505809
2.1990041732788086	33209676.99797586
2.2021119594573975	28276321.818458855
2.2052149772644043	25143161.804659814
2.208312749862671	25816295.14481326
2.2114057540893555	29462710.12770624
2.214493751525879	32215287.94892463
2.217576742172241	32306493.226952787
2.2206547260284424	31154131.679343343
2.2237277030944824	30319678.021886613
2.2267956733703613	28956476.08843151
2.2298583984375	27204287.995327152
2.2329163551330566	26029396.95821176
2.235969066619873	25040717.036309037
2.2390167713165283	23880791.341257762
2.2420592308044434	21943867.96986719
2.2450966835021973	19821045.493348055
2.248128890991211	19500325.34207381
2.2511560916900635	20346904.416942377
2.254178285598755	20290755.394979026
2.257194995880127	20039323.105693106
2.260206699371338	19934348.06184281
2.2632133960723877	18490231.383472107
2.266214609146118	16888297.1620287
2.2692108154296875	17031009.051662017
2.2722020149230957	18470338.311730288
2.2751877307891846	19628974.780936927
2.278168201446533	18973366.330489308
2.2811436653137207	17210703.867289167
2.284113883972168	16113729.478537548
2.287078857421875	15539273.464508021
2.290038824081421	14299322.231653633
2.2929933071136475	12337043.898278764
2.295942783355713	10504824.594731636
2.298887014389038	9271752.88066863
2.301826238632202	8711955.951859118
2.304760217666626	8708771.15159191
2.3076889514923096	9039184.509871969
2.310612440109253	9450928.5447345
2.3135311603546143	9189650.181007328
2.3164443969726562	7649488.062169326
2.319352865219116	5999787.40990161
2.322256088256836	5673462.951942183
2.3251543045043945	6126350.40469526
2.328047275543213	6277371.701067803
2.330935478210449	6023881.5819149865
2.3338186740875244	5828034.6858345615
2.3366971015930176	5975477.18335555
2.3395702838897705	6317077.887462878
2.3424389362335205	6591066.211613221
2.3453025817871094	6828372.708720498
2.348161458969116	7173492.674954322
2.351015567779541	7618538.542439086
2.353865146636963	8058016.699257289
2.3567099571228027	8368074.213694537
2.3595502376556396	8842060.342673825
2.3623859882354736	9509147.95973044
2.3652172088623047	9356785.869219344
2.368043899536133	7755398.543019456
2.370866537094116	5783652.0119528305
2.3736846446990967	5060700.357507235
2.3764986991882324	5435139.8448372455
2.3793084621429443	5894201.206556558
2.3821144104003906	6235748.863671966
2.384916305541992	6642804.0673131235
2.387714147567749	7232430.149918718
2.3905084133148193	7761081.943990794
2.393299102783203	8056205.611037378
2.3960859775543213	8287214.122178412
2.398869514465332	8613019.093434872
2.4016497135162354	8712082.959677603
2.4044265747070312	8495604.69586641
2.407200336456299	8620584.789187789
2.409970998764038	9319462.983220108
2.4127390384674072	9942089.19003675
2.415503978729248	9928396.673474561
2.418266534805298	9582927.883027896
2.4210267066955566	9520598.48136314
2.4237842559814453	9748265.674481723
2.426539897918701	9995423.314811295
2.429293394088745	10466636.786516517
2.4320452213287354	11002961.867007067
2.4347951412200928	10761113.93180857
2.4375438690185547	10240685.80060768
2.440291166305542	10515430.783162525
2.443037271499634	10346590.774425264
2.445782423019409	9020843.182521975
2.4485268592834473	8010959.45426115
2.451270818710327	7750233.47442499
2.454014539718628	8096696.346770759
2.4567582607269287	8742719.056609599
2.4595019817352295	8590689.39316373
2.4622461795806885	8247361.202252131
2.4649908542633057	8022418.03762767
2.4677364826202393	7114891.335527054
2.4704833030700684	6035226.060173587
2.473231554031372	5131838.266154876
2.4759814739227295	4396729.492468911
2.4787333011627197	4135064.8063756013
