#wavelength	surface flux
0.6450077295303345	24633.080390197523
0.6472567915916443	38467.3713569336
0.6494921445846558	49492.75493579812
0.6517150402069092	55947.93044289244
0.6539263725280762	62491.409130224645
0.6561272740364075	69396.29307136899
0.6583186388015747	76716.68025642855
0.6605015397071838	84539.05769178645
0.6626768708229065	92796.33328247356
0.6648455858230591	101194.3631664415
0.6670085787773132	106777.80558306121
0.6691668033599854	103879.4558854166
0.6713210344314575	104967.89833171069
0.6734722256660461	124961.05320551559
0.6756211519241333	147775.29173343265
0.6777685880661011	161991.6976406118
0.6799154281616211	173836.11808859895
0.6820623278617859	185560.16647577178
0.6842101216316223	197279.7738060041
0.6863595843315125	208889.31076340677
0.688511312007904	219803.16644555007
0.6906660795211792	228421.9842001141
0.6928245425224304	236094.47480595042
0.6949873566627502	247230.0712653756
0.6971551775932312	260565.1518660736
0.6993286609649658	271325.58667469956
0.7015084028244019	279177.2501778316
0.7036949396133423	286789.00608089275
0.7058889269828796	294495.4115595736
0.7080909013748169	300764.96769918024
0.710301399230957	305379.84290648234
0.712520956993103	307671.95461112744
0.7147500514984131	304887.8362096883
0.7169892191886902	296534.4857230529
0.7192389369010925	289505.3812870397
0.7214996814727783	286515.3122185707
0.723771870136261	280903.54131144326
0.7260559797286987	270757.33934789745
0.7283523678779602	258621.96062092396
0.7306615710258484	245470.7968814612
0.7329838871955872	232380.49572106067
0.7353196740150452	217710.05561197526
0.7376693487167358	199871.1913152388
0.7400332689285278	180898.94112402396
0.7424117922782898	161123.56779842125
0.7448052167892456	140179.05132602013
0.7472138404846191	118991.76186012036
0.7496379613876343	97963.01293880936
0.7520779371261597	77600.89649528972
0.7545340061187744	58652.10753186228
0.7570064663887024	41697.78570156569
0.7594954967498779	27187.906667676263
0.7620013952255249	15431.7262207673
0.7645244002342224	6920.431788712818
0.7670646905899048	2525.0085400150842
0.7696225643157959	2672.036776944352
0.7721980810165405	8360.512623356992
0.7747915983200073	20221.629816877263
0.7774031162261963	35603.24177287238
0.7800329327583313	55446.96799271302
0.7826811671257019	87510.46895635499
0.7853479981422424	130336.88412363386
0.7880334854125977	175863.37156024022
0.7907378077507019	203671.56640635213
0.7934610247612	200911.8940448303
0.7962033748626709	253978.59357254018
0.7989648580551147	389637.9481855655
0.801745593547821	513718.85079108534
0.8045456409454346	610125.9842560859
0.8073651194572449	699895.938318272
0.8102040886878967	778382.9367026197
0.8130625486373901	863626.8230115914
0.8159406185150146	982938.9589430792
0.8188382983207703	1126495.7764961328
0.8217556476593018	1274946.9788316546
0.8246926665306091	1433778.8669092546
0.8276493549346924	1603738.6108424577
0.8306257724761963	1774674.2904692793
0.8336219191551208	1942926.6437633766
0.8366377949714661	2114988.7539870352
0.8396733403205872	2309117.7915802323
0.8427285552024841	2541623.3072885536
0.8458034992218018	2795790.1213747957
0.8488980531692505	2906032.598042227
0.8520121574401855	2940645.178127824
0.8551458716392517	3377458.1544959177
0.8582990765571594	4033975.1523299115
0.8614717125892639	4459636.249989971
0.8646637797355652	4798935.534758042
0.8678751587867737	5200678.748496467
0.8711057901382446	5632890.969300361
0.8743556141853333	6049385.968534745
0.87762451171875	6431661.379344893
0.8809124231338501	6764903.914816643
0.8842192888259888	7048480.459024486
0.8875449895858765	7123267.356069716
0.8908893465995789	6593560.028727255
0.894252359867096	6037514.30065138
0.8976338505744934	6893410.930500379
0.9010337591171265	8699328.358179614
0.9044519662857056	10069803.849281909
0.9078882932662964	10810975.37355855
0.9113426208496094	11219723.884827573
0.914814829826355	11317750.58440425
0.9183048605918884	11271981.184014007
0.9218124747276306	11215654.886316787
0.925337553024292	9200825.938347222
0.9288799166679382	5563962.887019681
0.9324395060539246	3987053.0090259877
0.9360161423683167	4845525.705184986
0.9396095871925354	5928471.901966388
0.943219780921936	5309694.508568976
0.9468464851379395	3998774.7581146257
0.9504896402359009	4270982.971341174
0.9541489481925964	5719302.644781269
0.9578243494033813	6240786.04289725
0.9615156054496765	5233273.529446074
0.9652225375175476	4806172.803126697
0.9689450263977051	6521123.038464487
0.9726828336715698	9703272.235939668
0.9764357805252075	11701896.67414183
0.9802037477493286	12125721.025495153
0.983986496925354	13285478.690087512
0.9877838492393494	15493063.815407202
0.9915955662727356	17794387.744350843
0.9954215884208679	19729940.26721042
0.9992615580558777	21122134.408972643
1.0031154155731201	22582581.811633658
1.0069829225540161	24925140.284174386
1.0108637809753418	28025445.325932886
1.0147579908370972	31310372.875675693
1.018665075302124	33894593.356749855
1.022585153579712	35239504.31888596
1.0265177488327026	36109661.911051475
1.0304628610610962	38138076.0393197
1.0344202518463135	41486488.990633495
1.0383895635604858	44389976.42261767
1.0423706769943237	46331397.630066246
1.0463634729385376	47766107.39667234
1.0503677129745483	48883790.45193001
1.0543830394744873	50628735.27989926
1.058409333229065	52896582.711583994
1.0624464750289917	54544253.45700042
1.0664942264556885	55257819.52663033
1.0705522298812866	55643430.77115455
1.0746204853057861	56815478.51773717
1.0786986351013184	58349536.10506812
1.0827864408493042	58413357.52909556
1.086883783340454	54106437.284441665
1.0909905433654785	43613142.100702226
1.0951062440872192	31184651.987241663
1.0992310047149658	20543894.398309965
1.10336434841156	11847234.63447691
1.1075061559677124	7844367.540431243
1.1116561889648438	6662224.676957166
1.115814208984375	5160456.408171261
1.1199802160263062	3772704.8376851655
1.124153733253479	2782595.5985725676
1.1283347606658936	2969660.7026333986
1.1325229406356812	3358122.9755673916
1.1367181539535522	4548013.476580201
1.1409201622009277	5854207.228590615
1.145128846168518	5821237.584140487
1.1493438482284546	5321595.293571222
1.1535650491714478	3885836.3260549153
1.1577922105789185	2752135.9546075603
1.1620250940322876	3118274.160998168
1.1662636995315552	3862249.4333712845
1.170507550239563	4667213.342912884
1.174756646156311	6669633.19012577
1.1790107488632202	10875004.444754459
1.1832695007324219	16737788.233324932
1.1875330209732056	21483039.88522655
1.191800832748413	26305961.856254347
1.1960728168487549	32491494.230774116
1.2003488540649414	37564857.24875178
1.2046287059783936	42403186.40473559
1.2089121341705322	45649917.20855684
1.2131990194320679	48316536.4684984
1.2174891233444214	54254752.243649855
1.2217823266983032	61529561.96770535
1.2260783910751343	67116526.7569871
1.230377197265625	70476884.0993156
1.2346785068511963	73232331.22267444
1.238982081413269	74275860.78605671
1.2432878017425537	73317493.84634869
1.2475954294204712	73114510.30077222
1.2519049644470215	73226675.08441979
1.256216049194336	77858046.65857553
1.2605286836624146	82845039.938194
1.2648425102233887	81456180.68815887
1.2691574096679688	79135911.29919589
1.2734732627868652	77663567.1550639
1.2777899503707886	74441166.96358581
1.2821072340011597	68423270.93254697
1.2864248752593994	61475791.405934155
1.2907428741455078	54273172.08323871
1.2950609922409058	49706977.25747715
1.2993791103363037	48314464.23552945
1.303696870803833	47901776.27296361
1.3080145120620728	47542174.67081281
1.3123314380645752	44767546.178308256
1.3166478872299194	41595124.29599541
1.3209635019302368	37012528.539326794
1.3252781629562378	27319682.28969436
1.3295916318893433	15915928.648824004
1.3339040279388428	6807811.0001564175
1.3382149934768677	1862497.7553852424
1.3425244092941284	530117.2475126598
1.3468321561813354	321449.0942378429
1.3511382341384888	198127.41280616514
1.3554422855377197	119122.88206711004
1.3597444295883179	128402.25829014118
1.3640443086624146	117915.55955629615
1.3683418035507202	128437.12328589629
1.3726370334625244	180369.2069217755
1.3769296407699585	182327.89647937848
1.381219506263733	96979.12052326856
1.3855066299438477	43126.66737749042
1.3897908926010132	72649.67716032665
1.3940720558166504	136731.92865464988
1.3983501195907593	222608.01294773552
1.4026249647140503	383578.07914196997
1.4068963527679443	477513.6386447779
1.4111642837524414	322637.187185601
1.4154287576675415	156650.04600013592
1.419689416885376	148163.84977794683
1.4239463806152344	213440.7335906262
1.4281994104385376	326669.8868308246
1.4324485063552856	371836.0419598714
1.436693549156189	386287.19991391315
1.440934419631958	580978.1577042361
1.4451709985733032	881028.0506544822
1.449403166770935	1165839.822033781
1.453631043434143	1477763.566376459
1.4578542709350586	1956984.4935045547
1.4620729684829712	2332194.409193872
1.4662868976593018	2361572.81974195
1.4704961776733398	2470626.388193149
1.4747005701065063	2680369.2437353404
1.4788999557495117	2712189.249255071
1.4830944538116455	2883770.4184133806
1.4872838258743286	3177877.4430108718
1.491468071937561	3427231.448699003
1.4956470727920532	4111793.391764511
1.4998208284378052	5592541.400134783
1.5039892196655273	6968979.773856135
1.5081522464752197	7399548.925472491
1.5123097896575928	8326480.847389214
1.5164618492126465	10371879.889530899
1.5206083059310913	13030075.124727117
1.5247491598129272	15294279.054444667
1.5288842916488647	16271580.62340632
1.5330137014389038	17852561.778351974
1.5371372699737549	19630447.307271663
1.541254997253418	20603380.427763537
1.545366883277893	22719379.79030084
1.5494728088378906	25218581.86000254
1.5535727739334106	26324392.697478518
1.5576666593551636	27207000.601516142
1.561754584312439	29717085.186497495
1.5658363103866577	33469866.215864547
1.5699119567871094	36128568.40760747
1.5739814043045044	36704341.123080246
1.5780447721481323	37201286.3914102
1.582101821899414	39982459.03705979
1.5861525535583496	43545913.57193518
1.5901970863342285	44172209.209616266
1.5942351818084717	42795040.702865876
1.5982669591903687	42031061.033496186
1.6022924184799194	40879283.947799064
1.606311559677124	38985065.6197306
1.6103241443634033	37430015.204172835
1.6143304109573364	35346026.0373692
1.6183301210403442	31884498.64444861
1.6223233938217163	28089303.06343443
1.6263102293014526	25075330.677534495
1.6302905082702637	23576593.679987036
1.634264349937439	27084477.106476914
1.638231635093689	34722590.85053749
1.6421923637390137	35012991.59255876
1.646146535873413	26206014.120545123
1.6500942707061768	22980582.06603138
1.6540353298187256	28231274.75414375
1.6579699516296387	31222060.3987614
1.661897897720337	28153321.40895448
1.6658192873001099	19395732.384746745
1.6697341203689575	12881408.734590573
1.6736423969268799	15234624.555697171
1.677544116973877	17902875.91455836
1.6814392805099487	17466291.514599826
1.6853278875350952	16050833.684623227
1.6892099380493164	13031464.31611532
1.6930854320526123	9567895.273501856
1.696954369544983	7190235.595130985
1.7008168697357178	6932434.859426585
1.7046726942062378	8086869.345443607
1.708522081375122	9972625.04279362
1.712364912033081	12170887.958718859
1.7162011861801147	14046909.9460893
1.7200311422348022	14940325.952768998
1.723854422569275	14085513.656169377
1.7276713848114014	12425606.32479712
1.731481909751892	11040648.176521113
1.7352858781814575	9920822.003983507
1.7390835285186768	8990790.943309048
1.7428747415542603	8082650.094536136
1.7466596364974976	7369551.33210932
1.7504380941390991	6557604.547745783
1.7542102336883545	5105910.132847128
1.7579760551452637	4073804.131715917
1.7617355585098267	3939427.595733946
1.7654887437820435	3528837.962913709
1.7692357301712036	2727315.0297695454
1.7729763984680176	2069859.5484442173
1.776710867881775	1510052.893486004
1.7804391384124756	1196038.0204976583
1.7841613292694092	1107185.0384174536
1.7878772020339966	860745.5023576377
1.7915871143341064	621770.7190443461
1.7952908277511597	613126.3770097874
1.7989884614944458	629416.2906013703
1.8026801347732544	430353.64431259676
1.806365728378296	216499.2100790069
1.8100452423095703	149106.07685859065
1.8137187957763672	118904.1033087458
1.817386507987976	106617.26976289031
1.8210482597351074	107121.39408078032
1.8247040510177612	101220.27930413518
1.828354001045227	88731.02884888531
1.8319982290267944	87195.06216305758
1.8356364965438843	94056.79262886083
1.8392690420150757	162436.86213819732
1.8428958654403687	370876.54160163394
1.8465168476104736	525890.8551918303
1.8501322269439697	417566.6162899256
1.8537418842315674	261037.82435037504
1.8573459386825562	267457.5625024146
1.860944390296936	274837.9671667811
1.864537239074707	220107.79569230074
1.8681244850158691	202702.43793639157
1.871706247329712	193770.85122161626
1.8752825260162354	336578.4019696314
1.8788533210754395	739911.4093336697
1.8824186325073242	939550.8711808961
1.8859784603118896	756551.7988154254
1.8895330429077148	720051.158320661
1.8930821418762207	1209586.2616359578
1.8966259956359863	1469453.0899577914
1.9001644849777222	837495.5703920205
1.9036977291107178	341123.767617442
1.9072256088256836	467303.7542369591
1.9107483625411987	465304.7296424671
1.9142658710479736	235486.05928874758
1.9177782535552979	117608.67491950006
1.9212853908538818	93386.32956073996
1.9247875213623047	99258.66751772742
1.9282845258712769	131000.45315509709
1.9317764043807983	176651.6442837523
1.9352631568908691	250032.70573457162
1.9387450218200684	359152.1520973996
1.942221760749817	480767.12542432576
1.9456936120986938	506324.7754835584
1.9491604566574097	520232.4229394345
1.952622413635254	504952.71061695553
1.956079363822937	387770.26642216666
1.959531545639038	390095.05767001706
1.962978720664978	609182.7399390466
1.966421127319336	1138729.5104636238
1.9698586463928223	1720103.118792566
1.9732913970947266	1769994.083277274
1.9767193794250488	1608356.648019394
1.9801424741744995	1881813.838532378
1.9835609197616577	2760061.836531913
1.9869745969772339	3382695.3428105176
1.990383505821228	3079775.7999923946
1.9937876462936401	2996551.0923957247
1.9971871376037598	3351714.6932987086
2.000581979751587	3686356.433317232
2.003972291946411	4267328.610393923
2.007357597351074	5098028.648393593
2.0107386112213135	6204021.160054306
2.0141148567199707	6811940.145618373
2.017486572265625	6801920.616112581
2.0208535194396973	7934273.751757842
2.0242159366607666	9550411.2196249
2.027573823928833	9756425.440130532
2.0309269428253174	9691115.011016818
2.034275770187378	10581717.801360693
2.0376198291778564	11565196.05085437
2.040959596633911	12240148.170974286
2.044294595718384	13944152.492471049
2.0476250648498535	16507703.487073574
2.0509510040283203	16870927.406258937
2.054272413253784	16248287.825165443
2.057589530944824	18040475.430450425
2.0609018802642822	19857588.52079765
2.0642096996307373	20199576.819985412
2.0675129890441895	21250262.245753936
2.0708119869232178	22480274.638310518
2.074106216430664	22137235.25793371
2.0773961544036865	21320184.64555035
2.080681324005127	21337335.27564402
2.0839622020721436	21673761.864538144
2.087238311767578	22106597.159366846
2.090510129928589	22654142.776665766
2.0937774181365967	22832632.14540695
2.0970399379730225	22756053.65688747
2.1002981662750244	22331940.105275445
2.1035518646240234	21345430.3551332
2.1068007946014404	20351728.806659035
2.1100454330444336	20117591.14675032
2.1132853031158447	20451898.690276515
2.116520881652832	20375312.25284377
2.1197516918182373	20004418.185248062
2.1229779720306396	19890725.72826689
2.12619948387146	19749818.22182653
2.1294167041778564	19388840.33709858
2.132629156112671	19050108.69607412
2.1358368396759033	18340379.3038475
2.139039993286133	17212891.412742257
2.1422386169433594	15835277.242037546
2.145432472229004	14522755.186733576
2.1486217975616455	13832634.263176544
2.151806354522705	13174184.670945054
2.1549863815307617	12839112.466881873
2.1581614017486572	12705937.348389195
2.16133189201355	12047349.259035798
2.1644976139068604	11552349.692632563
2.167658567428589	11170323.717583315
2.1708147525787354	10527602.308084926
2.173966407775879	9791705.108057976
2.1771130561828613	9114489.850885544
2.1802549362182617	8507205.167393044
2.183391809463501	7848505.5767827835
2.1865241527557373	7130467.594308864
2.1896514892578125	6305008.50563551
2.1927738189697266	5051501.457292687
2.1958916187286377	3472155.2752735717
2.1990041732788086	2162676.7371596345
2.2021119594573975	1405622.3376476702
2.2052149772644043	1207688.4341980317
2.208312749862671	1503727.590654375
2.2114057540893555	1990703.922788186
2.214493751525879	2260855.992782166
2.217576742172241	2193463.745997953
2.2206547260284424	1980756.3367269575
2.2237277030944824	1817117.694067367
2.2267956733703613	1627121.5771294832
2.2298583984375	1412758.6667351688
2.2329163551330566	1265659.3902973616
2.235969066619873	1149706.9900472567
2.2390167713165283	1051946.2587198284
2.2420592308044434	924203.8350635244
2.2450966835021973	770728.2291978521
2.248128890991211	755148.6677984562
2.2511560916900635	852533.7613184404
2.254178285598755	867848.4809676019
2.257194995880127	834693.4819596914
2.260206699371338	793547.5073117827
2.2632133960723877	699567.5029186339
2.266214609146118	654248.5356220135
2.2692108154296875	730069.0797436313
2.2722020149230957	872455.8251990924
2.2751877307891846	965517.4399084746
2.278168201446533	933661.6791674915
2.2811436653137207	835233.6573422473
2.284113883972168	752703.7355812985
2.287078857421875	692843.1400408845
2.290038824081421	633317.7487458092
2.2929933071136475	603737.1271629917
2.295942783355713	617462.582024171
2.298887014389038	649471.8330975316
2.301826238632202	745951.3043597431
2.304760217666626	1008009.8582832422
2.3076889514923096	1489947.4327867695
2.310612440109253	2000431.4541703379
2.3135311603546143	1989375.9606010064
2.3164443969726562	1299824.8509932237
2.319352865219116	651229.8585175805
2.322256088256836	497085.3246095633
2.3251543045043945	543292.2342779542
2.328047275543213	552964.9507659087
2.330935478210449	537131.8934423733
2.3338186740875244	514615.211879497
2.3366971015930176	484555.17876563856
2.3395702838897705	446857.3049521464
2.3424389362335205	401106.2326212439
2.3453025817871094	368158.5252263067
2.348161458969116	380128.9444688639
2.351015567779541	452530.6935318362
2.353865146636963	567265.5914887341
2.3567099571228027	695985.5026158828
2.3595502376556396	857074.5106629689
2.3623859882354736	1009515.7200144192
2.3652172088623047	966624.1173628848
2.368043899536133	674586.3255134966
2.370866537094116	378434.6411311827
2.3736846446990967	298487.323860238
2.3764986991882324	383447.4161330818
2.3793084621429443	487975.020537101
2.3821144104003906	549135.8515065726
2.384916305541992	594062.9259376304
2.387714147567749	657984.3069829695
2.3905084133148193	712959.4711980061
2.393299102783203	731178.0429117171
2.3960859775543213	737028.4756880217
2.398869514465332	777502.9841471998
2.4016497135162354	808850.2256548374
2.4044265747070312	787168.4224100853
2.407200336456299	815718.1347620264
2.409970998764038	974728.0233108543
2.4127390384674072	1142608.3514370876
2.415503978729248	1161471.6048597444
2.418266534805298	1105152.8604663496
2.4210267066955566	1116099.2745156542
2.4237842559814453	1155121.9848863464
2.426539897918701	1217722.5795446162
2.429293394088745	1431476.7925896535
2.4320452213287354	1668137.678772035
2.4347951412200928	1643360.6138705018
2.4375438690185547	1564550.6238446296
2.440291166305542	1758163.7735184163
2.443037271499634	1847996.2535847444
2.445782423019409	1552589.0929791643
2.4485268592834473	1265159.8779115041
2.451270818710327	1242450.2262155102
2.454014539718628	1406578.2131633
2.4567582607269287	1579802.3931338978
2.4595019817352295	1599087.514861571
2.4622461795806885	1569624.3452888299
2.4649908542633057	1514128.9619993183
2.4677364826202393	1330001.100360527
2.4704833030700684	1121726.0322966962
2.473231554031372	951283.6451965735
2.4759814739227295	817548.9999234753
2.4787333011627197	771254.8535076876
2.481487512588501	828352.4285206996
