#wavelength	surface flux
0.6450077295303345	8376.73316900079
0.6472567915916443	13164.144113018201
0.6494921445846558	17125.01827318271
0.6517150402069092	19620.312959339848
0.6539263725280762	22225.370563403347
0.6561272740364075	25041.52658670578
0.6583186388015747	28085.517716357084
0.6605015397071838	31373.50648765327
0.6626768708229065	34893.00780314771
0.6648455858230591	38554.62271504233
0.6670085787773132	41284.23483444044
0.6691668033599854	40965.62011117155
0.6713210344314575	42172.5943956164
0.6734722256660461	50405.767627195884
0.6756211519241333	59717.150364387424
0.6777685880661011	65935.0286720792
0.6799154281616211	71370.86552754376
0.6820623278617859	76816.57259323305
0.6842101216316223	82300.48396452962
0.6863595843315125	87781.01628139311
0.688511312007904	93108.51217463045
0.6906660795211792	97873.82022582265
0.6928245425224304	102301.57424554929
0.6949873566627502	107388.23705903422
0.6971551775932312	112855.76484417969
0.6993286609649658	117522.90991885094
0.7015084028244019	121245.70196093524
0.7036949396133423	124619.11012090326
0.7058889269828796	127646.43108133337
0.7080909013748169	129908.01044402794
0.710301399230957	131322.0588609141
0.712520956993103	131681.01818342443
0.7147500514984131	130269.92919724008
0.7169892191886902	126956.30383717272
0.7192389369010925	123457.677025725
0.7214996814727783	120415.61528181762
0.723771870136261	116099.6118043622
0.7260559797286987	110164.84391723454
0.7283523678779602	103444.23792747762
0.7306615710258484	96195.57250412146
0.7329838871955872	88694.2952283337
0.7353196740150452	80675.3419419406
0.7376693487167358	71945.67933860973
0.7400332689285278	63099.036442263925
0.7424117922782898	54370.23784196094
0.7448052167892456	45837.07008526915
0.7472138404846191	37777.83951469778
0.7496379613876343	30338.94888556862
0.7520779371261597	23647.9022419879
0.7545340061187744	17806.861198477247
0.7570064663887024	12829.977427204733
0.7594954967498779	8677.367434949483
0.7620013952255249	5249.700191530459
0.7645244002342224	2577.3502697763106
0.7670646905899048	1071.0480941324672
0.7696225643157959	1132.0745221513284
0.7721980810165405	3117.722962183029
0.7747915983200073	6989.61454854128
0.7774031162261963	11825.31418275686
0.7800329327583313	18023.7858751323
0.7826811671257019	28035.308578980887
0.7853479981422424	41840.10120267945
0.7880334854125977	57517.57257493631
0.7907378077507019	68664.49145686493
0.7934610247612	70954.27187045939
0.7962033748626709	93301.42583334052
0.7989648580551147	146338.04207883278
0.801745593547821	199198.64806126483
0.8045456409454346	245886.37137480878
0.8073651194572449	294440.9571045313
0.8102040886878967	344293.6071677797
0.8130625486373901	399942.3860853622
0.8159406185150146	469113.1295589266
0.8188382983207703	550246.1208449831
0.8217556476593018	637793.3243389627
0.8246926665306091	733630.5850033098
0.8276493549346924	838951.4850570849
0.8306257724761963	950963.3236783751
0.8336219191551208	1069233.8001297018
0.8366377949714661	1196577.2502171667
0.8396733403205872	1338826.3927862602
0.8427285552024841	1500306.8066499552
0.8458034992218018	1662542.7054980705
0.8488980531692505	1722629.2066399998
0.8520121574401855	1744735.9291433282
0.8551458716392517	2045858.6005045637
0.8582990765571594	2507005.3599129887
0.8614717125892639	2839407.316713174
0.8646637797355652	3119429.486163129
0.8678751587867737	3429055.9275188097
0.8711057901382446	3764847.544399241
0.8743556141853333	4114783.5735383094
0.87762451171875	4468582.573793277
0.8809124231338501	4808090.847020729
0.8842192888259888	5129260.546456296
0.8875449895858765	5345538.941518638
0.8908893465995789	5133931.076912225
0.894252359867096	4834881.879539088
0.8976338505744934	5561743.245287184
0.9010337591171265	6971120.142230418
0.9044519662857056	8018967.9337705495
0.9078882932662964	8683157.660470996
0.9113426208496094	9207451.260262728
0.914814829826355	9619606.481085578
0.9183048605918884	9996004.773609437
0.9218124747276306	10260941.5974926
0.925337553024292	9019736.819481067
0.9288799166679382	6436823.712902303
0.9324395060539246	5450453.148330775
0.9360161423683167	6704851.500655353
0.9396095871925354	8072200.765989267
0.943219780921936	7680310.316710047
0.9468464851379395	6657865.979426445
0.9504896402359009	7115518.635941664
0.9541489481925964	8576864.540825857
0.9578243494033813	9211365.224997055
0.9615156054496765	8563498.8426197
0.9652225375175476	8455366.879189573
0.9689450263977051	10262155.976538258
0.9726828336715698	13284986.322916185
0.9764357805252075	15344749.275009295
0.9802037477493286	16137349.932733271
0.983986496925354	17399673.23759884
0.9877838492393494	19407824.144093674
0.9915955662727356	21370609.321268383
0.9954215884208679	22807601.351411894
0.9992615580558777	23708973.210015893
1.0031154155731201	24778767.94135267
1.0069829225540161	26598323.92484903
1.0108637809753418	28884720.85614649
1.0147579908370972	31134782.465800013
1.018665075302124	32905759.862696007
1.022585153579712	34086450.598465376
1.0265177488327026	35134593.844103836
1.0304628610610962	36643901.97239535
1.0344202518463135	38574070.86985733
1.0383895635604858	40285966.07410497
1.0423706769943237	41553398.57172369
1.0463634729385376	42578433.982582584
1.0503677129745483	43563166.16177128
1.0543830394744873	44750568.17800181
1.058409333229065	46113041.314989865
1.0624464750289917	47242647.43677942
1.0664942264556885	47775517.8824209
1.0705522298812866	47976595.30795251
1.0746204853057861	48428859.0339404
1.0786986351013184	48989929.764314875
1.0827864408493042	48980744.70126955
1.086883783340454	46941593.29935558
1.0909905433654785	41403576.67394063
1.0951062440872192	33716324.79421374
1.0992310047149658	25216631.84750839
1.10336434841156	16848470.8142773
1.1075061559677124	11994293.810510691
1.1116561889648438	9533137.573224196
1.115814208984375	7417577.756524397
1.1199802160263062	6114596.493434439
1.124153733253479	5653920.143946532
1.1283347606658936	6473270.337227671
1.1325229406356812	6801043.904348058
1.1367181539535522	8306477.681110668
1.1409201622009277	10698146.074307784
1.145128846168518	10965769.64360597
1.1493438482284546	9979297.323608518
1.1535650491714478	7692129.962567691
1.1577922105789185	6153100.465299393
1.1620250940322876	6821622.787397665
1.1662636995315552	8050048.38896993
1.170507550239563	9374276.861138288
1.174756646156311	12007014.69368769
1.1790107488632202	16896789.076906417
1.1832695007324219	23282775.707456727
1.1875330209732056	28565478.538062498
1.191800832748413	33337794.07243007
1.1960728168487549	38831826.29662297
1.2003488540649414	43126454.0925875
1.2046287059783936	46683252.10540847
1.2089121341705322	49184107.71777668
1.2131990194320679	51268464.26715885
1.2174891233444214	54897460.435364835
1.2217823266983032	58843355.01240654
1.2260783910751343	61909722.05683003
1.230377197265625	64173516.49371765
1.2346785068511963	66166110.993424535
1.238982081413269	67580360.7523372
1.2432878017425537	68258147.35692786
1.2475954294204712	68812044.82226823
1.2519049644470215	69491483.57618102
1.256216049194336	72547002.53771599
1.2605286836624146	76400355.05381776
1.2648425102233887	77861154.44870107
1.2691574096679688	78471651.94056833
1.2734732627868652	78959101.78197816
1.2777899503707886	78055218.55973999
1.2821072340011597	75152085.26840782
1.2864248752593994	71153830.50270921
1.2907428741455078	66654654.0820844
1.2950609922409058	63602296.4579645
1.2993791103363037	62215978.36782286
1.303696870803833	61507088.382140286
1.3080145120620728	61144350.920209
1.3123314380645752	59326440.42046285
1.3166478872299194	56976718.904732004
1.3209635019302368	51981482.97856421
1.3252781629562378	40422283.79719279
1.3295916318893433	24998018.863601055
1.3339040279388428	11074338.156411832
1.3382149934768677	3170176.3168936875
1.3425244092941284	902530.7182148397
1.3468321561813354	516020.39384426374
1.3511382341384888	320018.4595555391
1.3554422855377197	206926.3480929468
1.3597444295883179	238260.81391459695
1.3640443086624146	247956.67079886646
1.3683418035507202	288713.0725520903
1.3726370334625244	398834.6754046992
1.3769296407699585	406758.26459973597
1.381219506263733	225412.39047722312
1.3855066299438477	101969.25601662199
1.3897908926010132	151950.58162189592
1.3940720558166504	263669.31156159996
1.3983501195907593	406364.1694094721
1.4026249647140503	665646.8859179338
1.4068963527679443	807845.2367398052
1.4111642837524414	557381.8379694207
1.4154287576675415	303773.1188753682
1.419689416885376	301571.04382467776
1.4239463806152344	405342.5072710294
1.4281994104385376	576419.0540417964
1.4324485063552856	651281.7658617304
1.436693549156189	689547.1551195498
1.440934419631958	997462.830107536
1.4451709985733032	1472932.2109571812
1.449403166770935	1962843.3322307267
1.453631043434143	2494595.3540256135
1.4578542709350586	3204773.0307095125
1.4620729684829712	3775201.2632832713
1.4662868976593018	3859018.4610309866
1.4704961776733398	3930080.0470190668
1.4747005701065063	4139129.6981732864
1.4788999557495117	4170981.4267789326
1.4830944538116455	4268530.719975698
1.4872838258743286	4378034.451189187
1.491468071937561	4438490.410915071
1.4956470727920532	5161740.356410988
1.4998208284378052	6979438.1447001975
1.5039892196655273	8829384.528162047
1.5081522464752197	9415452.24804835
1.5123097896575928	10231424.767824857
1.5164618492126465	12386835.778427674
1.5206083059310913	15017919.572551237
1.5247491598129272	17296080.17117088
1.5288842916488647	18967355.72970498
1.5330137014389038	20867773.048707154
1.5371372699737549	22826610.060775425
1.541254997253418	24477955.57175585
1.545366883277893	26528927.64281578
1.5494728088378906	28694857.4018583
1.5535727739334106	30381162.774010655
1.5576666593551636	32242017.11687857
1.561754584312439	34828711.70333506
1.5658363103866577	37118768.710726984
1.5699119567871094	38114401.92916848
1.5739814043045044	38217940.95470861
1.5780447721481323	38523675.34859384
1.582101821899414	39478399.66636127
1.5861525535583496	40280291.670622915
1.5901970863342285	39900548.10139023
1.5942351818084717	38811514.482232034
1.5982669591903687	37867058.041710645
1.6022924184799194	36353281.31268846
1.606311559677124	34282539.174818896
1.6103241443634033	32632756.47795954
1.6143304109573364	30908134.129501358
1.6183301210403442	28326354.615998667
1.6223233938217163	25358447.933715392
1.6263102293014526	22823966.49222941
1.6302905082702637	21395218.798721574
1.634264349937439	22666155.520221464
1.638231635093689	25969513.829195693
1.6421923637390137	25833476.41379518
1.646146535873413	21271981.377511792
1.6500942707061768	19525238.093383446
1.6540353298187256	22112022.7389275
1.6579699516296387	23479563.131276824
1.661897897720337	21300891.13990954
1.6658192873001099	15506311.989892378
1.6697341203689575	11753323.52037623
1.6736423969268799	13816346.229005894
1.677544116973877	15563268.149309142
1.6814392805099487	15095881.181093113
1.6853278875350952	14166904.837894632
1.6892099380493164	12512639.788013026
1.6930854320526123	10257231.881765855
1.696954369544983	8387196.371067102
1.7008168697357178	8106440.297518587
1.7046726942062378	8855395.09166515
1.708522081375122	10124251.249166194
1.712364912033081	11643284.171937827
1.7162011861801147	12935454.953992842
1.7200311422348022	13553768.091071572
1.723854422569275	13026114.54075849
1.7276713848114014	11973334.370601458
1.731481909751892	11064663.032057831
1.7352858781814575	10322113.494348966
1.7390835285186768	9686624.215060871
1.7428747415542603	9019922.039189376
1.7466596364974976	8396466.87933007
1.7504380941390991	7560749.764352882
1.7542102336883545	6167047.475392547
1.7579760551452637	5208473.950661537
1.7617355585098267	5040315.709410297
1.7654887437820435	4541435.442924157
1.7692357301712036	3659582.162755634
1.7729763984680176	2912306.0480698347
1.776710867881775	2219316.7295399117
1.7804391384124756	1806661.299573144
1.7841613292694092	1657664.8825677964
1.7878772020339966	1322227.5785160952
1.7915871143341064	1009780.5540640735
1.7952908277511597	978076.6374457527
1.7989884614944458	964604.7189231934
1.8026801347732544	673713.9208642275
1.806365728378296	374319.5037750899
1.8100452423095703	271904.9285717244
1.8137187957763672	221043.1535210612
1.817386507987976	200997.09645009166
1.8210482597351074	202376.30123356666
1.8247040510177612	192596.2666986247
1.828354001045227	172895.14886721098
1.8319982290267944	173383.53525749833
1.8356364965438843	186199.015827277
1.8392690420150757	298536.1675684014
1.8428958654403687	616408.2257617348
1.8465168476104736	831454.7144019771
1.8501322269439697	667397.7525644209
1.8537418842315674	438467.5237538129
1.8573459386825562	437123.7760205896
1.860944390296936	445432.81928622077
1.864537239074707	373075.94656061137
1.8681244850158691	356915.2744202087
1.871706247329712	347732.9792731106
1.8752825260162354	550265.1297121351
1.8788533210754395	1098251.2814002233
1.8824186325073242	1380019.7476269698
1.8859784603118896	1173407.7295592902
1.8895330429077148	1095766.0093178046
1.8930821418762207	1560104.9272382394
1.8966259956359863	1790403.7278445049
1.9001644849777222	1072943.6018213893
1.9036977291107178	512246.9269958739
1.9072256088256836	688595.7191835626
1.9107483625411987	700503.5996734145
1.9142658710479736	392384.0696169574
1.9177782535552979	219837.5468762435
1.9212853908538818	172569.6916916825
1.9247875213623047	174921.1399723341
1.9282845258712769	219908.30852796262
1.9317764043807983	273589.1394467478
1.9352631568908691	354919.4411697939
1.9387450218200684	459586.0935593386
1.942221760749817	554340.0349753611
1.9456936120986938	589954.8201078336
1.9491604566574097	659917.9856270071
1.952622413635254	659352.9609434572
1.956079363822937	500179.86686641787
1.959531545639038	497308.22701683146
1.962978720664978	763591.1879522227
1.966421127319336	1224408.7645121187
1.9698586463928223	1652827.9450484042
1.9732913970947266	1699772.242778496
1.9767193794250488	1525975.4819468881
1.9801424741744995	1639588.296307653
1.9835609197616577	2283258.5170478644
1.9869745969772339	2789087.656408027
1.990383505821228	2596642.8165444504
1.9937876462936401	2441197.353963607
1.9971871376037598	2775325.3381380383
2.000581979751587	3155904.166871253
2.003972291946411	3176026.3186419876
2.007357597351074	3434439.7576807216
2.0107386112213135	4321751.187418347
2.0141148567199707	4733130.259640451
2.017486572265625	4543520.289907835
2.0208535194396973	4692615.289133381
2.0242159366607666	4999815.086106134
2.027573823928833	5220397.414368889
2.0309269428253174	5486501.2541614
2.034275770187378	5753242.125274926
2.0376198291778564	6098887.422081066
2.040959596633911	6475100.075919715
2.044294595718384	7007068.990876939
2.0476250648498535	7692894.969980673
2.0509510040283203	7876700.991087237
2.054272413253784	7697130.93565335
2.057589530944824	7942971.794051083
2.0609018802642822	8348401.870663827
2.0642096996307373	8471131.93538805
2.0675129890441895	8526953.035447156
2.0708119869232178	8575526.50110357
2.074106216430664	8499174.744926669
2.0773961544036865	8399980.681926189
2.080681324005127	8368550.823294828
2.0839622020721436	8374584.162278102
2.087238311767578	8405880.254962984
2.090510129928589	8421339.64987008
2.0937774181365967	8375359.3875544565
2.0970399379730225	8305379.335585551
2.1002981662750244	8201274.215108242
2.1035518646240234	8047759.50621096
2.1068007946014404	7893495.224995314
2.1100454330444336	7803620.082433786
2.1132853031158447	7773383.550491283
2.116520881652832	7714236.804730239
2.1197516918182373	7623865.788711308
2.1229779720306396	7554962.395610449
2.12619948387146	7490068.6352188885
2.1294167041778564	7408367.3271713955
2.132629156112671	7324033.3244783385
2.1358368396759033	7187643.969241103
2.139039993286133	7007513.477195631
2.1422386169433594	6779709.880430691
2.145432472229004	6559816.117982652
2.1486217975616455	6426109.78258402
2.151806354522705	6250026.844693758
2.1549863815307617	6144207.732527612
2.1581614017486572	6104165.106310539
2.16133189201355	5958298.47441453
2.1644976139068604	5816186.346047851
2.167658567428589	5696515.298576905
2.1708147525787354	5579228.707712244
2.173966407775879	5459288.597983505
2.1771130561828613	5265848.018408491
2.1802549362182617	5006162.691891338
2.183391809463501	4759440.443662456
2.1865241527557373	4494868.822121699
2.1896514892578125	4046230.032903518
2.1927738189697266	3356480.4246130646
2.1958916187286377	2653921.1137727643
2.1990041732788086	2099717.335083337
2.2021119594573975	1677893.225781182
2.2052149772644043	1488096.016427583
2.208312749862671	1632613.8848853593
2.2114057540893555	1976741.418688337
2.214493751525879	2230915.30382211
2.217576742172241	2239306.939895624
2.2206547260284424	2088705.473757334
2.2237277030944824	1936422.4519130047
2.2267956733703613	1790787.8722937668
2.2298583984375	1659892.8110789906
2.2329163551330566	1573773.2987203603
2.235969066619873	1491255.6623547825
2.2390167713165283	1389545.7460648064
2.2420592308044434	1205776.9901297584
2.2450966835021973	948121.4827913041
2.248128890991211	873335.3711966481
2.2511560916900635	1019505.689477361
2.254178285598755	1081699.6742642333
2.257194995880127	1049027.882100011
2.260206699371338	1036938.5674600606
2.2632133960723877	991606.0737049705
2.266214609146118	973796.94870689
2.2692108154296875	1065260.4714948572
2.2722020149230957	1212017.7475894564
2.2751877307891846	1292009.3667590853
2.278168201446533	1237914.2074595538
2.2811436653137207	1116322.5632939446
2.284113883972168	1015774.4340011156
2.287078857421875	945871.5711799682
2.290038824081421	890151.8664244927
2.2929933071136475	876981.6240376055
2.295942783355713	898347.6464466627
2.298887014389038	904870.9017903148
2.301826238632202	951051.0745347316
2.304760217666626	1178942.6885899277
2.3076889514923096	1599129.8187294533
2.310612440109253	1987858.948682899
2.3135311603546143	1947002.662516216
2.3164443969726562	1360673.053722982
2.319352865219116	810000.419417488
2.322256088256836	709594.0805190112
2.3251543045043945	759712.2174859568
2.328047275543213	728789.774796062
2.330935478210449	714030.0630032594
2.3338186740875244	729491.1134590923
2.3366971015930176	708090.171134451
2.3395702838897705	662626.3301397725
2.3424389362335205	609013.7149706138
2.3453025817871094	570032.6672929355
2.348161458969116	595576.7840050092
2.351015567779541	706855.3031167769
2.353865146636963	869709.1618325475
2.3567099571228027	1037219.2190869666
2.3595502376556396	1224291.3800395848
2.3623859882354736	1388501.9813965913
2.3652172088623047	1323427.4195272978
2.368043899536133	959154.0798375868
2.370866537094116	578168.5124676784
2.3736846446990967	474759.4291761395
2.3764986991882324	599891.7096261347
2.3793084621429443	745802.2555198647
2.3821144104003906	820941.2366704231
2.384916305541992	877439.1489611443
2.387714147567749	972279.9320642006
2.3905084133148193	1056336.4045986976
2.393299102783203	1083593.8248711745
2.3960859775543213	1089117.4385380005
2.398869514465332	1138602.2460619113
2.4016497135162354	1179566.0541570338
2.4044265747070312	1152697.5409655017
2.407200336456299	1181857.2973279704
2.409970998764038	1364375.308838789
2.4127390384674072	1558470.4075809952
2.415503978729248	1580553.953627202
2.418266534805298	1509644.5758513906
2.4210267066955566	1516023.73466783
2.4237842559814453	1570096.5657319608
2.426539897918701	1647750.4500995246
2.429293394088745	1863911.0974005365
2.4320452213287354	2098824.7964207106
2.4347951412200928	2073110.525029082
2.4375438690185547	1989015.3182711618
2.440291166305542	2177460.64733475
2.443037271499634	2269916.1464785235
2.445782423019409	1975483.7804032178
2.4485268592834473	1688004.2547315718
2.451270818710327	1669011.576945777
2.454014539718628	1832052.4754013792
2.4567582607269287	2001430.6293013818
2.4595019817352295	2020026.6298859238
2.4622461795806885	1997491.2934147574
2.4649908542633057	1943254.6730081893
2.4677364826202393	1741364.5551597157
2.4704833030700684	1504692.906173465
2.473231554031372	1297122.7938001314
2.4759814739227295	1124196.6962598034
2.4787333011627197	1061824.6102203012
2.481487512588501	1137667.2614702536
2.4842441082000732	1193521.5989942218
