#wavelength	surface flux
0.6450077295303345	27017.840358622663
0.6472567915916443	43012.632334073154
0.6494921445846558	57177.18156285139
0.6517150402069092	67060.57546887767
0.6539263725280762	77595.8222444337
0.6561272740364075	89112.79530624737
0.6583186388015747	101580.20062133948
0.6605015397071838	114898.49698742431
0.6626768708229065	128809.78744104854
0.6648455858230591	142059.34871600402
0.6670085787773132	146741.3588227051
0.6691668033599854	131128.54061100908
0.6713210344314575	125531.69416401115
0.6734722256660461	166553.72037610222
0.6756211519241333	218881.7119625932
0.6777685880661011	251494.27936433916
0.6799154281616211	275814.37507518363
0.6820623278617859	298556.9151270338
0.6842101216316223	320689.7759312731
0.6863595843315125	342273.615949728
0.688511312007904	363043.3630367724
0.6906660795211792	382122.5705843424
0.6928245425224304	399873.04048125335
0.6949873566627502	418049.35045735026
0.6971551775932312	435833.7758066499
0.6993286609649658	450841.81299733906
0.7015084028244019	462623.7959496386
0.7036949396133423	472027.49053619144
0.7058889269828796	478919.3618770842
0.7080909013748169	482455.39652261557
0.710301399230957	482380.1058260534
0.712520956993103	478191.1497103944
0.7147500514984131	468643.68444826914
0.7169892191886902	453701.1105639082
0.7192389369010925	436346.06109208637
0.7214996814727783	417564.3066333333
0.723771870136261	394649.2028327827
0.7260559797286987	367427.2479150826
0.7283523678779602	337577.48867443413
0.7306615710258484	305817.281455366
0.7329838871955872	272944.4549150125
0.7353196740150452	239065.39708610115
0.7376693487167358	204566.10413364024
0.7400332689285278	170891.48484041245
0.7424117922782898	138879.50056209214
0.7448052167892456	109209.57596059794
0.7472138404846191	82771.4497826573
0.7496379613876343	60130.728148373346
0.7520779371261597	41642.04900204692
0.7545340061187744	27372.596380609528
0.7570064663887024	16997.39559600107
0.7594954967498779	9891.418389189326
0.7620013952255249	5220.943280829764
0.7645244002342224	2287.473658311291
0.7670646905899048	860.602924849047
0.7696225643157959	921.9492626893413
0.7721980810165405	2825.780581607098
0.7747915983200073	7014.660336686063
0.7774031162261963	13098.620285987914
0.7800329327583313	22964.903944450132
0.7826811671257019	42343.41315166479
0.7853479981422424	72591.21774395926
0.7880334854125977	110623.22695625787
0.7907378077507019	139948.40364142836
0.7934610247612	149553.25966131836
0.7962033748626709	214590.7311638262
0.7989648580551147	365015.3339042779
0.801745593547821	521718.2907360153
0.8045456409454346	667232.260251672
0.8073651194572449	824288.1408988491
0.8102040886878967	995053.2177458483
0.8130625486373901	1186870.121510104
0.8159406185150146	1409375.058671915
0.8188382983207703	1662210.2776174813
0.8217556476593018	1945328.8027992253
0.8246926665306091	2260531.848464838
0.8276493549346924	2604018.4397800732
0.8306257724761963	2973982.566519325
0.8336219191551208	3371805.9917658954
0.8366377949714661	3800837.3798085973
0.8396733403205872	4269347.713707811
0.8427285552024841	4780718.805990535
0.8458034992218018	5250624.37461008
0.8488980531692505	5307474.666752275
0.8520121574401855	5234096.256070916
0.8551458716392517	6201482.898300718
0.8582990765571594	7653088.255170089
0.8614717125892639	8391009.68537885
0.8646637797355652	8923698.443329722
0.8678751587867737	9773351.418753829
0.8711057901382446	10729917.027445234
0.8743556141853333	11692132.755221829
0.87762451171875	12724618.269510522
0.8809124231338501	13774473.118042542
0.8842192888259888	14823737.75957105
0.8875449895858765	15596087.389891446
0.8908893465995789	15125223.310759384
0.894252359867096	14432903.833202051
0.8976338505744934	16672558.597902805
0.9010337591171265	20636499.600568376
0.9044519662857056	23426497.249821786
0.9078882932662964	25313141.238704093
0.9113426208496094	26959870.677193712
0.914814829826355	28421040.47406283
0.9183048605918884	29833906.262590423
0.9218124747276306	30915625.463195603
0.925337553024292	28975959.33054986
0.9288799166679382	24411645.84982829
0.9324395060539246	23282928.613004487
0.9360161423683167	26802940.838346135
0.9396095871925354	30292088.13109702
0.943219780921936	30200930.757712983
0.9468464851379395	28843758.20361617
0.9504896402359009	30157769.257489342
0.9541489481925964	33145079.440019753
0.9578243494033813	34540266.14454289
0.9615156054496765	33673422.47792614
0.9652225375175476	33719929.0156258
0.9689450263977051	36908342.03184021
0.9726828336715698	41969466.65620018
0.9764357805252075	45475694.779192254
0.9802037477493286	46916314.32196487
0.983986496925354	48774468.406887464
0.9877838492393494	51024627.58520394
0.9915955662727356	52196849.24481462
0.9954215884208679	51679473.74477109
0.9992615580558777	49862377.39359474
1.0031154155731201	49185946.778440185
1.0069829225540161	51053162.21141727
1.0108637809753418	53991860.49218605
1.0147579908370972	56474916.35901439
1.018665075302124	57878800.10273461
1.022585153579712	58311230.45330939
1.0265177488327026	58467902.576260075
1.0304628610610962	59264755.2850688
1.0344202518463135	60663162.66767721
1.0383895635604858	61653624.10011902
1.0423706769943237	61913206.61134334
1.0463634729385376	61828739.25667204
1.0503677129745483	61655772.63476151
1.0543830394744873	61706483.88183387
1.058409333229065	62142371.20147705
1.0624464750289917	62502033.32279454
1.0664942264556885	62258599.82828898
1.0705522298812866	61630649.054686435
1.0746204853057861	61127760.9531634
1.0786986351013184	60786322.646416105
1.0827864408493042	60393986.01092613
1.086883783340454	59225004.598622434
1.0909905433654785	56163299.17776065
1.0951062440872192	51347050.96662488
1.0992310047149658	44682896.608075015
1.10336434841156	36826245.07457365
1.1075061559677124	31305131.44981578
1.1116561889648438	27465191.422165476
1.115814208984375	24360071.864860542
1.1199802160263062	22652800.876068275
1.124153733253479	22351289.795177616
1.1283347606658936	23877033.846248
1.1325229406356812	23347015.325567644
1.1367181539535522	24976275.468669757
1.1409201622009277	30114846.632397518
1.145128846168518	32018398.625465747
1.1493438482284546	30824780.56625749
1.1535650491714478	27241707.3235395
1.1577922105789185	25129199.53636285
1.1620250940322876	26396421.02959498
1.1662636995315552	28022139.04250816
1.170507550239563	29448187.225077305
1.174756646156311	32297303.15197202
1.1790107488632202	38004610.51790595
1.1832695007324219	45712526.75950831
1.1875330209732056	51709713.46189616
1.191800832748413	55684744.94235246
1.1960728168487549	59488203.56658423
1.2003488540649414	62088692.11841887
1.2046287059783936	63940565.95361483
1.2089121341705322	65275718.576393746
1.2131990194320679	66451137.3863867
1.2174891233444214	68457686.90027733
1.2217823266983032	70620762.5576713
1.2260783910751343	72418078.46488965
1.230377197265625	74001973.84052372
1.2346785068511963	75597774.9522923
1.238982081413269	76980307.70727828
1.2432878017425537	78000971.71911298
1.2475954294204712	78839016.39260632
1.2519049644470215	79767327.77953649
1.256216049194336	82416800.40496443
1.2605286836624146	86072688.80848554
1.2648425102233887	88710622.57980031
1.2691574096679688	90856955.29842567
1.2734732627868652	92820086.05509217
1.2777899503707886	93957147.97104979
1.2821072340011597	93875018.1861285
1.2864248752593994	92813121.71585667
1.2907428741455078	91191212.2378731
1.2950609922409058	90325807.41703765
1.2993791103363037	90330449.71664357
1.303696870803833	90624696.72464688
1.3080145120620728	91092127.17497066
1.3123314380645752	90750399.74767406
1.3166478872299194	89805596.36228888
1.3209635019302368	86046198.00241853
1.3252781629562378	75012739.51364571
1.3295916318893433	54594803.61023316
1.3339040279388428	29241055.824753165
1.3382149934768677	10809344.865384541
1.3425244092941284	3856974.150141944
1.3468321561813354	2396245.979231542
1.3511382341384888	1562303.5643409414
1.3554422855377197	1174191.6706363624
1.3597444295883179	1506916.7683876764
1.3640443086624146	1843603.4403708826
1.3683418035507202	2312368.6483092024
1.3726370334625244	3077243.3198441705
1.3769296407699585	3184747.5226680655
1.381219506263733	1918389.4933890877
1.3855066299438477	896665.2585871457
1.3897908926010132	1077833.0806226253
1.3940720558166504	1624356.816691993
1.3983501195907593	2240730.893597908
1.4026249647140503	3399650.810191524
1.4068963527679443	4025640.267592997
1.4111642837524414	2881431.401180362
1.4154287576675415	1799632.9114538212
1.419689416885376	1842120.9784955587
1.4239463806152344	2257380.1714813835
1.4281994104385376	2909751.7192463703
1.4324485063552856	3212764.353209464
1.436693549156189	3388581.822197793
1.440934419631958	4490824.381835665
1.4451709985733032	6193945.555388789
1.449403166770935	8004456.067413076
1.453631043434143	9794643.612886839
1.4578542709350586	11811161.336288432
1.4620729684829712	13564595.44634971
1.4662868976593018	14098930.72532734
1.4704961776733398	14272896.954444794
1.4747005701065063	14810962.945240445
1.4788999557495117	15055210.625118649
1.4830944538116455	15324080.002017722
1.4872838258743286	15565560.11712574
1.491468071937561	15650655.87698342
1.4956470727920532	17245665.539806932
1.4998208284378052	20997503.348914064
1.5039892196655273	24399063.068696976
1.5081522464752197	25081138.2308843
1.5123097896575928	25737232.813526124
1.5164618492126465	28610410.192588102
1.5206083059310913	32225913.253383193
1.5247491598129272	35075135.818348154
1.5288842916488647	36894175.789118946
1.5330137014389038	38623601.54363005
1.5371372699737549	40279127.93412676
1.541254997253418	41487352.60153942
1.545366883277893	42748125.61431533
1.5494728088378906	44007794.37049047
1.5535727739334106	44893780.89010697
1.5576666593551636	45730549.95196295
1.561754584312439	46769282.57905297
1.5658363103866577	47402438.08535278
1.5699119567871094	47243638.45202742
1.5739814043045044	46740079.63612424
1.5780447721481323	46501570.0821784
1.582101821899414	46636782.52671735
1.5861525535583496	46645197.46120677
1.5901970863342285	45943202.62662225
1.5942351818084717	44719962.25730013
1.5982669591903687	43484506.42762216
1.6022924184799194	42003716.26345251
1.606311559677124	40295227.60249984
1.6103241443634033	38801238.57637991
1.6143304109573364	37278682.51815159
1.6183301210403442	35348095.21589979
1.6223233938217163	33212742.44667875
1.6263102293014526	31266625.751874235
1.6302905082702637	29916770.15206578
1.634264349937439	30059458.22026186
1.638231635093689	31340195.00075162
1.6421923637390137	30933777.269805335
1.646146535873413	28298829.793527313
1.6500942707061768	27136956.37786547
1.6540353298187256	28183716.093915623
1.6579699516296387	28470221.41744407
1.661897897720337	26395570.07564897
1.6658192873001099	21742190.36617778
1.6697341203689575	19183308.147209547
1.6736423969268799	21105201.188985486
1.677544116973877	22359150.364537645
1.6814392805099487	21689133.258113895
1.6853278875350952	20694852.16193846
1.6892099380493164	19331086.285177413
1.6930854320526123	17435943.23635292
1.696954369544983	15720889.626108708
1.7008168697357178	15273108.984599682
1.7046726942062378	15632147.634447474
1.708522081375122	16352622.62529334
1.712364912033081	17190931.347784616
1.7162011861801147	17796435.93932254
1.7200311422348022	17918340.160084218
1.723854422569275	17313686.26364946
1.7276713848114014	16424477.584919795
1.731481909751892	15650275.248013789
1.7352858781814575	15002108.334894063
1.7390835285186768	14408993.676614836
1.7428747415542603	13764416.933234602
1.7466596364974976	13107798.780212436
1.7504380941390991	12172621.865199266
1.7542102336883545	10712373.096308403
1.7579760551452637	9725582.912799673
1.7617355585098267	9499578.053933809
1.7654887437820435	8823457.731876725
1.7692357301712036	7657848.020686365
1.7729763984680176	6563278.67379802
1.776710867881775	5419288.258659167
1.7804391384124756	4666463.501382832
1.7841613292694092	4276714.812824012
1.7878772020339966	3603012.6569061778
1.7915871143341064	3019840.1715867175
1.7952908277511597	2862332.3907166463
1.7989884614944458	2665654.6561673926
1.8026801347732544	1991035.9413863975
1.806365728378296	1355231.301966202
1.8100452423095703	1097013.9631714313
1.8137187957763672	945529.4702308448
1.817386507987976	886978.6335646074
1.8210482597351074	890490.6423999268
1.8247040510177612	865924.8951728796
1.828354001045227	830382.3777292877
1.8319982290267944	861806.2616670701
1.8356364965438843	904294.1633925522
1.8392690420150757	1226630.8522062076
1.8428958654403687	2035023.5401608932
1.8465168476104736	2472127.7335439785
1.8501322269439697	2037370.7840060252
1.8537418842315674	1474604.939436374
1.8573459386825562	1394646.704721992
1.860944390296936	1385310.4904526258
1.864537239074707	1269768.4375526016
1.8681244850158691	1311013.8939024063
1.871706247329712	1331223.17183139
1.8752825260162354	1765792.2108578284
1.8788533210754395	2815200.5225567995
1.8824186325073242	3369549.949655424
1.8859784603118896	3128898.15227513
1.8895330429077148	3005371.6521185637
1.8930821418762207	3525031.14138676
1.8966259956359863	3690713.1696123076
1.9001644849777222	2517007.942177518
1.9036977291107178	1606802.9398674523
1.9072256088256836	1961454.6270810654
1.9107483625411987	2021254.8321151992
1.9142658710479736	1392943.2183828999
1.9177782535552979	970798.8996463598
1.9212853908538818	780762.0043981827
1.9247875213623047	761354.5807653379
1.9282845258712769	902590.2424584408
1.9317764043807983	1051413.7434699063
1.9352631568908691	1240579.631617129
1.9387450218200684	1439655.263814221
1.942221760749817	1599031.1770451167
1.9456936120986938	1646536.3829393876
1.9491604566574097	1750060.693119106
1.952622413635254	1724493.0885668749
1.956079363822937	1419921.4058158004
1.959531545639038	1446846.8397935568
1.962978720664978	1961170.526861645
1.966421127319336	2675263.4310704474
1.9698586463928223	3230706.991730961
1.9732913970947266	3293594.5226336275
1.9767193794250488	3106222.0363982045
1.9801424741744995	3182238.8473273157
1.9835609197616577	3812840.7388967657
1.9869745969772339	4398711.406951878
1.990383505821228	4317813.654739059
1.9937876462936401	4212948.147386537
1.9971871376037598	4498211.256180092
2.000581979751587	4801093.830404716
2.003972291946411	4777849.256594978
2.007357597351074	4884758.902756001
2.0107386112213135	5458395.3899505325
2.0141148567199707	5710329.17071936
2.017486572265625	5567674.227548256
2.0208535194396973	5626541.463144564
2.0242159366607666	5744272.551273275
2.027573823928833	5841031.73635122
2.0309269428253174	5988351.247947753
2.034275770187378	6107036.124019083
2.0376198291778564	6270205.779780109
2.040959596633911	6444969.360237164
2.044294595718384	6661623.206993259
2.0476250648498535	6937915.739795291
2.0509510040283203	7017205.705506797
2.054272413253784	6935825.434595024
2.057589530944824	6989672.378069728
2.0609018802642822	7112170.5233883085
2.0642096996307373	7137758.76008467
2.0675129890441895	7122407.547225092
2.0708119869232178	7102708.416696241
2.074106216430664	7054974.689169856
2.0773961544036865	7005639.3098280635
2.080681324005127	6972534.633458987
2.0839622020721436	6951754.485809357
2.087238311767578	6942032.593886062
2.090510129928589	6924746.827277443
2.0937774181365967	6887365.883892561
2.0970399379730225	6843907.56033369
2.1002981662750244	6793045.023164097
2.1035518646240234	6730230.476812158
2.1068007946014404	6667268.234759752
2.1100454330444336	6621527.475527197
2.1132853031158447	6592251.921569263
2.116520881652832	6555830.118672882
2.1197516918182373	6511710.6361368
2.1229779720306396	6474123.724744058
2.12619948387146	6438296.838592477
2.1294167041778564	6398303.633529463
2.132629156112671	6356674.316488824
2.1358368396759033	6298613.706656592
2.139039993286133	6227825.231010367
2.1422386169433594	6142763.040886448
2.145432472229004	6062964.200987531
2.1486217975616455	6007092.140066467
2.151806354522705	5929389.534737496
2.1549863815307617	5877068.747973379
2.1581614017486572	5851305.847021322
2.16133189201355	5786592.580896797
2.1644976139068604	5712437.426711253
2.167658567428589	5644159.209104646
2.1708147525787354	5589008.81538325
2.173966407775879	5532875.175132368
2.1771130561828613	5427839.662385824
2.1802549362182617	5284280.8964881655
2.183391809463501	5154213.585380366
2.1865241527557373	5004605.400503588
2.1896514892578125	4719151.703945101
2.1927738189697266	4285967.533164587
2.1958916187286377	3867202.3054940444
2.1990041732788086	3515724.024733945
2.2021119594573975	3174741.4320015055
2.2052149772644043	2948525.996386409
2.208312749862671	3014390.074811792
2.2114057540893555	3309381.122163995
2.214493751525879	3551472.1790559585
2.217576742172241	3584282.2522326093
2.2206547260284424	3482498.978918981
2.2237277030944824	3368468.709044901
2.2267956733703613	3235665.4898986067
2.2298583984375	3106389.6706578187
2.2329163551330566	3031320.392764664
2.235969066619873	2961067.436228132
2.2390167713165283	2847744.401453914
2.2420592308044434	2622821.054550629
2.2450966835021973	2298038.4329045163
2.248128890991211	2185663.5558512597
2.2511560916900635	2358114.92003347
2.254178285598755	2439481.158364873
2.257194995880127	2400536.2362389313
2.260206699371338	2393171.3257922293
2.2632133960723877	2348186.6606859183
2.266214609146118	2328966.5872151474
2.2692108154296875	2436364.192204551
2.2722020149230957	2594380.3824192253
2.2751877307891846	2663436.200605014
2.278168201446533	2584666.4167455924
2.2811436653137207	2436585.827181461
2.284113883972168	2316126.5721021993
2.287078857421875	2230354.019566593
2.290038824081421	2162167.3667668593
2.2929933071136475	2148718.0776822283
2.295942783355713	2180054.614318338
2.298887014389038	2203446.7527523814
2.301826238632202	2277860.463780841
2.304760217666626	2524218.1575305588
2.3076889514923096	2904516.8627543924
2.310612440109253	3196251.6958761183
2.3135311603546143	3085860.7824835316
2.3164443969726562	2470629.659674119
2.319352865219116	1892880.5862941868
2.322256088256836	1814094.6070111217
2.3251543045043945	1886005.3317268353
2.328047275543213	1821744.133937997
2.330935478210449	1798993.795736402
2.3338186740875244	1834865.6820074415
2.3366971015930176	1814346.514767674
2.3395702838897705	1760968.9332440442
2.3424389362335205	1694975.7618500043
2.3453025817871094	1644658.9836992596
2.348161458969116	1695948.7329885778
2.351015567779541	1880808.107068811
2.353865146636963	2131142.725799788
2.3567099571228027	2358379.145985746
2.3595502376556396	2570271.3859173977
2.3623859882354736	2738656.794927654
2.3652172088623047	2639191.7695809924
2.368043899536133	2142055.1956968023
2.370866537094116	1574212.4985324729
2.3736846446990967	1427166.6357794567
2.3764986991882324	1662052.8060402365
2.3793084621429443	1899465.8145300467
2.3821144104003906	2007048.3860980812
2.384916305541992	2100336.934370388
2.387714147567749	2258931.6998567823
2.3905084133148193	2389812.633542713
2.393299102783203	2430837.9098242833
2.3960859775543213	2442458.5340316035
2.398869514465332	2509774.0963625796
2.4016497135162354	2564821.2697379705
2.4044265747070312	2531624.492518426
2.407200336456299	2558398.080338192
2.409970998764038	2756023.969697084
2.4127390384674072	2965595.764040691
2.415503978729248	2993264.1533839637
2.418266534805298	2921284.4651511675
2.4210267066955566	2932378.5790086864
2.4237842559814453	3004900.323291325
2.426539897918701	3094121.7023310633
2.429293394088745	3294068.1311780005
2.4320452213287354	3507877.2531348797
2.4347951412200928	3483046.1196822715
2.4375438690185547	3396040.82064356
2.440291166305542	3559040.9380033608
2.443037271499634	3645425.4969502264
2.445782423019409	3380628.364790893
2.4485268592834473	3124068.699591958
2.451270818710327	3102325.8644635724
2.454014539718628	3237144.1835909793
2.4567582607269287	3386577.9286921616
2.4595019817352295	3388952.1921777083
2.4622461795806885	3367323.435259319
2.4649908542633057	3325197.0347693847
2.4677364826202393	3110708.293250107
2.4704833030700684	2830456.114282332
2.473231554031372	2538967.930477885
2.4759814739227295	2267692.7878337903
2.4787333011627197	2165189.272556914
2.481487512588501	2289612.50440249
