#wavelength	surface flux
0.6450077295303345	146420.04004096275
0.6472567915916443	231090.77405061483
0.6494921445846558	302430.61627268995
0.6517150402069092	348086.52881035267
0.6539263725280762	395184.653914036
0.6561272740364075	445231.3263890833
0.6583186388015747	497685.36896593176
0.6605015397071838	551359.8855540977
0.6626768708229065	603177.2227040689
0.6648455858230591	642101.1707685265
0.6670085787773132	623172.2400210878
0.6691668033599854	501288.32464390795
0.6713210344314575	440401.4489681669
0.6734722256660461	623409.9612308779
0.6756211519241333	882004.6826675474
0.6777685880661011	1045783.746022682
0.6799154281616211	1153322.189655613
0.6820623278617859	1243813.6957896864
0.6842101216316223	1325806.4171264947
0.6863595843315125	1399144.2425017466
0.688511312007904	1465897.4752161931
0.6906660795211792	1525478.8756790096
0.6928245425224304	1581259.256373158
0.6949873566627502	1644669.17758789
0.6971551775932312	1711222.275891779
0.6993286609649658	1765907.794390918
0.7015084028244019	1802430.0006745888
0.7036949396133423	1827713.4594666802
0.7058889269828796	1848933.021282427
0.7080909013748169	1859428.0461809281
0.710301399230957	1853380.8180700776
0.712520956993103	1831935.4065093496
0.7147500514984131	1792253.0743482274
0.7169892191886902	1733859.2001176332
0.7192389369010925	1669712.697959942
0.7214996814727783	1603235.2310235575
0.723771870136261	1521908.6827291704
0.7260559797286987	1423847.7113370327
0.7283523678779602	1315686.7115839147
0.7306615710258484	1201814.2092103595
0.7329838871955872	1084937.3199551539
0.7353196740150452	962844.2214758436
0.7376693487167358	835774.0754120536
0.7400332689285278	709882.185047616
0.7424117922782898	587499.2812629165
0.7448052167892456	470245.8402070605
0.7472138404846191	361893.3561138336
0.7496379613876343	265193.29858684563
0.7520779371261597	182712.96843953282
0.7545340061187744	116493.77865597258
0.7570064663887024	67223.65619775433
0.7594954967498779	34136.82913169116
0.7620013952255249	14657.425761716464
0.7645244002342224	4961.231078655799
0.7670646905899048	1376.7845020813418
0.7696225643157959	1525.4029791543453
0.7721980810165405	6342.963595860144
0.7747915983200073	19560.778532670447
0.7774031162261963	42290.28026048849
0.7800329327583313	83768.55515870171
0.7826811671257019	168246.74599335607
0.7853479981422424	297311.8264773213
0.7880334854125977	451547.6331543007
0.7907378077507019	558525.4013345238
0.7934610247612	572644.4171582253
0.7962033748626709	798504.8200396047
0.7989648580551147	1343590.1739768803
0.801745593547821	1880654.946191196
0.8045456409454346	2343019.301534136
0.8073651194572449	2818099.1662626253
0.8102040886878967	3310400.317588815
0.8130625486373901	3845590.433289971
0.8159406185150146	4428942.8191656405
0.8188382983207703	5074536.411167308
0.8217556476593018	5882847.902356324
0.8246926665306091	6815805.566432623
0.8276493549346924	7763100.243539891
0.8306257724761963	8738463.415971698
0.8336219191551208	9759138.585721908
0.8366377949714661	10831398.831516512
0.8396733403205872	11985599.290698469
0.8427285552024841	13240654.693185456
0.8458034992218018	14358738.181896292
0.8488980531692505	14210751.329044865
0.8520121574401855	13596394.022902627
0.8551458716392517	15941126.933754915
0.8582990765571594	19006555.297916472
0.8614717125892639	18503301.790334605
0.8646637797355652	17388645.39474445
0.8678751587867737	18610799.757918462
0.8711057901382446	20377421.6442166
0.8743556141853333	21863675.241303355
0.87762451171875	23618717.62774188
0.8809124231338501	25336277.572821237
0.8842192888259888	27186926.181452967
0.8875449895858765	28454543.453926023
0.8908893465995789	27289167.55573869
0.894252359867096	26742905.741213538
0.8976338505744934	32005093.294377
0.9010337591171265	40001196.66862952
0.9044519662857056	45754711.466896065
0.9078882932662964	49756114.74459481
0.9113426208496094	53313983.15767695
0.914814829826355	55998479.1203121
0.9183048605918884	58146990.6915631
0.9218124747276306	59657536.76048913
0.925337553024292	53982530.07608735
0.9288799166679382	42431344.11793185
0.9324395060539246	39162199.219091095
0.9360161423683167	45834779.82271043
0.9396095871925354	52067063.01887754
0.943219780921936	50584507.08921793
0.9468464851379395	46535888.453877255
0.9504896402359009	48610799.17370171
0.9541489481925964	54488683.81145715
0.9578243494033813	56380961.64439667
0.9615156054496765	52486851.89914281
0.9652225375175476	50703468.64720655
0.9689450263977051	56638581.21864459
0.9726828336715698	67879989.56810167
0.9764357805252075	75812753.28755721
0.9802037477493286	78346507.16762762
0.983986496925354	81127640.16839823
0.9877838492393494	82228178.01652803
0.9915955662727356	79033204.5185743
0.9954215884208679	74413121.1894993
0.9992615580558777	68783928.78367057
1.0031154155731201	66196767.43328612
1.0069829225540161	70194587.04796873
1.0108637809753418	77125811.24975835
1.0147579908370972	83671841.30890389
1.018665075302124	88154208.37351923
1.022585153579712	89890579.3621171
1.0265177488327026	90796589.25396091
1.0304628610610962	94540199.80797772
1.0344202518463135	100449794.62639935
1.0383895635604858	104605076.21451683
1.0423706769943237	106344719.15411589
1.0463634729385376	107278718.48067772
1.0503677129745483	107510795.54866196
1.0543830394744873	107923765.1192253
1.058409333229065	109492449.03354481
1.0624464750289917	111351480.09674743
1.0664942264556885	112782951.37815519
1.0705522298812866	114084830.80708885
1.0746204853057861	115870126.46973598
1.0786986351013184	117636567.73029724
1.0827864408493042	118204792.3865393
1.086883783340454	115213857.60232915
1.0909905433654785	106019534.0116226
1.0951062440872192	92624190.84573174
1.0992310047149658	76211212.78890008
1.10336434841156	58331637.9525229
1.1075061559677124	48030588.012518026
1.1116561889648438	42980353.89724815
1.115814208984375	38195388.3072436
1.1199802160263062	34165384.30986413
1.124153733253479	31747499.040897254
1.1283347606658936	33493484.653694887
1.1325229406356812	32408225.25544117
1.1367181539535522	34170446.29047519
1.1409201622009277	41476129.87603704
1.145128846168518	45414440.35429761
1.1493438482284546	45075384.57782752
1.1535650491714478	38491778.24801502
1.1577922105789185	33361832.32714531
1.1620250940322876	34488828.53178491
1.1662636995315552	35870052.4020498
1.170507550239563	36416345.85482767
1.174756646156311	39875712.532970816
1.1790107488632202	49737281.965820774
1.1832695007324219	64903047.69898809
1.1875330209732056	77091004.24383633
1.191800832748413	85596061.37447965
1.1960728168487549	94233924.89610751
1.2003488540649414	100313848.9831394
1.2046287059783936	105255427.8664408
1.2089121341705322	108666166.46338843
1.2131990194320679	111570377.52749194
1.2174891233444214	117404064.99741498
1.2217823266983032	123867271.94451271
1.2260783910751343	128720579.62382104
1.230377197265625	131990115.53220592
1.2346785068511963	134301284.48152182
1.238982081413269	133473258.69552559
1.2432878017425537	130380577.55663455
1.2475954294204712	128963904.15349242
1.2519049644470215	128774250.49748383
1.256216049194336	136684435.56777748
1.2605286836624146	148680531.22309363
1.2648425102233887	153861377.9999982
1.2691574096679688	156311591.5294045
1.2734732627868652	158534228.25269574
1.2777899503707886	158731284.6107043
1.2821072340011597	156133849.12984532
1.2864248752593994	151843458.65103698
1.2907428741455078	146527205.2781073
1.2950609922409058	143250768.09282836
1.2993791103363037	142377665.04127565
1.303696870803833	141940348.12245286
1.3080145120620728	141581207.97323132
1.3123314380645752	138896760.01040173
1.3166478872299194	134516643.51260582
1.3209635019302368	125097615.61146127
1.3252781629562378	103784432.60215256
1.3295916318893433	71237555.70385726
1.3339040279388428	35587876.9325302
1.3382149934768677	11859652.159895753
1.3425244092941284	4311088.983010005
1.3468321561813354	3114600.525172512
1.3511382341384888	2130230.7293960243
1.3554422855377197	1650801.6109183482
1.3597444295883179	2082879.1666057885
1.3640443086624146	2365061.29011333
1.3683418035507202	2742030.973298797
1.3726370334625244	3467547.0161235323
1.3769296407699585	3507052.7137577278
1.381219506263733	2120055.626834227
1.3855066299438477	1057367.9141299496
1.3897908926010132	1345673.2644625113
1.3940720558166504	2044461.416713502
1.3983501195907593	2709577.2045982922
1.4026249647140503	4064674.893996296
1.4068963527679443	4948654.018354128
1.4111642837524414	3583425.4669319005
1.4154287576675415	2156239.105143373
1.419689416885376	2145046.786134086
1.4239463806152344	2680197.361932327
1.4281994104385376	3540582.1211915566
1.4324485063552856	3802961.1584549714
1.436693549156189	3757846.2193596046
1.440934419631958	4878164.18038464
1.4451709985733032	6672087.395394187
1.449403166770935	8427936.333119504
1.453631043434143	10159449.320290975
1.4578542709350586	12366012.902166177
1.4620729684829712	14356669.888500093
1.4662868976593018	14897326.532866878
1.4704961776733398	15244921.644805156
1.4747005701065063	16107287.022572009
1.4788999557495117	16524955.834188309
1.4830944538116455	17189669.406958796
1.4872838258743286	18090941.609905187
1.491468071937561	18766093.39812683
1.4956470727920532	21012317.495655473
1.4998208284378052	25779648.05650447
1.5039892196655273	30087896.228589505
1.5081522464752197	31167979.58389024
1.5123097896575928	32798476.862751823
1.5164618492126465	37342486.72455738
1.5206083059310913	43006283.18296807
1.5247491598129272	47413057.05862293
1.5288842916488647	49420783.72653577
1.5330137014389038	52099347.164845936
1.5371372699737549	55024595.67743744
1.541254997253418	56765304.57421905
1.545366883277893	59530503.35170245
1.5494728088378906	62418704.58842543
1.5535727739334106	63794913.599798605
1.5576666593551636	65267931.611304864
1.561754584312439	67776134.70519032
1.5658363103866577	69793640.25530508
1.5699119567871094	70485743.51377192
1.5739814043045044	70485459.41262433
1.5780447721481323	70904775.43902811
1.582101821899414	72155057.29538748
1.5861525535583496	73168682.49458458
1.5901970863342285	72634126.19558147
1.5942351818084717	71076646.19717485
1.5982669591903687	69635423.44922659
1.6022924184799194	67725309.23316799
1.606311559677124	65256775.38411466
1.6103241443634033	63136223.169834845
1.6143304109573364	60952449.53019971
1.6183301210403442	57921693.494861566
1.6223233938217163	54478739.830359556
1.6263102293014526	51418450.54008659
1.6302905082702637	49438121.015311204
1.634264349937439	50350150.32513579
1.638231635093689	53491638.65431268
1.6421923637390137	53184234.222712874
1.646146535873413	48390988.19145743
1.6500942707061768	46371625.15381026
1.6540353298187256	48625912.087563895
1.6579699516296387	49464800.78628038
1.661897897720337	45862846.86527277
1.6658192873001099	37240870.77483561
1.6697341203689575	32247955.238001253
1.6736423969268799	36029921.96948548
1.677544116973877	38944454.287738316
1.6814392805099487	38050399.54577836
1.6853278875350952	36281697.48672069
1.6892099380493164	33584148.62213345
1.6930854320526123	29825923.865954407
1.696954369544983	26573692.17418524
1.7008168697357178	25931206.796460576
1.7046726942062378	26920601.699593727
1.708522081375122	28525487.355219197
1.712364912033081	30203298.988975823
1.7162011861801147	31363407.60447695
1.7200311422348022	31586505.820270766
1.723854422569275	30385009.05265941
1.7276713848114014	28576411.39435051
1.731481909751892	26916304.975580506
1.7352858781814575	25437225.17574459
1.7390835285186768	23961552.76790093
1.7428747415542603	22366845.701212328
1.7466596364974976	21023696.807296485
1.7504380941390991	19252876.413595464
1.7542102336883545	16220424.388611441
1.7579760551452637	14211324.62203095
1.7617355585098267	14128386.600112362
1.7654887437820435	13271199.742117522
1.7692357301712036	11215371.60051992
1.7729763984680176	9260803.221762028
1.776710867881775	7372095.2974548945
1.7804391384124756	6207564.405335576
1.7841613292694092	5732192.129664737
1.7878772020339966	4788699.698639391
1.7915871143341064	3964770.439437468
1.7952908277511597	3837249.8756778897
1.7989884614944458	3656635.187846769
1.8026801347732544	2736002.2180217383
1.806365728378296	1831355.3703945894
1.8100452423095703	1473255.9161102963
1.8137187957763672	1286422.5082220398
1.817386507987976	1232659.8018643653
1.8210482597351074	1257237.263473367
1.8247040510177612	1234417.3474930113
1.828354001045227	1196247.2340867997
1.8319982290267944	1258491.5943127538
1.8356364965438843	1343524.952814514
1.8392690420150757	1848283.9797956476
1.8428958654403687	3044335.466653061
1.8465168476104736	3653146.6724257558
1.8501322269439697	2945614.189264764
1.8537418842315674	2073747.0403544002
1.8573459386825562	1938862.7289828863
1.860944390296936	1927736.7154068968
1.864537239074707	1847809.859808709
1.8681244850158691	2022958.8864068154
1.871706247329712	2070290.4611969434
1.8752825260162354	2673876.389998976
1.8788533210754395	4222039.144360869
1.8824186325073242	5044157.733531802
1.8859784603118896	4717263.81730565
1.8895330429077148	4643278.8035437
1.8930821418762207	5654215.207368345
1.8966259956359863	6058958.274837622
1.9001644849777222	4115486.112893612
1.9036977291107178	2639925.422156487
1.9072256088256836	3359101.117331735
1.9107483625411987	3426226.5921123684
1.9142658710479736	2228721.6782710687
1.9177782535552979	1472016.9991032847
1.9212853908538818	1175312.209941354
1.9247875213623047	1142901.4715685165
1.9282845258712769	1359957.6365438874
1.9317764043807983	1632316.625689259
1.9352631568908691	2022950.5760667145
1.9387450218200684	2430788.1985872462
1.942221760749817	2725898.9025823157
1.9456936120986938	2739844.2344968677
1.9491604566574097	2818383.0514890747
1.952622413635254	2736040.3306544004
1.956079363822937	2231982.8552669687
1.959531545639038	2247699.097236728
1.962978720664978	3015884.3359243707
1.966421127319336	4393479.750723455
1.9698586463928223	5699358.032599581
1.9732913970947266	5790262.44159836
1.9767193794250488	5383309.222735356
1.9801424741744995	5736240.9135272475
1.9835609197616577	7113210.844397896
1.9869745969772339	8175690.777019481
1.990383505821228	7817591.040005603
1.9937876462936401	7717867.249976775
1.9971871376037598	8316276.483327503
2.000581979751587	8766502.527544523
2.003972291946411	9201251.820832163
2.007357597351074	9864656.572925873
2.0107386112213135	10935309.547966722
2.0141148567199707	11528101.554827979
2.017486572265625	11363115.016487913
2.0208535194396973	11785467.246152889
2.0242159366607666	12609207.706847236
2.027573823928833	12885058.364512099
2.0309269428253174	12995176.45434001
2.034275770187378	13325757.115170129
2.0376198291778564	13711238.57639069
2.040959596633911	14044065.958718477
2.044294595718384	14577917.657768369
2.0476250648498535	15295412.024687756
2.0509510040283203	15443842.098044919
2.054272413253784	15214194.749128498
2.057589530944824	15499759.861202357
2.0609018802642822	15889405.855960047
2.0642096996307373	15928926.563605297
2.0675129890441895	15973775.443164088
2.0708119869232178	16038113.940060506
2.074106216430664	15906368.695701074
2.0773961544036865	15736018.092403665
2.080681324005127	15685209.109086227
2.0839622020721436	15677132.692453435
2.087238311767578	15676336.331275418
2.090510129928589	15673888.494218862
2.0937774181365967	15617083.334103877
2.0970399379730225	15528087.819927337
2.1002981662750244	15391502.806462955
2.1035518646240234	15182257.91957247
2.1068007946014404	14967855.913682852
2.1100454330444336	14849079.94243439
2.1132853031158447	14814497.617860762
2.116520881652832	14742914.441836292
2.1197516918182373	14635528.635727836
2.1229779720306396	14552335.63871736
2.12619948387146	14462424.67588451
2.1294167041778564	14344162.747746289
2.132629156112671	14221221.203078305
2.1358368396759033	14041621.498385038
2.139039993286133	13811269.234775944
2.1422386169433594	13538074.501227228
2.145432472229004	13280720.69349261
2.1486217975616455	13119693.982534181
2.151806354522705	12932750.358018417
2.1549863815307617	12820939.842329016
2.1581614017486572	12749763.780705336
2.16133189201355	12555941.76773572
2.1644976139068604	12384757.170231592
2.167658567428589	12230563.559376368
2.1708147525787354	12031633.551647238
2.173966407775879	11804866.983649328
2.1771130561828613	11539250.875713766
2.1802549362182617	11242316.665446116
2.183391809463501	10932894.447970571
2.1865241527557373	10584641.121225115
2.1896514892578125	10057047.701383078
2.1927738189697266	9179785.146018429
2.1958916187286377	8070677.690649376
2.1990041732788086	6969740.631653052
2.2021119594573975	6002849.467418203
2.2052149772644043	5448538.717710402
2.208312749862671	5665235.707038496
2.2114057540893555	6396283.71076855
2.214493751525879	6928210.736752875
2.217576742172241	6966170.329999992
2.2206547260284424	6733786.989533977
2.2237277030944824	6497506.717917221
2.2267956733703613	6196407.483395119
2.2298583984375	5869748.565601777
2.2329163551330566	5635000.73797566
2.235969066619873	5418902.18246041
2.2390167713165283	5185783.930403447
2.2420592308044434	4801373.743903268
2.2450966835021973	4294093.665473292
2.248128890991211	4183309.223207305
2.2511560916900635	4477260.6208931
2.254178285598755	4568924.356281488
2.257194995880127	4486742.950959962
2.260206699371338	4407815.814868814
2.2632133960723877	4192508.239369646
2.266214609146118	4066318.6055141077
2.2692108154296875	4256218.8203213075
2.2722020149230957	4595428.195160192
2.2751877307891846	4784975.182833663
2.278168201446533	4665017.160629914
2.2811436653137207	4376035.3672888065
2.284113883972168	4114785.3276038095
2.287078857421875	3910844.7294410104
2.290038824081421	3746637.2456248025
2.2929933071136475	3702822.74008231
2.295942783355713	3784633.7809509593
2.298887014389038	3903075.8396861046
2.301826238632202	4152653.0682718703
2.304760217666626	4722316.983348994
2.3076889514923096	5561710.318645008
2.310612440109253	6256511.876349324
2.3135311603546143	6078688.903542028
2.3164443969726562	4768390.032163546
2.319352865219116	3434362.0344197387
2.322256088256836	3069227.45683769
2.3251543045043945	3127873.184140401
2.328047275543213	3056866.6946127713
2.330935478210449	3014672.378607575
2.3338186740875244	3027838.6974636056
2.3366971015930176	3004296.1479407633
2.3395702838897705	2933298.968535258
2.3424389362335205	2803735.98748165
2.3453025817871094	2705469.3117516316
2.348161458969116	2800993.815995166
2.351015567779541	3131711.5742832185
2.353865146636963	3578091.6495890184
2.3567099571228027	3986931.6289771246
2.3595502376556396	4387795.4518450275
2.3623859882354736	4737877.730497387
2.3652172088623047	4593033.571081175
2.368043899536133	3687852.207457406
2.370866537094116	2628539.844730661
2.3736846446990967	2304531.3886510856
2.3764986991882324	2637920.954246069
2.3793084621429443	2976234.516456279
2.3821144104003906	3134933.400659455
2.384916305541992	3324668.855618337
2.387714147567749	3633211.106486859
2.3905084133148193	3869002.264086867
2.393299102783203	3948051.614457896
2.3960859775543213	3995811.485530506
2.398869514465332	4136843.640401979
2.4016497135162354	4221165.463998195
2.4044265747070312	4134148.9419755107
2.407200336456299	4171924.7153911656
2.409970998764038	4526413.952262269
2.4127390384674072	4894599.514435276
2.415503978729248	4927399.054338187
2.418266534805298	4779273.461165916
2.4210267066955566	4777386.151907023
2.4237842559814453	4877523.7225150885
2.426539897918701	5005434.749717787
2.429293394088745	5353709.2716425955
2.4320452213287354	5744638.921798746
2.4347951412200928	5668569.644534052
2.4375438690185547	5445292.1311613
2.440291166305542	5690642.210150179
2.443037271499634	5779215.166825727
2.445782423019409	5224076.6561044445
2.4485268592834473	4722476.397066913
2.451270818710327	4622402.533016025
2.454014539718628	4807707.894887283
2.4567582607269287	5074794.971236495
2.4595019817352295	5042704.046425111
2.4622461795806885	4964655.607060356
2.4649908542633057	4881944.775886291
2.4677364826202393	4457895.044578405
2.4704833030700684	3928213.236803985
2.473231554031372	3429145.5587659036
2.4759814739227295	2989169.702149015
2.4787333011627197	2825629.9992528427
