#wavelength	surface flux
0.6450077295303345	14404.48785149049
0.6472567915916443	22915.060124262687
0.6494921445846558	30441.59801200753
0.6517150402069092	35691.00337946135
0.6539263725280762	41284.55882688808
0.6561272740364075	47394.82470880262
0.6583186388015747	54019.6489090559
0.6605015397071838	61143.27903083969
0.6626768708229065	68675.96582081956
0.6648455858230591	76084.49955011743
0.6670085787773132	79516.00891442118
0.6691668033599854	72794.26737502927
0.6713210344314575	70976.30576041543
0.6734722256660461	92408.73089241686
0.6756211519241333	119017.3247457832
0.6777685880661011	135635.56693968357
0.6799154281616211	148464.8343805195
0.6820623278617859	160728.37359794695
0.6842101216316223	172825.5639257475
0.6863595843315125	184727.34086903458
0.688511312007904	196143.98656300377
0.6906660795211792	206294.10920318577
0.6928245425224304	215629.31334590077
0.6949873566627502	226010.05732139165
0.6971551775932312	236817.78462491318
0.6993286609649658	245809.4545344904
0.7015084028244019	252691.78417779962
0.7036949396133423	258513.989451242
0.7058889269828796	263275.75971130666
0.7080909013748169	266204.01496635505
0.710301399230957	267143.37639520195
0.712520956993103	265714.73574716476
0.7147500514984131	260714.28373948278
0.7169892191886902	252007.26833413442
0.7192389369010925	242559.39400710628
0.7214996814727783	233470.7185511501
0.723771870136261	221909.20184759537
0.7260559797286987	207357.02434256408
0.7283523678779602	191266.13290352304
0.7306615710258484	174169.834722849
0.7329838871955872	156609.7394326638
0.7353196740150452	138342.79089962714
0.7376693487167358	119259.09710319598
0.7400332689285278	100419.03559415121
0.7424117922782898	82360.09194689363
0.7448052167892456	65394.55975709143
0.7472138404846191	50103.130232206735
0.7496379613876343	36845.40407936555
0.7520779371261597	25869.45504142846
0.7545340061187744	17271.336106192513
0.7570064663887024	10902.791974421969
0.7594954967498779	6432.784686911712
0.7620013952255249	3417.709438608747
0.7645244002342224	1496.2919674705806
0.7670646905899048	559.6318487889532
0.7696225643157959	600.0326297563031
0.7721980810165405	1857.7746962698202
0.7747915983200073	4630.047677783569
0.7774031162261963	8637.244151215426
0.7800329327583313	14980.276283700974
0.7826811671257019	27164.489388006732
0.7853479981422424	45962.50295524499
0.7880334854125977	69396.7935709374
0.7907378077507019	87012.30078179186
0.7934610247612	91983.19507997493
0.7962033748626709	131630.03960986456
0.7989648580551147	223958.91381979955
0.801745593547821	319091.3480346712
0.8045456409454346	406449.8491391449
0.8073651194572449	499086.1969647101
0.8102040886878967	596586.0629728825
0.8130625486373901	705914.0036527684
0.8159406185150146	838148.3921834732
0.8188382983207703	991572.3752506612
0.8217556476593018	1160863.2538616909
0.8246926665306091	1348262.9036756726
0.8276493549346924	1553135.9672895737
0.8306257724761963	1771982.4088677957
0.8336219191551208	2004295.0093568785
0.8366377949714661	2253755.748718118
0.8396733403205872	2529801.1422346863
0.8427285552024841	2838936.562267354
0.8458034992218018	3134780.294439826
0.8488980531692505	3183913.2665709546
0.8520121574401855	3145885.8426025915
0.8551458716392517	3745673.0029432653
0.8582990765571594	4656494.991010995
0.8614717125892639	5144391.141265318
0.8646637797355652	5504121.436091485
0.8678751587867737	6045286.0043410575
0.8711057901382446	6647854.338716703
0.8743556141853333	7246677.722527578
0.87762451171875	7871339.99942792
0.8809124231338501	8478667.770475097
0.8842192888259888	9065779.547782421
0.8875449895858765	9447144.03851593
0.8908893465995789	8988298.22491398
0.894252359867096	8416915.156471048
0.8976338505744934	9847549.202890843
0.9010337591171265	12522186.633787083
0.9044519662857056	14459649.84090722
0.9078882932662964	15701163.212014321
0.9113426208496094	16706853.89619754
0.914814829826355	17490000.542171136
0.9183048605918884	18192635.026750088
0.9218124747276306	18687590.90238638
0.925337553024292	16551366.0965015
0.9288799166679382	12126901.053056853
0.9324395060539246	10547012.004667234
0.9360161423683167	12795174.565054832
0.9396095871925354	15143597.481248358
0.943219780921936	14489511.00528057
0.9468464851379395	12771912.921157122
0.9504896402359009	13538833.026658151
0.9541489481925964	15966080.534546917
0.9578243494033813	16952405.106338985
0.9615156054496765	15728177.424861914
0.9652225375175476	15334312.4533165
0.9689450263977051	17984090.20698272
0.9726828336715698	22569452.13354647
0.9764357805252075	25611152.755066667
0.9802037477493286	26566570.155478686
0.983986496925354	28114960.855876453
0.9877838492393494	30347594.401103515
0.9915955662727356	31876360.39071692
0.9954215884208679	32146707.969507728
0.9992615580558777	31340469.53094826
1.0031154155731201	31230708.041142512
1.0069829225540161	32936016.97749335
1.0108637809753418	35456350.14870429
1.0147579908370972	37684591.12524765
1.018665075302124	38998200.36677315
1.022585153579712	39348630.17047264
1.0265177488327026	39435458.420894906
1.0304628610610962	40209703.85670049
1.0344202518463135	41571405.18351701
1.0383895635604858	42511495.64383697
1.0423706769943237	42768137.03791096
1.0463634729385376	42732297.795865946
1.0503677129745483	42613232.61215747
1.0543830394744873	42700725.86219917
1.058409333229065	43098290.386385456
1.0624464750289917	43335524.68307771
1.0664942264556885	42992092.436223574
1.0705522298812866	42334857.73046625
1.0746204853057861	41879267.214544594
1.0786986351013184	41600074.46917496
1.0827864408493042	41150696.33221866
1.086883783340454	39700273.79814394
1.0909905433654785	36212317.09563889
1.0951062440872192	31206486.2614013
1.0992310047149658	25014308.934769228
1.10336434841156	18322812.628404465
1.1075061559677124	14321145.056133008
1.1116561889648438	12111739.479066025
1.115814208984375	10051719.920111725
1.1199802160263062	8555360.038977714
1.124153733253479	7812256.587127304
1.1283347606658936	8594355.93655791
1.1325229406356812	8854981.574379917
1.1367181539535522	10388303.83912562
1.1409201622009277	13115125.997307945
1.145128846168518	13629388.81475469
1.1493438482284546	12648376.451342106
1.1535650491714478	10197792.108101903
1.1577922105789185	8631800.96195631
1.1620250940322876	9484302.236851256
1.1662636995315552	10860794.31952337
1.170507550239563	12192701.191041617
1.174756646156311	14739038.880459338
1.1790107488632202	19342467.6629879
1.1832695007324219	25031468.84928475
1.1875330209732056	29364605.301806025
1.191800832748413	32688956.837366868
1.1960728168487549	36283762.82574501
1.2003488540649414	38857199.270401396
1.2046287059783936	40799515.91798483
1.2089121341705322	42124129.11378245
1.2131990194320679	43215184.08920526
1.2174891233444214	45278040.85902786
1.2217823266983032	47596012.62104868
1.2260783910751343	49466596.22418811
1.230377197265625	50957672.56440118
1.2346785068511963	52425228.50053327
1.238982081413269	53698056.404734455
1.2432878017425537	54592685.085881576
1.2475954294204712	55347909.260524035
1.2519049644470215	56128448.818225354
1.256216049194336	58455880.4343862
1.2605286836624146	61465809.84858891
1.2648425102233887	63235535.65683149
1.2691574096679688	64616307.79423606
1.2734732627868652	65895815.143150724
1.2777899503707886	66204570.843344
1.2821072340011597	65156986.97030027
1.2864248752593994	63236151.3088831
1.2907428741455078	60741446.67268016
1.2950609922409058	59157373.01857252
1.2993791103363037	58751582.22500943
1.303696870803833	58755107.03904534
1.3080145120620728	58910061.567427605
1.3123314380645752	58142614.089965105
1.3166478872299194	57066302.94510608
1.3209635019302368	53609198.55934545
1.3252781629562378	44166259.67676777
1.3295916318893433	29548765.525426656
1.3339040279388428	14186241.802768508
1.3382149934768677	4457713.2318095155
1.3425244092941284	1359836.7327368748
1.3468321561813354	810685.2104515006
1.3511382341384888	508059.8877033543
1.3554422855377197	335889.09610052477
1.3597444295883179	395710.8781002706
1.3640443086624146	419763.026140725
1.3683418035507202	490910.33097542473
1.3726370334625244	673773.349009021
1.3769296407699585	689082.3896662629
1.381219506263733	383416.50452407537
1.3855066299438477	167437.02679526218
1.3897908926010132	243158.57828768736
1.3940720558166504	423226.3483061325
1.3983501195907593	645214.1397393096
1.4026249647140503	1057456.4393026151
1.4068963527679443	1290361.8797882
1.4111642837524414	887041.2827616214
1.4154287576675415	475086.85126628604
1.419689416885376	467226.847139161
1.4239463806152344	628635.7217154157
1.4281994104385376	894933.9814330534
1.4324485063552856	1003373.0124407185
1.436693549156189	1046188.4682939576
1.440934419631958	1495611.7224559865
1.4451709985733032	2192695.875414542
1.449403166770935	2903865.1218046295
1.453631043434143	3655084.823039169
1.4578542709350586	4630873.191047707
1.4620729684829712	5430180.527916268
1.4662868976593018	5555106.321587777
1.4704961776733398	5615726.816126938
1.4747005701065063	5862998.484243344
1.4788999557495117	5881652.846188291
1.4830944538116455	5927508.373321882
1.4872838258743286	5936640.6228670655
1.491468071937561	5892167.56996944
1.4956470727920532	6697149.453964507
1.4998208284378052	8839926.932912115
1.5039892196655273	11069333.859471822
1.5081522464752197	11725386.25224419
1.5123097896575928	12429079.247694602
1.5164618492126465	14602580.403111944
1.5206083059310913	17171604.81831842
1.5247491598129272	19299064.65723607
1.5288842916488647	20915721.017597776
1.5330137014389038	22511755.158890773
1.5371372699737549	24104754.601658504
1.541254997253418	25583765.313187495
1.545366883277893	27106496.759564705
1.5494728088378906	28534411.07223363
1.5535727739334106	29700575.62899855
1.5576666593551636	30927226.043888606
1.561754584312439	32486833.258467488
1.5658363103866577	33730136.10564015
1.5699119567871094	34025878.153382055
1.5739814043045044	33720604.43464632
1.5780447721481323	33582360.44331884
1.582101821899414	33928894.65447629
1.5861525535583496	34230687.0371475
1.5901970863342285	33716998.39342853
1.5942351818084717	32665996.36695778
1.5982669591903687	31704929.04501352
1.6022924184799194	30479276.12059412
1.606311559677124	28972809.0653124
1.6103241443634033	27690957.36419625
1.6143304109573364	26337847.02815638
1.6183301210403442	24478788.616297584
1.6223233938217163	22357735.22272211
1.6263102293014526	20459245.23403784
1.6302905082702637	19270167.763017543
1.634264349937439	19873340.324237473
1.638231635093689	21812788.224528395
1.6421923637390137	21523614.454637185
1.646146535873413	18373356.868089553
1.6500942707061768	17111177.404663276
1.6540353298187256	18742355.564520963
1.6579699516296387	19545087.332353547
1.661897897720337	17831410.23889165
1.6658192873001099	13554689.707310183
1.6697341203689575	10999159.2319349
1.6736423969268799	12656276.24365324
1.677544116973877	13847504.931153074
1.6814392805099487	13384565.839515556
1.6853278875350952	12661742.540269952
1.6892099380493164	11468063.23149234
1.6930854320526123	9783455.698203849
1.696954369544983	8331548.261769701
1.7008168697357178	8067551.737095422
1.7046726942062378	8543824.750466865
1.708522081375122	9387038.313769847
1.712364912033081	10412745.206470255
1.7162011861801147	11255312.13763613
1.7200311422348022	11613116.776701035
1.723854422569275	11201761.67452792
1.7276713848114014	10462496.747162793
1.731481909751892	9833118.128631905
1.7352858781814575	9340324.188861402
1.7390835285186768	8925790.847928625
1.7428747415542603	8460090.360727204
1.7466596364974976	7986188.768250146
1.7504380941390991	7318749.058599774
1.7542102336883545	6209768.153817713
1.7579760551452637	5447261.271553793
1.7617355585098267	5298664.545447705
1.7654887437820435	4833246.295272659
1.7692357301712036	4021065.694190995
1.7729763984680176	3296074.691610748
1.776710867881775	2578779.929489767
1.7804391384124756	2141651.142638896
1.7841613292694092	1966169.8377476772
1.7878772020339966	1589464.2369621845
1.7915871143341064	1242040.6432114893
1.7952908277511597	1191774.2264075633
1.7989884614944458	1153335.5079506387
1.8026801347732544	814316.3236985927
1.806365728378296	472682.8981949869
1.8100452423095703	350070.880363857
1.8137187957763672	286467.6884239468
1.817386507987976	261682.91265568635
1.8210482597351074	263220.8661745333
1.8247040510177612	250950.2317007407
1.828354001045227	227498.24824809982
1.8319982290267944	229814.74237452567
1.8356364965438843	246539.55509381832
1.8392690420150757	385006.4638059466
1.8428958654403687	762551.5503217558
1.8465168476104736	1005196.5674135379
1.8501322269439697	807735.8195625843
1.8537418842315674	539885.0176807882
1.8573459386825562	534264.8062388897
1.860944390296936	543246.2107991591
1.864537239074707	464806.01605636056
1.8681244850158691	453694.9315988576
1.871706247329712	442295.3584672554
1.8752825260162354	657459.2554906582
1.8788533210754395	1239128.4540834606
1.8824186325073242	1542018.3147607115
1.8859784603118896	1341123.5060453617
1.8895330429077148	1243406.9681187456
1.8930821418762207	1635960.37708559
1.8966259956359863	1815794.0965380815
1.9001644849777222	1121678.771444002
1.9036977291107178	578695.5174890609
1.9072256088256836	759079.9370403247
1.9107483625411987	780169.7377741425
1.9142658710479736	465619.9268609821
1.9177782535552979	279978.4424233911
1.9212853908538818	220593.80880215825
1.9247875213623047	220617.8937397746
1.9282845258712769	272956.2289913586
1.9317764043807983	331398.8234167375
1.9352631568908691	418060.81870308897
1.9387450218200684	524226.53770328127
1.942221760749817	610979.0682788033
1.9456936120986938	647379.460167944
1.9491604566574097	730048.950101521
1.952622413635254	732412.7767214782
1.956079363822937	564827.1520828881
1.959531545639038	564723.0404019007
1.962978720664978	843558.8121569644
1.966421127319336	1279156.8075743045
1.9698586463928223	1659561.1507261787
1.9732913970947266	1700093.353951939
1.9767193794250488	1516848.5800453317
1.9801424741744995	1560228.301006312
1.9835609197616577	2061920.5920308034
1.9869745969772339	2475953.9185104226
1.990383505821228	2327824.415085674
1.9937876462936401	2165948.9934097505
1.9971871376037598	2442338.9620287404
2.000581979751587	2764357.475795811
2.003972291946411	2657289.019256838
2.007357597351074	2739576.6512740147
2.0107386112213135	3401905.169804024
2.0141148567199707	3711894.9777622507
2.017486572265625	3557135.987147363
2.0208535194396973	3555867.5248170607
2.0242159366607666	3614761.0467550685
2.027573823928833	3745082.893947004
2.0309269428253174	3967916.2353466884
2.034275770187378	4068962.6509331614
2.0376198291778564	4200341.796174625
2.040959596633911	4438598.029185636
2.044294595718384	4722293.0976044405
2.0476250648498535	5024966.871062812
2.0509510040283203	5103382.916337264
2.054272413253784	4985611.322082941
2.057589530944824	5040162.113224589
2.0609018802642822	5220181.748926236
2.0642096996307373	5290891.324706698
2.0675129890441895	5294281.586790179
2.0708119869232178	5286114.415747514
2.074106216430664	5247094.175035934
2.0773961544036865	5205003.239630348
2.080681324005127	5178356.255643371
2.0839622020721436	5165062.795963119
2.087238311767578	5165629.246839239
2.090510129928589	5158109.581676312
2.0937774181365967	5126949.583570347
2.0970399379730225	5088964.197301698
2.1002981662750244	5041828.893630326
2.1035518646240234	4979296.633683154
2.1068007946014404	4914656.475096588
2.1100454330444336	4870561.076953947
2.1132853031158447	4848016.913115884
2.116520881652832	4816381.621518022
2.1197516918182373	4773126.098315484
2.1229779720306396	4737184.5768450545
2.12619948387146	4704764.611476681
2.1294167041778564	4668221.562078791
2.132629156112671	4629710.239830787
2.1358368396759033	4569996.935050179
2.139039993286133	4494578.436838491
2.1422386169433594	4401141.537703832
2.145432472229004	4313293.585309423
2.1486217975616455	4253195.724329461
2.151806354522705	4163521.9922467135
2.1549863815307617	4110046.4371685022
2.1581614017486572	4094613.204138929
2.16133189201355	4030231.7220439636
2.1644976139068604	3955316.770434479
2.167658567428589	3891817.1678277254
2.1708147525787354	3849782.877071974
2.173966407775879	3811851.324341979
2.1771130561828613	3719252.913420689
2.1802549362182617	3580570.7617171397
2.183391809463501	3456922.8740562443
2.1865241527557373	3321167.910788196
2.1896514892578125	3048050.701402091
2.1927738189697266	2615398.397015168
2.1958916187286377	2200593.3771184557
2.1990041732788086	1880502.3801803866
2.2021119594573975	1607431.5881099636
2.2052149772644043	1466182.547368531
2.208312749862671	1557918.7585471834
2.2114057540893555	1802655.1324199594
2.214493751525879	1993544.3215869854
2.217576742172241	2006559.9565423687
2.2206547260284424	1889797.3130123967
2.2237277030944824	1762973.1245659338
2.2267956733703613	1659675.8666890215
2.2298583984375	1581842.5062183707
2.2329163551330566	1528044.2281284977
2.235969066619873	1466884.8833734668
2.2390167713165283	1381771.7406673506
2.2420592308044434	1209154.9909617484
2.2450966835021973	954257.184011969
2.248128890991211	872693.5324016288
2.2511560916900635	1018444.2609540062
2.254178285598755	1088812.2179365228
2.257194995880127	1060763.4308996212
2.260206699371338	1061117.6228295257
2.2632133960723877	1039865.6344806107
2.266214609146118	1033616.5702929725
2.2692108154296875	1114159.146188249
2.2722020149230957	1236987.2550794731
2.2751877307891846	1300137.9097337069
2.278168201446533	1250227.3076042305
2.2811436653137207	1142162.6489280784
2.284113883972168	1050880.0560896134
2.287078857421875	987240.822314328
2.290038824081421	940816.2102508105
2.2929933071136475	935749.5524482073
2.295942783355713	956320.1250099842
2.298887014389038	948930.2619252165
2.301826238632202	962028.8708306884
2.304760217666626	1134350.0691700634
2.3076889514923096	1465796.4960543187
2.310612440109253	1753391.549039429
2.3135311603546143	1710834.5085579269
2.3164443969726562	1257362.8559027642
2.319352865219116	829824.8308988545
2.322256088256836	767750.5182117162
2.3251543045043945	817726.4347778213
2.328047275543213	778861.1355742713
2.330935478210449	766592.0330564384
2.3338186740875244	792725.3957867551
2.3366971015930176	775446.768257265
2.3395702838897705	730594.6922423898
2.3424389362335205	677947.3151090036
2.3453025817871094	639745.1327610445
2.348161458969116	667125.4142109744
2.351015567779541	777708.0493372118
2.353865146636963	932817.658076501
2.3567099571228027	1084795.414211078
2.3595502376556396	1244114.3118049523
2.3623859882354736	1377781.864040856
2.3652172088623047	1313791.1395453236
2.368043899536133	984443.8861036062
2.370866537094116	631873.492078021
2.3736846446990967	540073.517073931
2.3764986991882324	673105.8707418027
2.3793084621429443	822008.9382147283
2.3821144104003906	894337.552504808
2.384916305541992	944900.9038881199
2.387714147567749	1033766.8690467364
2.3905084133148193	1114437.382226111
2.393299102783203	1140714.2595217365
2.3960859775543213	1143988.836957111
2.398869514465332	1186086.4098176141
2.4016497135162354	1223781.7622412993
2.4044265747070312	1202774.3551676788
2.407200336456299	1228382.3787915052
2.409970998764038	1384085.4177762433
2.4127390384674072	1549616.9658022143
2.415503978729248	1571686.0385753738
2.418266534805298	1516135.4510162582
2.4210267066955566	1524914.829849556
2.4237842559814453	1574429.0607432227
2.426539897918701	1640843.7459611539
2.429293394088745	1813508.980768281
2.4320452213287354	2000709.7686185099
2.4347951412200928	1984114.1617125059
2.4375438690185547	1919618.6868617835
2.440291166305542	2070188.4701146875
2.443037271499634	2153360.45137646
2.445782423019409	1930268.086683966
2.4485268592834473	1706921.9173816012
2.451270818710327	1700645.0815846224
2.454014539718628	1838237.3705661441
2.4567582607269287	1974678.0080635622
2.4595019817352295	1993232.100982622
2.4622461795806885	1981557.423012815
2.4649908542633057	1939726.6839892345
2.4677364826202393	1774123.0456720863
2.4704833030700684	1572897.9488616262
2.473231554031372	1383546.8016012309
2.4759814739227295	1218320.9610482443
2.4787333011627197	1158164.7642151974
2.481487512588501	1232496.7095207265
