#wavelength	surface flux
0.6450077295303345	123.6416060899917
0.6472567915916443	192.05393412663062
0.6494921445846558	245.46206216023444
0.6517150402069092	274.9273884571396
0.6539263725280762	303.7588600917488
0.6561272740364075	333.4177371732416
0.6583186388015747	364.6174101668882
0.6605015397071838	398.56095861391015
0.6626768708229065	434.02451233901303
0.6648455858230591	470.05319572141826
0.6670085787773132	502.72120659983614
0.6691668033599854	520.7804430616723
0.6713210344314575	543.5092656206239
0.6734722256660461	596.5053793988347
0.6756211519241333	650.3861062193282
0.6777685880661011	687.1198714922207
0.6799154281616211	719.3141393248802
0.6820623278617859	749.3814963775181
0.6842101216316223	777.32345634899
0.6863595843315125	802.4663589014519
0.688511312007904	820.4719426962641
0.6906660795211792	816.0894805177215
0.6928245425224304	795.9557954696197
0.6949873566627502	807.1176805520029
0.6971551775932312	846.2679404217877
0.6993286609649658	863.3578634745429
0.7015084028244019	860.3982879973496
0.7036949396133423	863.5575844794523
0.7058889269828796	874.2011437597823
0.7080909013748169	885.2874925330854
0.710301399230957	892.8951626712907
0.712520956993103	890.5860089192594
0.7147500514984131	849.549618866006
0.7169892191886902	761.1939969168851
0.7192389369010925	707.8498378457898
0.7214996814727783	712.8930259494465
0.723771870136261	698.9517325593464
0.7260559797286987	667.7922914273049
0.7283523678779602	655.0336454796504
0.7306615710258484	661.366242059464
0.7329838871955872	697.8371611257132
0.7353196740150452	738.4516577300113
0.7376693487167358	755.2515220028786
0.7400332689285278	766.6211581567528
0.7424117922782898	777.8085163438644
0.7448052167892456	781.3326676643153
0.7472138404846191	772.9136770522056
0.7496379613876343	751.7043336706917
0.7520779371261597	718.3983130726117
0.7545340061187744	672.5090503922229
0.7570064663887024	611.7376737073907
0.7594954967498779	528.9496554007442
0.7620013952255249	409.9255827620922
0.7645244002342224	257.90607727127366
0.7670646905899048	147.4280628059203
0.7696225643157959	162.13898592058123
0.7721980810165405	319.23214941127134
0.7747915983200073	538.7867842171828
0.7774031162261963	677.6898772596162
0.7800329327583313	762.8285055495177
0.7826811671257019	970.870904564638
0.7853479981422424	1243.5123731658614
0.7880334854125977	1452.681373443105
0.7907378077507019	1581.2902207198738
0.7934610247612	1598.1145570915926
0.7962033748626709	1751.3526092411694
0.7989648580551147	2148.072291251407
0.801745593547821	2507.1135768344857
0.8045456409454346	2766.114869860143
0.8073651194572449	2954.1999934890787
0.8102040886878967	2981.319791816409
0.8130625486373901	2910.5076340181495
0.8159406185150146	3070.0262288652643
0.8188382983207703	3569.4222331391675
0.8217556476593018	4031.972680442313
0.8246926665306091	4512.828524941815
0.8276493549346924	5144.693663059385
0.8306257724761963	5682.239394375077
0.8336219191551208	6260.228828234829
0.8366377949714661	7032.492295987198
0.8396733403205872	7934.3560006876705
0.8427285552024841	8932.77803319261
0.8458034992218018	10014.955361044536
0.8488980531692505	11029.88406008792
0.8520121574401855	11960.992987356085
0.8551458716392517	13130.546863496313
0.8582990765571594	14323.136575915623
0.8614717125892639	15220.617631384694
0.8646637797355652	16245.597651998332
0.8678751587867737	17715.298141419065
0.8711057901382446	19344.469024373873
0.8743556141853333	20645.214464281828
0.87762451171875	20891.995286066212
0.8809124231338501	19119.9406898433
0.8842192888259888	16386.333025201384
0.8875449895858765	14699.548533953488
0.8908893465995789	13624.92449178808
0.894252359867096	12421.839553579419
0.8976338505744934	13561.791332148996
0.9010337591171265	19318.654722626325
0.9044519662857056	26542.750958795605
0.9078882932662964	29692.82926547725
0.9113426208496094	29248.379187733884
0.914814829826355	28671.599490533365
0.9183048605918884	29946.087659976587
0.9218124747276306	31422.898587481042
0.925337553024292	25345.8886639893
0.9288799166679382	12413.19777021593
0.9324395060539246	4416.796708613653
0.9360161423683167	5486.593902179938
0.9396095871925354	9964.645115324818
0.943219780921936	10990.162449823481
0.9468464851379395	8768.54717402728
0.9504896402359009	7824.976551964071
0.9541489481925964	7678.179834876089
0.9578243494033813	7699.525261088808
0.9615156054496765	9376.051287034836
0.9652225375175476	14969.60784862581
0.9689450263977051	23372.03529021886
0.9726828336715698	28571.88545714074
0.9764357805252075	30514.818232843056
0.9802037477493286	33306.378609767205
0.983986496925354	37058.94509113408
0.9877838492393494	41832.222681628715
0.9915955662727356	49180.068678103424
0.9954215884208679	58972.56362158138
0.9992615580558777	69614.59780816341
1.0031154155731201	79627.97510109105
1.0069829225540161	84983.6421772429
1.0108637809753418	82591.27134776382
1.0147579908370972	73823.32785302868
1.018665075302124	63176.88627136468
1.022585153579712	59549.57521743391
1.0265177488327026	65746.33585095027
1.0304628610610962	69485.03879221792
1.0344202518463135	66755.50011739126
1.0383895635604858	71049.53998328003
1.0423706769943237	83006.83064283863
1.0463634729385376	93653.57915109732
1.0503677129745483	103566.39891108507
1.0543830394744873	114717.84456539134
1.058409333229065	124387.37226935115
1.0624464750289917	129905.1693071449
1.0664942264556885	131130.26695799356
1.0705522298812866	129689.51755084474
1.0746204853057861	128980.41506854503
1.0786986351013184	129051.74864675607
1.0827864408493042	127429.99007502136
1.086883783340454	121498.80702357595
1.0909905433654785	108239.23616068267
1.0951062440872192	87978.73833675218
1.0992310047149658	63751.04009638092
1.10336434841156	39391.42269651795
1.1075061559677124	20412.53773454998
1.1116561889648438	8912.518569170512
1.115814208984375	3591.8149939030995
1.1199802160263062	2371.926517688398
1.124153733253479	2849.5990750512174
1.1283347606658936	3706.082282677718
1.1325229406356812	4184.691937853545
1.1367181539535522	6528.496123034649
1.1409201622009277	9566.799060276966
1.145128846168518	8486.140784034204
1.1493438482284546	5479.428405263576
1.1535650491714478	3613.679145266391
1.1577922105789185	3037.206860107175
1.1620250940322876	3721.120601242039
1.1662636995315552	6112.018090059559
1.170507550239563	12325.070552782669
1.174756646156311	22956.13377055632
1.1790107488632202	36113.92648833445
1.1832695007324219	47510.28607776823
1.1875330209732056	53989.87063387739
1.191800832748413	57626.36639457511
1.1960728168487549	60924.03648750124
1.2003488540649414	64840.43959243882
1.2046287059783936	70322.08293734447
1.2089121341705322	74592.6231503251
1.2131990194320679	77481.23159949154
1.2174891233444214	82169.28434456703
1.2217823266983032	90933.04120161035
1.2260783910751343	107815.09654756096
1.230377197265625	130324.04957321781
1.2346785068511963	153103.39694600436
1.238982081413269	179193.48032951236
1.2432878017425537	210413.37846711857
1.2475954294204712	239333.68132716656
1.2519049644470215	259556.69522543976
1.256216049194336	281210.45288428315
1.2605286836624146	315996.8223880726
1.2648425102233887	351712.1265132786
1.2691574096679688	363997.3079271101
1.2734732627868652	343206.1201689808
1.2777899503707886	302132.8325128916
1.2821072340011597	253476.54411298686
1.2864248752593994	207053.3169497348
1.2907428741455078	176634.74421079567
1.2950609922409058	163342.9348136618
1.2993791103363037	153976.6518994607
1.303696870803833	139484.5410174565
1.3080145120620728	123506.79069756556
1.3123314380645752	102737.20149831547
1.3166478872299194	85371.81406433623
1.3209635019302368	83147.17468292707
1.3252781629562378	78164.42991062196
1.3295916318893433	53402.14280435745
1.3339040279388428	24074.958665279057
1.3382149934768677	8565.955961163438
1.3425244092941284	2547.6565019203554
1.3468321561813354	474.4592200026943
1.3511382341384888	125.34950056105886
1.3554422855377197	35.19581602397229
1.3597444295883179	13.26800791906143
1.3640443086624146	19.02802871518154
1.3683418035507202	31.518828388108194
1.3726370334625244	79.52643627691367
1.3769296407699585	142.7407345423626
1.381219506263733	116.61050487358636
1.3855066299438477	55.87634489999583
1.3897908926010132	55.94200815666094
1.3940720558166504	77.54120865167782
1.3983501195907593	102.23590602510474
1.4026249647140503	122.45369929808841
1.4068963527679443	128.48586603033218
1.4111642837524414	162.06113082981992
1.4154287576675415	222.42749342747427
1.419689416885376	262.9348963050259
1.4239463806152344	434.28539382778166
1.4281994104385376	933.1734216519757
1.4324485063552856	1314.0069647130426
1.436693549156189	1399.1544481177355
1.440934419631958	1890.0497251215954
1.4451709985733032	3272.9158254815284
1.449403166770935	5618.171203543083
1.453631043434143	8507.223435464508
1.4578542709350586	10916.255011930818
1.4620729684829712	9998.919024356019
1.4662868976593018	6264.474222147907
1.4704961776733398	3267.838098028354
1.4747005701065063	1878.5168886974368
1.4788999557495117	1632.4413713812203
1.4830944538116455	1689.6643472595963
1.4872838258743286	1678.5393243523415
1.491468071937561	1657.546385574371
1.4956470727920532	2049.229237081421
1.4998208284378052	3208.415483013078
1.5039892196655273	4185.678457223648
1.5081522464752197	3543.441067872775
1.5123097896575928	1989.43738712201
1.5164618492126465	1849.2409632436315
1.5206083059310913	3563.8892938344025
1.5247491598129272	5663.084496707568
1.5288842916488647	7664.92533501317
1.5330137014389038	9458.39798178011
1.5371372699737549	10763.491839613254
1.541254997253418	12663.145679979782
1.545366883277893	15817.466441287073
1.5494728088378906	21160.112554276173
1.5535727739334106	31963.172517627932
1.5576666593551636	49633.232254321614
1.561754584312439	76823.29529177942
1.5658363103866577	114626.6641359164
1.5699119567871094	150064.39395528505
1.5739814043045044	176822.79896537415
1.5780447721481323	205877.3845782003
1.582101821899414	238542.4429291196
1.5861525535583496	265189.83858987765
1.5901970863342285	278958.5152689406
1.5942351818084717	281567.20434382703
1.5982669591903687	271561.5063778498
1.6022924184799194	242340.35785276865
1.606311559677124	199381.74491290524
1.6103241443634033	152882.4774099396
1.6143304109573364	106048.24811544648
1.6183301210403442	65734.2523051732
1.6223233938217163	40612.1490943799
1.6263102293014526	27322.69567868971
1.6302905082702637	20883.52683519668
1.634264349937439	21018.913708674543
1.638231635093689	25227.12163230238
1.6421923637390137	27373.284322118492
1.646146535873413	24618.368318985227
1.6500942707061768	24496.745835999267
1.6540353298187256	28820.176333802094
1.6579699516296387	36797.29548714131
1.661897897720337	40288.47540408299
1.6658192873001099	24083.990255499804
1.6697341203689575	8907.335445916693
1.6736423969268799	10752.99545165856
1.677544116973877	13804.493403840823
1.6814392805099487	12132.138582826492
1.6853278875350952	10124.559673759537
1.6892099380493164	8470.971975829209
1.6930854320526123	6263.236621747325
1.696954369544983	4495.6100131085095
1.7008168697357178	3320.964076343092
1.7046726942062378	3137.0285201570023
1.708522081375122	5532.975582785284
1.712364912033081	10406.579648440049
1.7162011861801147	17636.17269151089
1.7200311422348022	22348.650240739604
1.723854422569275	19028.473907100404
1.7276713848114014	15412.607596157462
1.731481909751892	16617.260812217828
1.7352858781814575	20418.720706677715
1.7390835285186768	27182.647650163093
1.7428747415542603	34577.2011759963
1.7466596364974976	38705.06610617749
1.7504380941390991	38741.119662116274
1.7542102336883545	32941.22141262099
1.7579760551452637	25059.485959790745
1.7617355585098267	20220.289296313145
1.7654887437820435	17082.39704405107
1.7692357301712036	14787.154264757135
1.7729763984680176	12379.233972400736
1.776710867881775	11403.392596237683
1.7804391384124756	12070.116178713828
1.7841613292694092	10266.154429560884
1.7878772020339966	7075.311196489943
1.7915871143341064	4730.16843349944
1.7952908277511597	3721.610258730641
1.7989884614944458	4044.0798123959316
1.8026801347732544	2877.1051722941056
1.806365728378296	1545.891982642954
1.8100452423095703	1378.6446059410634
1.8137187957763672	1115.3627816844103
1.817386507987976	859.2595149172668
1.8210482597351074	1173.9161177495457
1.8247040510177612	1600.572537679862
1.828354001045227	1061.7533360782584
1.8319982290267944	388.24787879914027
1.8356364965438843	246.01730578407697
1.8392690420150757	304.9134448196018
1.8428958654403687	790.580544925876
1.8465168476104736	1162.9031252184996
1.8501322269439697	1143.9221511238648
1.8537418842315674	1016.7682549609117
1.8573459386825562	738.9048478480984
1.860944390296936	557.8769410439189
1.864537239074707	448.9328562936287
1.8681244850158691	246.4910422661312
1.871706247329712	133.9281627398632
1.8752825260162354	531.039657069482
1.8788533210754395	1692.9008922647092
1.8824186325073242	2567.4075549008553
1.8859784603118896	2469.3492214644125
1.8895330429077148	2102.7447063295926
1.8930821418762207	2297.759042819025
1.8966259956359863	2492.3869781167723
1.9001644849777222	1490.59222997992
1.9036977291107178	581.9360575948878
1.9072256088256836	621.7428497673644
1.9107483625411987	623.4602029830118
1.9142658710479736	481.8521860251202
1.9177782535552979	538.3104679319136
1.9212853908538818	584.3149896863582
1.9247875213623047	486.3457962380156
1.9282845258712769	362.15193151328384
1.9317764043807983	293.1292386655496
1.9352631568908691	279.10087811832125
1.9387450218200684	245.3975000441547
1.942221760749817	270.4415047487459
1.9456936120986938	377.2182488803904
1.9491604566574097	449.24511739867415
1.952622413635254	480.6084397063056
1.956079363822937	704.504163135619
1.959531545639038	1108.8193132407625
1.962978720664978	1380.2416412594105
1.966421127319336	1597.6700673649639
1.9698586463928223	1579.0089566524746
1.9732913970947266	1535.5115081937668
1.9767193794250488	1966.0126462976295
1.9801424741744995	1927.5816410645937
1.9835609197616577	1728.0015787361576
1.9869745969772339	2344.252068842986
1.990383505821228	2994.6988199241073
1.9937876462936401	3860.9967417212224
1.9971871376037598	5068.804922842519
2.000581979751587	5362.615124322121
2.003972291946411	4765.462752524586
2.007357597351074	4622.731826054045
2.0107386112213135	4979.593700830254
2.0141148567199707	4899.29912960638
2.017486572265625	4234.7495059336925
2.0208535194396973	3940.105424217924
2.0242159366607666	4651.542184271153
2.027573823928833	5455.528099451916
2.0309269428253174	6246.849349434845
2.034275770187378	7228.758579926439
2.0376198291778564	7811.584948877134
2.040959596633911	8408.655542627215
2.044294595718384	9778.068647271382
2.0476250648498535	11172.048239321686
2.0509510040283203	12176.201357035381
2.054272413253784	13126.263011786896
2.057589530944824	14077.267350194326
2.0609018802642822	15124.07464432373
2.0642096996307373	15943.243248947749
2.0675129890441895	16516.462922798324
2.0708119869232178	17022.091191001113
2.074106216430664	17441.369667625087
2.0773961544036865	17701.522589179884
2.080681324005127	17789.69745307696
2.0839622020721436	17976.987035032573
2.087238311767578	18150.646750638676
2.090510129928589	18240.406062867623
2.0937774181365967	18155.791510684037
2.0970399379730225	17833.92366659123
2.1002981662750244	17533.873192400184
2.1035518646240234	17437.72432835579
2.1068007946014404	17353.600305300628
2.1100454330444336	17089.653314535306
2.1132853031158447	16921.05909287966
2.116520881652832	16672.37600893086
2.1197516918182373	16323.59269291562
2.1229779720306396	16041.29132916406
2.12619948387146	15769.268907982787
2.1294167041778564	15514.546184869063
2.132629156112671	15243.8727118333
2.1358368396759033	14951.10096355437
2.139039993286133	14587.704971893296
2.1422386169433594	13703.231833455065
2.145432472229004	12680.224495396416
2.1486217975616455	11991.720990348966
2.151806354522705	11378.035927008657
2.1549863815307617	10765.688234707019
2.1581614017486572	10193.27259300378
2.16133189201355	9243.34599684178
2.1644976139068604	8249.451016218925
2.167658567428589	7594.218486612563
2.1708147525787354	7123.903950142692
2.173966407775879	6937.09132397045
2.1771130561828613	6437.113704074808
2.1802549362182617	5714.958026738105
2.183391809463501	5265.697035553391
2.1865241527557373	4996.716594577605
2.1896514892578125	4209.697721480781
2.1927738189697266	2833.742194432842
2.1958916187286377	1540.3723894449772
2.1990041732788086	633.1105346878387
2.2021119594573975	250.44156464318607
2.2052149772644043	393.9764639624204
2.208312749862671	833.5910386175985
2.2114057540893555	1086.3721799468465
2.214493751525879	1032.5632306628086
2.217576742172241	943.1088403627588
2.2206547260284424	804.3554052019276
2.2237277030944824	662.8894057971106
2.2267956733703613	546.8236216648686
2.2298583984375	393.5752008381913
2.2329163551330566	350.3285783881281
2.235969066619873	359.7657867210859
2.2390167713165283	291.6467331788743
2.2420592308044434	248.1797414209914
2.2450966835021973	225.42720900836918
2.248128890991211	164.4103737748172
2.2511560916900635	124.20564400485993
2.254178285598755	102.75665309064017
2.257194995880127	82.77361778950025
2.260206699371338	79.91875348200006
2.2632133960723877	84.4718472847186
2.266214609146118	96.51969428180472
2.2692108154296875	132.14667756347188
2.2722020149230957	191.60354745576643
2.2751877307891846	209.88772944931108
2.278168201446533	201.28049157920202
2.2811436653137207	192.61021834552398
2.284113883972168	149.51177346440917
2.287078857421875	122.75736898787737
2.290038824081421	111.60297113445588
2.2929933071136475	92.24634602033929
2.295942783355713	83.63865422840745
2.298887014389038	87.82316430283345
2.301826238632202	101.36212599672663
2.304760217666626	156.811682596859
2.3076889514923096	447.7172353875961
2.310612440109253	1021.6479745785127
2.3135311603546143	1180.437276615423
2.3164443969726562	608.1885012631001
2.319352865219116	127.48654523879075
2.322256088256836	86.73359131542182
2.3251543045043945	147.74270003776687
2.328047275543213	154.58283640689632
2.330935478210449	126.32047838567708
2.3338186740875244	119.08367201787104
2.3366971015930176	115.14276677806151
2.3395702838897705	104.72600333924738
2.3424389362335205	112.42867738609243
2.3453025817871094	104.68590701616378
2.348161458969116	94.80225676051647
2.351015567779541	126.5890110805328
2.353865146636963	172.8795901971502
2.3567099571228027	263.24172518923746
2.3595502376556396	468.68866090725595
2.3623859882354736	638.4091562549681
2.3652172088623047	570.9580631761503
2.368043899536133	338.68711637654
2.370866537094116	138.68194312424717
2.3736846446990967	102.54300724425072
2.3764986991882324	242.1980026730398
2.3793084621429443	406.0923069277241
2.3821144104003906	431.1660138341099
2.384916305541992	424.5951481140273
2.387714147567749	523.3324885628653
2.3905084133148193	581.7279352153612
2.393299102783203	513.9654682754507
2.3960859775543213	494.2341944910377
2.398869514465332	650.2830756002633
2.4016497135162354	829.3792279075395
2.4044265747070312	882.6564689239226
2.407200336456299	955.083949793728
2.409970998764038	1478.3985060321663
2.4127390384674072	2121.608872252787
2.415503978729248	1898.4316073727884
2.418266534805298	1348.7703016924354
2.4210267066955566	1292.9883050109545
2.4237842559814453	1187.116481132014
2.426539897918701	1149.8852699457766
2.429293394088745	1756.3715687273348
2.4320452213287354	2260.917414571057
2.4347951412200928	2161.1269100059194
2.4375438690185547	2688.513091065265
2.440291166305542	3830.0646776988074
2.443037271499634	4051.187200612277
2.445782423019409	3451.084683689787
2.4485268592834473	3157.750569244728
2.451270818710327	3515.778636282083
2.454014539718628	4383.237889847675
2.4567582607269287	5416.799268492652
2.4595019817352295	6213.278573270523
2.4622461795806885	6945.992064945829
2.4649908542633057	8107.798319869938
2.4677364826202393	8346.785583241308
2.4704833030700684	7307.877238942557
2.473231554031372	6794.739257025762
2.4759814739227295	7348.154330888108
2.4787333011627197	7428.074819361661
2.481487512588501	6986.5359420775685
