#wavelength	surface flux
0.6450077295303345	61.26506813374106
0.6472567915916443	95.81408952561
0.6494921445846558	124.47544581328559
0.6517150402069092	142.10728224459652
0.6539263725280762	159.7559530498511
0.6561272740364075	178.07376509559504
0.6583186388015747	197.90934389346316
0.6605015397071838	220.52648601548424
0.6626768708229065	244.86174629495392
0.6648455858230591	270.2649598193087
0.6670085787773132	293.6261840594834
0.6691668033599854	305.84861753954806
0.6713210344314575	321.918798782618
0.6734722256660461	362.0818017870993
0.6756211519241333	402.9851267084765
0.6777685880661011	430.2079435862347
0.6799154281616211	453.7283222441443
0.6820623278617859	475.3124182266148
0.6842101216316223	494.86606448909157
0.6863595843315125	511.62583667742547
0.688511312007904	520.781372090921
0.6906660795211792	506.1575551644924
0.6928245425224304	476.5897823396336
0.6949873566627502	481.39466292473486
0.6971551775932312	514.2538690792951
0.6993286609649658	523.4732794903451
0.7015084028244019	513.059527579765
0.7036949396133423	510.4504225788674
0.7058889269828796	516.6768900883261
0.7080909013748169	523.9555005439709
0.710301399230957	528.0352377398408
0.712520956993103	523.3903663936516
0.7147500514984131	487.1932314380916
0.7169892191886902	415.6794943134884
0.7192389369010925	372.08473974189076
0.7214996814727783	370.6659960469811
0.723771870136261	356.7181192678113
0.7260559797286987	333.2706706084168
0.7283523678779602	326.34583722896554
0.7306615710258484	335.27940174726564
0.7329838871955872	367.00123753983183
0.7353196740150452	402.5801191116465
0.7376693487167358	419.8482835193746
0.7400332689285278	433.88488088315637
0.7424117922782898	450.1598255974798
0.7448052167892456	463.6921602786682
0.7472138404846191	469.7991220733194
0.7496379613876343	465.33854034277505
0.7520779371261597	449.4633806827763
0.7545340061187744	420.80577160898656
0.7570064663887024	378.23927007854434
0.7594954967498779	319.4545314493908
0.7620013952255249	240.90463854162007
0.7645244002342224	149.08625699987715
0.7670646905899048	85.03266551221922
0.7696225643157959	93.8024759264952
0.7721980810165405	187.87243913374465
0.7747915983200073	329.49521759563214
0.7774031162261963	440.8324715302592
0.7800329327583313	525.0723128234056
0.7826811671257019	668.9051831454116
0.7853479981422424	840.9382201978327
0.7880334854125977	977.5036370464358
0.7907378077507019	1070.903231630359
0.7934610247612	1095.1350112348598
0.7962033748626709	1190.5902646827763
0.7989648580551147	1424.85971708511
0.801745593547821	1640.3404087913357
0.8045456409454346	1801.611572901839
0.8073651194572449	1896.1677319011794
0.8102040886878967	1848.480952328714
0.8130625486373901	1757.175101944388
0.8159406185150146	1886.5510665828883
0.8188382983207703	2245.4689827263323
0.8217556476593018	2522.4340064130506
0.8246926665306091	2803.2476523401633
0.8276493549346924	3208.0204309303263
0.8306257724761963	3540.911470634697
0.8336219191551208	3866.6395455334405
0.8366377949714661	4294.545091142081
0.8396733403205872	4832.513025146924
0.8427285552024841	5504.728936616916
0.8458034992218018	6305.29676516511
0.8488980531692505	7031.437308264106
0.8520121574401855	7628.8835194642925
0.8551458716392517	8471.554990663395
0.8582990765571594	9272.16821197
0.8614717125892639	9635.910789497428
0.8646637797355652	10124.825363644239
0.8678751587867737	11160.579179678665
0.8711057901382446	12400.6075781247
0.8743556141853333	13260.704863111247
0.87762451171875	12943.8577416077
0.8809124231338501	10531.200905545844
0.8842192888259888	7341.7042249748165
0.8875449895858765	5519.949178682361
0.8908893465995789	4742.097241183462
0.894252359867096	4369.468472351154
0.8976338505744934	5727.385397305158
0.9010337591171265	10214.699477864615
0.9044519662857056	16023.301189816599
0.9078882932662964	18969.729187939887
0.9113426208496094	18610.881269931884
0.914814829826355	17460.592289590524
0.9183048605918884	17952.26181306215
0.9218124747276306	18918.15640006174
0.925337553024292	14608.133900971492
0.9288799166679382	6689.382633295037
0.9324395060539246	2485.01680827831
0.9360161423683167	2869.1982079562017
0.9396095871925354	4706.982385252726
0.943219780921936	5518.002297943873
0.9468464851379395	5098.586910589799
0.9504896402359009	4700.593291889533
0.9541489481925964	4438.986693770711
0.9578243494033813	4321.256331958765
0.9615156054496765	5036.415944906712
0.9652225375175476	7753.986566416953
0.9689450263977051	11597.665607397643
0.9726828336715698	13509.86523289464
0.9764357805252075	13966.250835684608
0.9802037477493286	14729.73253607482
0.983986496925354	15279.876143260222
0.9877838492393494	16305.936907050314
0.9915955662727356	19662.846329564036
0.9954215884208679	25845.242252606673
0.9992615580558777	34580.57919359732
1.0031154155731201	44815.78012855628
1.0069829225540161	51974.82811307313
1.0108637809753418	52637.708980338604
1.0147579908370972	48311.73293474393
1.018665075302124	42572.4374660038
1.022585153579712	41706.106417458876
1.0265177488327026	47515.254468163825
1.0304628610610962	50535.76481622622
1.0344202518463135	48995.908584055236
1.0383895635604858	54648.042484256526
1.0423706769943237	67472.85558278151
1.0463634729385376	79092.9177072903
1.0503677129745483	90117.46748455957
1.0543830394744873	103192.5654600903
1.058409333229065	114743.30760429072
1.0624464750289917	121537.88552031586
1.0664942264556885	123322.04781383522
1.0705522298812866	121839.36083203681
1.0746204853057861	122161.63578872144
1.0786986351013184	123658.76852608708
1.0827864408493042	121713.23259896088
1.086883783340454	111380.30107266482
1.0909905433654785	89733.9354026164
1.0951062440872192	63818.61642428058
1.0992310047149658	42106.47337623523
1.10336434841156	25601.054857899588
1.1075061559677124	14082.258025217825
1.1116561889648438	6982.197676403554
1.115814208984375	3315.9137691895976
1.1199802160263062	2178.6239971243126
1.124153733253479	2014.4766490048287
1.1283347606658936	2236.8661676563793
1.1325229406356812	2328.6690525906083
1.1367181539535522	3440.21782364594
1.1409201622009277	5289.717218535444
1.145128846168518	4938.817200824649
1.1493438482284546	3086.7884675731725
1.1535650491714478	1816.9758135313214
1.1577922105789185	1416.9022616497114
1.1620250940322876	1448.02874176719
1.1662636995315552	2011.3765596340374
1.170507550239563	4091.184030455147
1.174756646156311	7858.754418236297
1.1790107488632202	13075.820910802753
1.1832695007324219	18514.09033188118
1.1875330209732056	22450.18611311568
1.191800832748413	26506.404358117175
1.1960728168487549	31997.047521137516
1.2003488540649414	37389.93259843903
1.2046287059783936	43266.76052840955
1.2089121341705322	48258.63230358313
1.2131990194320679	51486.2306119758
1.2174891233444214	55661.09460185557
1.2217823266983032	63847.994697765076
1.2260783910751343	79695.43711714368
1.230377197265625	101014.5633419168
1.2346785068511963	122687.29279317772
1.238982081413269	147669.71578841706
1.2432878017425537	178079.36365546403
1.2475954294204712	206122.80508665438
1.2519049644470215	225022.7832721326
1.256216049194336	244825.38083205716
1.2605286836624146	275204.54668982176
1.2648425102233887	299724.1003533881
1.2691574096679688	295995.57288758253
1.2734732627868652	261644.3011317849
1.2777899503707886	215401.65384964517
1.2821072340011597	170476.13260447027
1.2864248752593994	131436.2351692066
1.2907428741455078	107526.1277765422
1.2950609922409058	98955.32923297692
1.2993791103363037	92904.89725691419
1.303696870803833	80609.00468544415
1.3080145120620728	66836.17283618744
1.3123314380645752	52903.1553879343
1.3166478872299194	44579.56407605026
1.3209635019302368	46529.4824878711
1.3252781629562378	44946.917369389535
1.3295916318893433	30140.174152919626
1.3339040279388428	12895.832750131362
1.3382149934768677	4617.653141194309
1.3425244092941284	1773.5206979455613
1.3468321561813354	521.1678830362416
1.3511382341384888	182.84099782862418
1.3554422855377197	66.03136666121071
1.3597444295883179	30.14839797816532
1.3640443086624146	39.564493821428876
1.3683418035507202	57.47273396129216
1.3726370334625244	113.06083341924864
1.3769296407699585	184.7005531125443
1.381219506263733	157.23001515446515
1.3855066299438477	98.68070256812382
1.3897908926010132	109.77649893712461
1.3940720558166504	133.14183333780872
1.3983501195907593	147.267948728921
1.4026249647140503	162.58681211119446
1.4068963527679443	177.45050124395024
1.4111642837524414	228.0288883578421
1.4154287576675415	299.4923235967052
1.419689416885376	332.06392106851246
1.4239463806152344	494.5429804882385
1.4281994104385376	998.2357282936788
1.4324485063552856	1376.4304460575283
1.436693549156189	1415.9220538440122
1.440934419631958	1727.1474051063285
1.4451709985733032	2665.7256981155074
1.449403166770935	4259.683834348928
1.453631043434143	5718.942779153075
1.4578542709350586	6159.40923777007
1.4620729684829712	5160.4902002443805
1.4662868976593018	3314.2272122755517
1.4704961776733398	1742.401954786444
1.4747005701065063	903.0628733831317
1.4788999557495117	834.7798550934499
1.4830944538116455	1020.6814882802083
1.4872838258743286	1066.3445757375496
1.491468071937561	979.4131798728206
1.4956470727920532	1113.0030621332348
1.4998208284378052	1598.146012675546
1.5039892196655273	1844.2303199146527
1.5081522464752197	1462.592293924366
1.5123097896575928	861.7919040937875
1.5164618492126465	854.5099515831973
1.5206083059310913	1671.324241356908
1.5247491598129272	2634.821604934141
1.5288842916488647	3565.745921500581
1.5330137014389038	4595.2264441608795
1.5371372699737549	5403.038055358344
1.541254997253418	6379.875329251517
1.545366883277893	7610.001609946565
1.5494728088378906	9575.380752212715
1.5535727739334106	14586.17583095431
1.5576666593551636	23426.45619130606
1.561754584312439	37494.34406421627
1.5658363103866577	57287.78757798895
1.5699119567871094	74607.2106591286
1.5739814043045044	86810.04170101359
1.5780447721481323	102510.78986650264
1.582101821899414	121471.57173841468
1.5861525535583496	135851.1201653291
1.5901970863342285	141277.24994454865
1.5942351818084717	138874.25755868742
1.5982669591903687	128845.44109117324
1.6022924184799194	108999.89761879024
1.606311559677124	85618.52839018079
1.6103241443634033	65667.30141257052
1.6143304109573364	45096.5023165988
1.6183301210403442	26186.008869503465
1.6223233938217163	17282.71483118912
1.6263102293014526	15282.323378181958
1.6302905082702637	15306.359084942962
1.634264349937439	17581.985493057924
1.638231635093689	21645.10340865736
1.6421923637390137	22302.517037513957
1.646146535873413	17360.44976969548
1.6500942707061768	16331.297170567486
1.6540353298187256	19045.451550476726
1.6579699516296387	20568.656592094598
1.661897897720337	21421.189651963192
1.6658192873001099	13591.920031903841
1.6697341203689575	4593.904034401516
1.6736423969268799	4585.1629965881675
1.677544116973877	5803.447188672004
1.6814392805099487	4976.261193793227
1.6853278875350952	4384.617357508832
1.6892099380493164	3684.892853501277
1.6930854320526123	2461.189584922606
1.696954369544983	1586.0849400528737
1.7008168697357178	1107.4162114177784
1.7046726942062378	1123.353744222058
1.708522081375122	2085.51097657234
1.712364912033081	3854.0882885160686
1.7162011861801147	6730.781112282681
1.7200311422348022	8976.111813937436
1.723854422569275	7945.738044618739
1.7276713848114014	6538.300159679857
1.731481909751892	6935.141134022575
1.7352858781814575	8697.864730935466
1.7390835285186768	12612.3079984751
1.7428747415542603	17438.05973605778
1.7466596364974976	20914.163972063085
1.7504380941390991	21507.051561771063
1.7542102336883545	17722.210164713433
1.7579760551452637	12673.907885206205
1.7617355585098267	10414.800813165084
1.7654887437820435	10237.97968393108
1.7692357301712036	9671.118953286572
1.7729763984680176	8305.384189948865
1.776710867881775	9401.748869841878
1.7804391384124756	11842.541740049755
1.7841613292694092	10721.326247624722
1.7878772020339966	7948.379010670447
1.7915871143341064	5610.637472838494
1.7952908277511597	4741.685530833195
1.7989884614944458	5609.272155361101
1.8026801347732544	4470.8340588102155
1.806365728378296	3073.1747859204124
1.8100452423095703	2995.797813292349
1.8137187957763672	2578.4207582330846
1.817386507987976	2122.161481810457
1.8210482597351074	2931.1961499710796
1.8247040510177612	3980.5687178096955
1.828354001045227	2687.445947738428
1.8319982290267944	1044.6811923967468
1.8356364965438843	657.4652472852636
1.8392690420150757	823.4211337117919
1.8428958654403687	1977.766437230226
1.8465168476104736	2758.311012550395
1.8501322269439697	2630.8430105478574
1.8537418842315674	2453.182555921388
1.8573459386825562	1975.8790302882044
1.860944390296936	1496.8193298307433
1.864537239074707	1122.8160119580893
1.8681244850158691	641.5967447388146
1.871706247329712	410.2226242642567
1.8752825260162354	1205.2649820657814
1.8788533210754395	3363.9482235089067
1.8824186325073242	4882.709396496976
1.8859784603118896	4560.5426647708855
1.8895330429077148	3872.118438611803
1.8930821418762207	4313.982040651718
1.8966259956359863	4655.720656035622
1.9001644849777222	2906.3253919295184
1.9036977291107178	1344.4204789233083
1.9072256088256836	1336.496627288611
1.9107483625411987	1248.9417785698233
1.9142658710479736	919.1048006972927
1.9177782535552979	917.5244702109796
1.9212853908538818	984.0962011818367
1.9247875213623047	864.2549122119226
1.9282845258712769	667.8893026933343
1.9317764043807983	539.2085423420235
1.9352631568908691	495.95895157413116
1.9387450218200684	459.7513398958758
1.942221760749817	553.5362265090813
1.9456936120986938	733.0007366036576
1.9491604566574097	751.1824175984866
1.952622413635254	719.8326883860667
1.956079363822937	1029.4878869198199
1.959531545639038	1615.1928673746052
1.962978720664978	1891.6027864517516
1.966421127319336	1897.6757871978084
1.9698586463928223	1775.829056496094
1.9732913970947266	1831.3466321476421
1.9767193794250488	2421.959189317546
1.9801424741744995	2388.494891623918
1.9835609197616577	2060.3419851921835
1.9869745969772339	2606.3751855451505
1.990383505821228	3364.5258272018364
1.9937876462936401	4651.590494023133
1.9971871376037598	6596.886441936679
2.000581979751587	7349.632103174816
2.003972291946411	6652.521322106944
2.007357597351074	6675.926876016679
2.0107386112213135	6838.35090233805
2.0141148567199707	5879.255210321203
2.017486572265625	4677.61887868029
2.0208535194396973	4446.287375418336
2.0242159366607666	5698.96939180076
2.027573823928833	7042.504438540578
2.0309269428253174	8336.246700940472
2.034275770187378	9843.782087553675
2.0376198291778564	10464.348990021974
2.040959596633911	10916.259425420689
2.044294595718384	12900.55652551291
2.0476250648498535	15254.4362166881
2.0509510040283203	17128.92213613408
2.054272413253784	19346.671403900098
2.057589530944824	21956.322391847778
2.0609018802642822	24678.826818546346
2.0642096996307373	27358.94441008395
2.0675129890441895	29901.873579829677
2.0708119869232178	32403.51651025259
2.074106216430664	35339.668548520756
2.0773961544036865	37783.24025920118
2.080681324005127	39436.997179374644
2.0839622020721436	41734.07737134312
2.087238311767578	44038.210289242386
2.090510129928589	46236.38275655103
2.0937774181365967	47343.41944039826
2.0970399379730225	46888.45796363827
2.1002981662750244	46408.17685550402
2.1035518646240234	46944.770575480085
2.1068007946014404	47246.79485792709
2.1100454330444336	46014.98974648557
2.1132853031158447	45199.048187389446
2.116520881652832	43778.71310266581
2.1197516918182373	41634.71328178716
2.1229779720306396	40041.025586907694
2.12619948387146	38599.37470345033
2.1294167041778564	37614.07592359341
2.132629156112671	37034.823601916665
2.1358368396759033	36321.77178417254
2.139039993286133	34483.82124756908
2.1422386169433594	30059.169259273236
2.145432472229004	25484.871303776807
2.1486217975616455	23541.150486086553
2.151806354522705	22108.42310092245
2.1549863815307617	19861.35833436424
2.1581614017486572	17711.285512636994
2.16133189201355	15130.996464134645
2.1644976139068604	12784.038696417962
2.167658567428589	11153.203153090317
2.1708147525787354	10261.470236623778
2.173966407775879	10491.938186347665
2.1771130561828613	10041.586811648596
2.1802549362182617	8914.77966189362
2.183391809463501	8106.144835030564
2.1865241527557373	7635.038968290202
2.1896514892578125	6355.625942104972
2.1927738189697266	3925.6142393941436
2.1958916187286377	1866.3324051548452
2.1990041732788086	740.0642694449217
2.2021119594573975	303.3660030737266
2.2052149772644043	458.1898380646315
2.208312749862671	950.3804371334815
2.2114057540893555	1320.7877833480236
2.214493751525879	1393.9563493860899
2.217576742172241	1376.1494626074755
2.2206547260284424	1227.444096671388
2.2237277030944824	1016.5615755797311
2.2267956733703613	833.7227037990593
2.2298583984375	621.9156087979932
2.2329163551330566	559.365629023808
2.235969066619873	559.340081292053
2.2390167713165283	435.690027854523
2.2420592308044434	348.2162837101039
2.2450966835021973	301.5623971771242
2.248128890991211	216.39607262037586
2.2511560916900635	170.12207287719903
2.254178285598755	151.57432956588391
2.257194995880127	132.9933024841172
2.260206699371338	137.74634665384545
2.2632133960723877	145.91450089244992
2.266214609146118	161.77014247733985
2.2692108154296875	204.89876330441166
2.2722020149230957	265.5360094791905
2.2751877307891846	273.3778013926679
2.278168201446533	255.9404553806393
2.2811436653137207	246.67211190423322
2.284113883972168	189.88736629731946
2.287078857421875	146.8903403427853
2.290038824081421	133.2024208561009
2.2929933071136475	115.79211892084145
2.295942783355713	113.56722178535298
2.298887014389038	129.68727308428026
2.301826238632202	156.18669566020148
2.304760217666626	237.36323176819855
2.3076889514923096	589.0793264145202
2.310612440109253	1265.1077463333813
2.3135311603546143	1460.3289539018717
2.3164443969726562	771.2698973765447
2.319352865219116	170.01673745114164
2.322256088256836	99.15122575646501
2.3251543045043945	148.6496628462576
2.328047275543213	156.06716790184825
2.330935478210449	158.15625718944582
2.3338186740875244	181.0409988015715
2.3366971015930176	192.3207036479812
2.3395702838897705	191.2790513914604
2.3424389362335205	203.32460488089922
2.3453025817871094	184.94727233002808
2.348161458969116	163.83746141197278
2.351015567779541	200.56008960377272
2.353865146636963	257.231991169581
2.3567099571228027	354.73182117394066
2.3595502376556396	564.5217013890133
2.3623859882354736	749.0988334210414
2.3652172088623047	705.9187524480058
2.368043899536133	476.0368017918623
2.370866537094116	233.5836391492552
2.3736846446990967	160.6176355218735
2.3764986991882324	298.94378715670206
2.3793084621429443	433.942993835149
2.3821144104003906	413.7134975919573
2.384916305541992	437.19067745889225
2.387714147567749	601.5084499452049
2.3905084133148193	675.8668343266208
2.393299102783203	614.0858866048253
2.3960859775543213	599.4562000584189
2.398869514465332	761.1236170701263
2.4016497135162354	1023.6866910173277
2.4044265747070312	1231.726694926051
2.407200336456299	1395.94858671159
2.409970998764038	2034.6694321582029
2.4127390384674072	2763.090863646382
2.415503978729248	2415.9109826722647
2.418266534805298	1672.053120863819
2.4210267066955566	1427.8872365536974
2.4237842559814453	1208.3982639443689
2.426539897918701	1187.6243519134453
2.429293394088745	1827.4472512039297
2.4320452213287354	2330.6506684048218
2.4347951412200928	2368.600202596545
2.4375438690185547	3187.4556291116264
2.440291166305542	4495.776703252234
2.443037271499634	4725.2742988075815
2.445782423019409	4162.483079628605
2.4485268592834473	3918.700529944249
2.451270818710327	4185.787482604368
2.454014539718628	4887.222661342657
2.4567582607269287	5911.413551955241
2.4595019817352295	6890.221634926205
2.4622461795806885	8042.197870483385
2.4649908542633057	9596.824891001073
2.4677364826202393	9703.556518326528
2.4704833030700684	8528.781222088382
2.473231554031372	8105.688799690471
2.4759814739227295	8800.77965189104
2.4787333011627197	9073.720345437805
2.481487512588501	8885.396608903999
