#wavelength	surface flux
0.6450077295303345	5409.726007640317
0.6472567915916443	8656.598296739816
0.6494921445846558	11618.530127163653
0.6517150402069092	13789.178027149786
0.6539263725280762	16156.218086730918
0.6561272740364075	18788.61576859386
0.6583186388015747	21700.09659255845
0.6605015397071838	24901.753605756647
0.6626768708229065	28364.916706644468
0.6648455858230591	31989.989856555287
0.6670085787773132	34716.44498725276
0.6691668033599854	34099.61335262168
0.6713210344314575	34869.800518935604
0.6734722256660461	43203.90159770685
0.6756211519241333	52514.47317222588
0.6777685880661011	58172.65892164371
0.6799154281616211	62760.38736529253
0.6820623278617859	66954.71717045149
0.6842101216316223	70724.199365551
0.6863595843315125	73955.88520145857
0.688511312007904	76433.70847974968
0.6906660795211792	77736.32335934164
0.6928245425224304	78095.4331836659
0.6949873566627502	78557.69941888335
0.6971551775932312	78844.79697302946
0.6993286609649658	77873.71054370087
0.7015084028244019	75776.32471995061
0.7036949396133423	73118.33566573632
0.7058889269828796	70027.13851690287
0.7080909013748169	66465.3414987248
0.710301399230957	62475.46771878264
0.712520956993103	58110.53261761115
0.7147500514984131	53138.69442113085
0.7169892191886902	47702.95995350183
0.7192389369010925	42943.672675943075
0.7214996814727783	38947.43787275938
0.723771870136261	34863.647196438505
0.7260559797286987	30833.849043629074
0.7283523678779602	27214.940483036557
0.7306615710258484	23966.914100706977
0.7329838871955872	21101.72941634124
0.7353196740150452	18523.034022098876
0.7376693487167358	16090.576287825203
0.7400332689285278	13889.839987652815
0.7424117922782898	11959.939974468538
0.7448052167892456	10286.060898306607
0.7472138404846191	8842.698906691581
0.7496379613876343	7600.412497109036
0.7520779371261597	6530.393235081898
0.7545340061187744	5589.453466283649
0.7570064663887024	4724.452737447627
0.7594954967498779	3863.7787020645173
0.7620013952255249	2884.240178929924
0.7645244002342224	1762.9718482626897
0.7670646905899048	967.6645366262463
0.7696225643157959	1059.7785127630107
0.7721980810165405	2179.406972269402
0.7747915983200073	3868.170383652031
0.7774031162261963	5345.432373506499
0.7800329327583313	6767.976624728702
0.7826811671257019	9071.775712521034
0.7853479981422424	12078.885741124524
0.7880334854125977	15317.942559637855
0.7907378077507019	18347.509994692617
0.7934610247612	20538.648801598203
0.7962033748626709	25654.608467268343
0.7989648580551147	35582.94997399156
0.801745593547821	46443.72688143796
0.8045456409454346	57547.0525605565
0.8073651194572449	70108.69097927984
0.8102040886878967	83957.40057723796
0.8130625486373901	99804.5880657048
0.8159406185150146	119862.71317048767
0.8188382983207703	144568.98250274916
0.8217556476593018	171944.2390074375
0.8246926665306091	203945.96479918816
0.8276493549346924	241538.7457448826
0.8306257724761963	282297.46658992604
0.8336219191551208	327749.7770133069
0.8366377949714661	379672.8400494847
0.8396733403205872	438479.84466572484
0.8427285552024841	505008.5237911487
0.8458034992218018	574610.4417122608
0.8488980531692505	614357.6899420626
0.8520121574401855	644520.8952555943
0.8551458716392517	769319.5716821633
0.8582990765571594	933980.7702017372
0.8614717125892639	1035508.1157651629
0.8646637797355652	1129083.6090394766
0.8678751587867737	1258897.2320790405
0.8711057901382446	1403502.4914728682
0.8743556141853333	1550954.848105749
0.87762451171875	1687847.5025275776
0.8809124231338501	1770698.5009993778
0.8842192888259888	1813163.2102414742
0.8875449895858765	1854632.9593088771
0.8908893465995789	1800936.1687290631
0.894252359867096	1724271.8753536318
0.8976338505744934	2020431.9519673754
0.9010337591171265	2624873.596604184
0.9044519662857056	3163834.8783345786
0.9078882932662964	3517842.398963824
0.9113426208496094	3717650.194603595
0.914814829826355	3869613.9766605315
0.9183048605918884	4092683.301895852
0.9218124747276306	4263828.091566881
0.925337553024292	3751607.6636362495
0.9288799166679382	2632046.636369033
0.9324395060539246	2095419.5475589985
0.9360161423683167	2535957.022417303
0.9396095871925354	3281201.2843418526
0.943219780921936	3627049.1182221323
0.9468464851379395	3574232.092965046
0.9504896402359009	3568403.22090823
0.9541489481925964	3576916.3336455994
0.9578243494033813	3527017.761246595
0.9615156054496765	3684118.196366798
0.9652225375175476	4252608.588299149
0.9689450263977051	5011179.30202056
0.9726828336715698	5580664.634217778
0.9764357805252075	6042921.143471247
0.9802037477493286	6543023.4361013565
0.983986496925354	7031036.882574312
0.9877838492393494	7620265.089540328
0.9915955662727356	8327114.408984352
0.9954215884208679	8881790.09767064
0.9992615580558777	9205413.735672219
1.0031154155731201	9790379.697727311
1.0069829225540161	10760254.141033292
1.0108637809753418	11773461.62917577
1.0147579908370972	12750580.072856527
1.018665075302124	13663933.520044625
1.022585153579712	14502288.316223262
1.0265177488327026	15300215.051727226
1.0304628610610962	16103082.777099267
1.0344202518463135	16966577.980297007
1.0383895635604858	17869152.97019468
1.0423706769943237	18699020.131300762
1.0463634729385376	19403038.656754628
1.0503677129745483	20056306.262205217
1.0543830394744873	20721755.99636148
1.058409333229065	21310531.483808395
1.0624464750289917	21816693.45218689
1.0664942264556885	22240270.03101702
1.0705522298812866	22545972.016765878
1.0746204853057861	22896108.13237631
1.0786986351013184	23251939.95245148
1.0827864408493042	23211884.149757504
1.086883783340454	21906030.343131635
1.0909905433654785	18715479.57628484
1.0951062440872192	14572742.777871473
1.0992310047149658	10869512.978954406
1.10336434841156	7900156.94141485
1.1075061559677124	5602751.562800893
1.1116561889648438	3989783.071420838
1.115814208984375	3208827.315828572
1.1199802160263062	3244104.7158684647
1.124153733253479	3769191.559707684
1.1283347606658936	4072152.9780817134
1.1325229406356812	3589750.230711641
1.1367181539535522	3661227.0759036853
1.1409201622009277	4575040.71197577
1.145128846168518	4973895.699931781
1.1493438482284546	4863946.009605245
1.1535650491714478	4441193.590561638
1.1577922105789185	4056351.041915785
1.1620250940322876	4021857.3343665414
1.1662636995315552	4191818.389253307
1.170507550239563	4818834.049045255
1.174756646156311	5775945.206692946
1.1790107488632202	7127244.07895103
1.1832695007324219	9093018.56358506
1.1875330209732056	11092849.016915176
1.191800832748413	13107089.693672707
1.1960728168487549	15339289.940740101
1.2003488540649414	17410737.75043172
1.2046287059783936	19348311.243561745
1.2089121341705322	21077905.569960035
1.2131990194320679	22587725.036996022
1.2174891233444214	24155104.422706846
1.2217823266983032	25621439.92956323
1.2260783910751343	27052709.43337531
1.230377197265625	28483334.73950278
1.2346785068511963	29554108.386182692
1.238982081413269	29720368.36039829
1.2432878017425537	29293513.89542723
1.2475954294204712	28904367.991324328
1.2519049644470215	28486078.797469743
1.256216049194336	30502926.387781892
1.2605286836624146	33965848.79426041
1.2648425102233887	35243332.87048021
1.2691574096679688	35017312.1969513
1.2734732627868652	34271280.79800268
1.2777899503707886	33247424.434163343
1.2821072340011597	31670189.36692709
1.2864248752593994	29482759.665282443
1.2907428741455078	27651613.468206022
1.2950609922409058	26654869.440252658
1.2993791103363037	25828712.179191988
1.303696870803833	24899275.0479175
1.3080145120620728	23887353.076144673
1.3123314380645752	22162508.719301686
1.3166478872299194	20389912.195902787
1.3209635019302368	18830723.608119912
1.3252781629562378	15649792.548208814
1.3295916318893433	10343140.055960292
1.3339040279388428	5093613.178852951
1.3382149934768677	2083969.3392658678
1.3425244092941284	1012615.5354982237
1.3468321561813354	642401.3009956682
1.3511382341384888	448646.24110974016
1.3554422855377197	323814.33422710013
1.3597444295883179	301397.77930515766
1.3640443086624146	387612.37003276905
1.3683418035507202	477821.0664259688
1.3726370334625244	584351.4933163283
1.3769296407699585	741896.1497265426
1.381219506263733	734241.5562883674
1.3855066299438477	609773.644441095
1.3897908926010132	570084.655235491
1.3940720558166504	555250.1770376974
1.3983501195907593	552586.9555668418
1.4026249647140503	593102.5977954539
1.4068963527679443	607004.101988798
1.4111642837524414	592077.4662566374
1.4154287576675415	603801.2292062808
1.419689416885376	614150.3784118358
1.4239463806152344	665917.6296159803
1.4281994104385376	832817.112980181
1.4324485063552856	988490.8493343382
1.436693549156189	1060753.6315727688
1.440934419631958	1160163.565594558
1.4451709985733032	1363014.8178915642
1.449403166770935	1745233.2484671713
1.453631043434143	2170517.930175026
1.4578542709350586	2481701.178308702
1.4620729684829712	2606166.178796931
1.4662868976593018	2537689.5709779565
1.4704961776733398	2437496.822337496
1.4747005701065063	2517694.863117954
1.4788999557495117	2752286.526518723
1.4830944538116455	2935323.8600328527
1.4872838258743286	3097468.751089091
1.491468071937561	3352157.364352174
1.4956470727920532	3740708.2929799827
1.4998208284378052	4239791.048761968
1.5039892196655273	4682067.194238636
1.5081522464752197	4980616.019898435
1.5123097896575928	5261377.610273034
1.5164618492126465	5731710.898721275
1.5206083059310913	6579679.1461128965
1.5247491598129272	7534385.037780502
1.5288842916488647	8358613.232834028
1.5330137014389038	9205395.304530013
1.5371372699737549	10000324.51467209
1.541254997253418	10713669.7579619
1.545366883277893	11594921.401644364
1.5494728088378906	12440044.178567085
1.5535727739334106	13075156.512588633
1.5576666593551636	13943786.642662624
1.561754584312439	15385713.580425529
1.5658363103866577	16946825.98364058
1.5699119567871094	17845776.553264506
1.5739814043045044	18239462.675942525
1.5780447721481323	18734025.07140379
1.582101821899414	19217382.911152348
1.5861525535583496	19298669.009667747
1.5901970863342285	18882503.308537874
1.5942351818084717	18217886.37046418
1.5982669591903687	17399647.162833735
1.6022924184799194	16165847.775833843
1.606311559677124	14676764.795022724
1.6103241443634033	13219051.174978733
1.6143304109573364	11636250.683433412
1.6183301210403442	10164396.556813931
1.6223233938217163	9368166.408276914
1.6263102293014526	9130448.530032966
1.6302905082702637	9198114.79413615
1.634264349937439	9860299.169941006
1.638231635093689	11066720.231920559
1.6421923637390137	11673649.548706636
1.646146535873413	11179127.129864402
1.6500942707061768	10998699.758593118
1.6540353298187256	10817468.304886024
1.6579699516296387	10449461.287944868
1.661897897720337	10066519.403840307
1.6658192873001099	6793618.3347363435
1.6697341203689575	3759461.970539615
1.6736423969268799	5132900.453516891
1.677544116973877	7152970.773227679
1.6814392805099487	7274517.753084717
1.6853278875350952	6658391.522366726
1.6892099380493164	5963406.79766149
1.6930854320526123	5179245.136155457
1.696954369544983	4464073.47217468
1.7008168697357178	4007748.7734854785
1.7046726942062378	4045322.751789385
1.708522081375122	4680732.473845977
1.712364912033081	5350816.512354431
1.7162011861801147	5864919.449327035
1.7200311422348022	6239088.775319755
1.723854422569275	6018808.445959739
1.7276713848114014	5658470.362092305
1.731481909751892	5500758.793493871
1.7352858781814575	5393789.481813344
1.7390835285186768	5459174.191877444
1.7428747415542603	5589864.493966199
1.7466596364974976	5582779.293817877
1.7504380941390991	5355226.407171029
1.7542102336883545	4788553.074179118
1.7579760551452637	4225966.789787404
1.7617355585098267	3955757.263350143
1.7654887437820435	3666721.7158045257
1.7692357301712036	3291580.94185761
1.7729763984680176	2962444.691155015
1.776710867881775	2778603.820984835
1.7804391384124756	2709662.592672967
1.7841613292694092	2463381.1180522074
1.7878772020339966	2192660.551318206
1.7915871143341064	1937014.6533313876
1.7952908277511597	1772125.1724949449
1.7989884614944458	1775682.6909707014
1.8026801347732544	1535668.747173977
1.806365728378296	1367143.7272849788
1.8100452423095703	1462059.3213986258
1.8137187957763672	1544676.863895648
1.817386507987976	1443008.810488872
1.8210482597351074	1468995.438038546
1.8247040510177612	1711691.6963491787
1.828354001045227	1543200.940488904
1.8319982290267944	1215602.531111364
1.8356364965438843	1077161.106989573
1.8392690420150757	1076819.2456911432
1.8428958654403687	1294697.4832471542
1.8465168476104736	1377921.3324734222
1.8501322269439697	1324421.8524109328
1.8537418842315674	1285797.6575168283
1.8573459386825562	1094833.2118861547
1.860944390296936	892447.7023604957
1.864537239074707	781904.2266886062
1.8681244850158691	705413.0616951068
1.871706247329712	775078.9078892539
1.8752825260162354	1146063.9893940152
1.8788533210754395	1741575.2094087335
1.8824186325073242	2139647.0987272463
1.8859784603118896	2157431.4086604193
1.8895330429077148	2119803.4271280877
1.8930821418762207	2385785.964280879
1.8966259956359863	2572181.522068837
1.9001644849777222	2190777.957928516
1.9036977291107178	1852892.8656062013
1.9072256088256836	1934029.5334837302
1.9107483625411987	1883272.8749229214
1.9142658710479736	1700197.7095763283
1.9177782535552979	1742202.6651245323
1.9212853908538818	1683388.0353033417
1.9247875213623047	1461987.0415381812
1.9282845258712769	1270946.9442174376
1.9317764043807983	1127103.8777068402
1.9352631568908691	1034183.7275726171
1.9387450218200684	940553.3558797273
1.942221760749817	1022833.6969303727
1.9456936120986938	1186812.0630530673
1.9491604566574097	1252148.370496593
1.952622413635254	1254497.213749831
1.956079363822937	1243850.5006663287
1.959531545639038	1342868.912442467
1.962978720664978	1488783.4285581803
1.966421127319336	1665404.2810251315
1.9698586463928223	1758459.0740288892
1.9732913970947266	1748676.9906962817
1.9767193794250488	1904595.7413260068
1.9801424741744995	2068320.7628264085
1.9835609197616577	2249574.5798198977
1.9869745969772339	2471952.281055496
1.990383505821228	2548028.6752705355
1.9937876462936401	2851145.5002531004
1.9971871376037598	3228697.0311824
2.000581979751587	3417573.4018677776
2.003972291946411	3563539.152537694
2.007357597351074	3592686.3728995724
2.0107386112213135	3771072.441716821
2.0141148567199707	3967982.2472641356
2.017486572265625	3884220.3113926267
2.0208535194396973	4143338.998493783
2.0242159366607666	4656891.1990255695
2.027573823928833	4758759.163737702
2.0309269428253174	4893214.246869439
2.034275770187378	5318096.3796817325
2.0376198291778564	5560655.785767512
2.040959596633911	5614910.54350411
2.044294595718384	5963867.6957418
2.0476250648498535	6466098.603042315
2.0509510040283203	6596013.860095778
2.054272413253784	6692733.130406344
2.057589530944824	7123076.171012584
2.0609018802642822	7394861.707641877
2.0642096996307373	7466766.074556605
2.0675129890441895	7641344.681806835
2.0708119869232178	7787642.131424853
2.074106216430664	7861138.491530503
2.0773961544036865	7918217.648006942
2.080681324005127	8017599.465454666
2.0839622020721436	8124485.695059077
2.087238311767578	8193960.358647084
2.090510129928589	8258900.769935846
2.0937774181365967	8252858.628153209
2.0970399379730225	8183424.411269057
2.1002981662750244	8060850.138783214
2.1035518646240234	7924901.776211521
2.1068007946014404	7810257.288744707
2.1100454330444336	7701650.416163981
2.1132853031158447	7661715.670998382
2.116520881652832	7530145.724658056
2.1197516918182373	7348275.401474091
2.1229779720306396	7277582.928478062
2.12619948387146	7191391.656948169
2.1294167041778564	7054522.7649193825
2.132629156112671	6954808.269122513
2.1358368396759033	6830671.064971244
2.139039993286133	6570792.38160336
2.1422386169433594	6131474.755499677
2.145432472229004	5704838.592996707
2.1486217975616455	5536147.8797264425
2.151806354522705	5471862.203261116
2.1549863815307617	5354365.156703988
2.1581614017486572	5154584.207323894
2.16133189201355	4861169.503599264
2.1644976139068604	4615827.150408323
2.167658567428589	4417602.439514772
2.1708147525787354	4257363.169599261
2.173966407775879	4113447.6290813927
2.1771130561828613	3904280.86466581
2.1802549362182617	3704641.46519315
2.183391809463501	3476703.954420825
2.1865241527557373	3202578.6321635735
2.1896514892578125	2838292.871511513
2.1927738189697266	2310645.142387308
2.1958916187286377	1678659.024614034
2.1990041732788086	1070322.209058836
2.2021119594573975	719951.9966531137
2.2052149772644043	707273.2649259595
2.208312749862671	893484.9723908205
2.2114057540893555	1117544.4721913342
2.214493751525879	1287312.2578428343
2.217576742172241	1388614.8950337227
2.2206547260284424	1398880.479063449
2.2237277030944824	1325243.1536199418
2.2267956733703613	1191546.4287182
2.2298583984375	1054637.741969211
2.2329163551330566	991011.391534134
2.235969066619873	959314.2487030156
2.2390167713165283	867434.9909690581
2.2420592308044434	763933.3523592073
2.2450966835021973	693199.5167078289
2.248128890991211	631030.5348622252
2.2511560916900635	594173.7700290901
2.254178285598755	573452.3960890453
2.257194995880127	562767.3892075769
2.260206699371338	566190.5782719385
2.2632133960723877	580283.2975559487
2.266214609146118	600495.3605657344
2.2692108154296875	611080.5369343722
2.2722020149230957	614473.6006314794
2.2751877307891846	599156.5191188898
2.278168201446533	587598.5583734781
2.2811436653137207	564373.9405447444
2.284113883972168	495832.7623801581
2.287078857421875	446915.6988224862
2.290038824081421	414757.00034375745
2.2929933071136475	384038.2167488096
2.295942783355713	391590.9213190872
2.298887014389038	447474.6836404097
2.301826238632202	520373.2098158864
2.304760217666626	634901.2818908292
2.3076889514923096	891058.1760869797
2.310612440109253	1227303.9405912538
2.3135311603546143	1275498.9655592896
2.3164443969726562	818713.9326132286
2.319352865219116	367227.9269639566
2.322256088256836	287295.4272371746
2.3251543045043945	317929.0932688382
2.328047275543213	326942.6727099501
2.330935478210449	349173.292041355
2.3338186740875244	376615.486849725
2.3366971015930176	395825.0110213645
2.3395702838897705	408882.44978292106
2.3424389362335205	412250.84652004036
2.3453025817871094	393140.1232318298
2.348161458969116	389670.2445151873
2.351015567779541	426486.2992465775
2.353865146636963	473619.9276602347
2.3567099571228027	532417.6343868306
2.3595502376556396	639514.0472015648
2.3623859882354736	756750.4556954348
2.3652172088623047	792255.3900390867
2.368043899536133	670160.5626679669
2.370866537094116	428963.7079857719
2.3736846446990967	319057.04241623444
2.3764986991882324	375633.5763237079
2.3793084621429443	413666.1764987791
2.3821144104003906	409463.32600375084
2.384916305541992	469516.86801456584
2.387714147567749	602619.5592837194
2.3905084133148193	666527.9694035681
2.393299102783203	653800.0407661132
2.3960859775543213	678546.8371829963
2.398869514465332	781893.9970527904
2.4016497135162354	897673.9166799224
2.4044265747070312	957832.4125570692
2.407200336456299	960228.8426432642
2.409970998764038	1037626.5808515701
2.4127390384674072	1180084.3540621554
2.415503978729248	1132261.1792451146
2.418266534805298	1014031.6946545256
2.4210267066955566	1027956.711340818
2.4237842559814453	990696.1426752151
2.426539897918701	939374.8650528293
2.429293394088745	1081284.6259800277
2.4320452213287354	1237087.4355392293
2.4347951412200928	1192441.2465229987
2.4375438690185547	1246549.8890463735
2.440291166305542	1443024.820277928
2.443037271499634	1441888.3312990468
2.445782423019409	1336721.220471775
2.4485268592834473	1317877.7107102245
2.451270818710327	1312138.0570840118
2.454014539718628	1353226.1590135943
2.4567582607269287	1519299.5046833905
2.4595019817352295	1593826.2480791651
2.4622461795806885	1677114.5029015224
2.4649908542633057	1824538.5356378404
2.4677364826202393	1674298.0074643341
2.4704833030700684	1431968.9998195875
2.473231554031372	1349104.9639441709
2.4759814739227295	1389936.9083723065
2.4787333011627197	1459440.0443103532
2.481487512588501	1499580.2856261712
