#wavelength	surface flux
0.6450077295303345	17099.220082069558
0.6472567915916443	27593.958583268803
0.6494921445846558	37588.14554080149
0.6517150402069092	45333.15955159927
0.6539263725280762	53874.30628586015
0.6561272740364075	63428.861955777356
0.6583186388015747	74046.32671641094
0.6605015397071838	85686.66095162142
0.6626768708229065	98071.98685242236
0.6648455858230591	110267.92495592737
0.6670085787773132	116199.14182384526
0.6691668033599854	105693.91700615665
0.6713210344314575	103012.96705144826
0.6734722256660461	138011.97411915197
0.6756211519241333	180795.7284139066
0.6777685880661011	206877.36717819955
0.6799154281616211	226323.91556128123
0.6820623278617859	243679.14239569567
0.6842101216316223	259325.24273249673
0.6863595843315125	272850.88550517155
0.688511312007904	283017.7259924401
0.6906660795211792	287247.1035015995
0.6928245425224304	287441.6207350673
0.6949873566627502	291196.60811845976
0.6971551775932312	296937.08790011046
0.6993286609649658	296534.9122379887
0.7015084028244019	290450.40361363284
0.7036949396133423	282388.15738137846
0.7058889269828796	272728.2473538817
0.7080909013748169	261071.62456262275
0.710301399230957	247424.78987310053
0.712520956993103	231841.54696718947
0.7147500514984131	212592.25920920528
0.7169892191886902	190522.13800067728
0.7192389369010925	172314.6291776772
0.7214996814727783	157739.02554790766
0.723771870136261	141571.190124947
0.7260559797286987	124872.18059573766
0.7283523678779602	110097.28552635519
0.7306615710258484	96782.10596095466
0.7329838871955872	84623.62746289166
0.7353196740150452	73382.92580456723
0.7376693487167358	62322.12872611549
0.7400332689285278	51923.30972360665
0.7424117922782898	42588.71230865012
0.7448052167892456	34411.169287649485
0.7472138404846191	27314.48808578837
0.7496379613876343	21195.708305489065
0.7520779371261597	16073.752499436869
0.7545340061187744	11925.553430252694
0.7570064663887024	8648.618326282789
0.7594954967498779	6077.658701489935
0.7620013952255249	3967.242139191185
0.7645244002342224	2175.494172570584
0.7670646905899048	1086.6795113448795
0.7696225643157959	1200.1557076450797
0.7721980810165405	2731.2334903811966
0.7747915983200073	5387.417643641313
0.7774031162261963	8313.855473041447
0.7800329327583313	12132.41272160997
0.7826811671257019	19097.962949268604
0.7853479981422424	29081.729935941265
0.7880334854125977	41079.22167673947
0.7907378077507019	52770.598292509676
0.7934610247612	61337.59063764452
0.7962033748626709	81400.7903005564
0.7989648580551147	120265.32096872202
0.801745593547821	162433.22954720593
0.8045456409454346	204425.9475085504
0.8073651194572449	249782.29875513326
0.8102040886878967	297404.744801969
0.8130625486373901	351475.74637365306
0.8159406185150146	419835.9162722031
0.8188382983207703	501920.73637503653
0.8217556476593018	593710.8637481909
0.8246926665306091	702008.904501844
0.8276493549346924	825206.071989384
0.8306257724761963	954566.777112796
0.8336219191551208	1095250.7942313706
0.8366377949714661	1251450.249846124
0.8396733403205872	1426033.8752449697
0.8427285552024841	1623931.112432266
0.8458034992218018	1828184.1139462108
0.8488980531692505	1923120.6318215393
0.8520121574401855	1976754.4335604121
0.8551458716392517	2343342.1956287795
0.8582990765571594	2785198.8746767617
0.8614717125892639	2861699.2921455624
0.8646637797355652	2876166.6108663226
0.8678751587867737	3113614.4139057295
0.8711057901382446	3403622.8188887546
0.8743556141853333	3701892.373569535
0.87762451171875	4005179.2288961513
0.8809124231338501	4163025.638436622
0.8842192888259888	4245678.193672452
0.8875449895858765	4341822.141619866
0.8908893465995789	4179205.4780040835
0.894252359867096	3985591.695093324
0.8976338505744934	4739105.063179702
0.9010337591171265	6256960.367013643
0.9044519662857056	7646559.526255842
0.9078882932662964	8579738.6447602
0.9113426208496094	9065256.722537156
0.914814829826355	9369182.793086195
0.9183048605918884	9864632.276573116
0.9218124747276306	10228094.813647967
0.925337553024292	8952636.266858013
0.9288799166679382	6471521.591136222
0.9324395060539246	5363061.51856247
0.9360161423683167	6041719.9632687215
0.9396095871925354	7278807.207892855
0.943219780921936	8159443.584085056
0.9468464851379395	8455960.5664283
0.9504896402359009	8592323.517206019
0.9541489481925964	8608236.344661409
0.9578243494033813	8426390.086053962
0.9615156054496765	8579307.917666309
0.9652225375175476	9461527.217704983
0.9689450263977051	10613754.844039805
0.9726828336715698	11455551.2491375
0.9764357805252075	12220111.925619725
0.9802037477493286	13073585.279859379
0.983986496925354	13859656.83180661
0.9877838492393494	14751517.487152938
0.9915955662727356	15604726.285490103
0.9954215884208679	15826323.613494443
0.9992615580558777	15017970.413955085
1.0031154155731201	14716049.740701487
1.0069829225540161	15941045.602189638
1.0108637809753418	17895974.03800112
1.0147579908370972	20367128.089282382
1.018665075302124	23126455.071910243
1.022585153579712	25583604.958488468
1.0265177488327026	27598518.05402425
1.0304628610610962	29880484.03325196
1.0344202518463135	32754293.486439586
1.0383895635604858	35514277.96624257
1.0423706769943237	37589459.87109613
1.0463634729385376	39006945.65548049
1.0503677129745483	39895368.35839342
1.0543830394744873	40762839.568833314
1.058409333229065	41955746.37705861
1.0624464750289917	43533995.14093816
1.0664942264556885	45299926.108180635
1.0705522298812866	47032085.932498425
1.0746204853057861	49049161.28641164
1.0786986351013184	50874374.07663215
1.0827864408493042	51190862.1727693
1.086883783340454	47377388.5147189
1.0909905433654785	38326211.62643655
1.0951062440872192	28271533.937374007
1.0992310047149658	21259970.358751055
1.10336434841156	16475112.843178116
1.1075061559677124	12586726.430129917
1.1116561889648438	9684256.832321892
1.115814208984375	8141027.301128456
1.1199802160263062	7861826.83868801
1.124153733253479	8429448.681455627
1.1283347606658936	8761796.625975618
1.1325229406356812	7555073.491581578
1.1367181539535522	7024389.314351029
1.1409201622009277	8359158.137863492
1.145128846168518	9512270.830009114
1.1493438482284546	9741751.289484946
1.1535650491714478	9198842.54415932
1.1577922105789185	8775961.871235318
1.1620250940322876	8618546.226774145
1.1662636995315552	8470031.980830867
1.170507550239563	9123481.124796232
1.174756646156311	10193476.891756758
1.1790107488632202	11849119.111837089
1.1832695007324219	14858270.060242798
1.1875330209732056	18198020.47965471
1.191800832748413	21800585.785450496
1.1960728168487549	25818239.78570965
1.2003488540649414	29519088.531603098
1.2046287059783936	33400600.354104813
1.2089121341705322	37158939.348391
1.2131990194320679	40518686.722101234
1.2174891233444214	44058398.42718457
1.2217823266983032	47587379.40650695
1.2260783910751343	51425227.3401021
1.230377197265625	55306760.57830393
1.2346785068511963	58155683.32910972
1.238982081413269	58243769.86982567
1.2432878017425537	56609879.0194618
1.2475954294204712	55922813.74257432
1.2519049644470215	55207811.263825506
1.256216049194336	60315975.74114898
1.2605286836624146	68578193.58091731
1.2648425102233887	70490597.91595078
1.2691574096679688	69214409.85595767
1.2734732627868652	67677066.98051262
1.2777899503707886	66161034.84458624
1.2821072340011597	63547107.799008206
1.2864248752593994	59022034.20751473
1.2907428741455078	55470259.64650646
1.2950609922409058	54292629.01316373
1.2993791103363037	52896914.8824779
1.303696870803833	50468559.11952426
1.3080145120620728	47444738.87516727
1.3123314380645752	43245223.981190994
1.3166478872299194	39344326.64505257
1.3209635019302368	36167727.57886096
1.3252781629562378	30473164.63490105
1.3295916318893433	20324016.1199455
1.3339040279388428	9944820.5769077
1.3382149934768677	4358357.579673757
1.3425244092941284	2517295.038099111
1.3468321561813354	1737554.488826062
1.3511382341384888	1267370.9804982252
1.3554422855377197	996280.5617911502
1.3597444295883179	967603.9336169898
1.3640443086624146	1183085.295384743
1.3683418035507202	1351084.9699944986
1.3726370334625244	1442991.30109125
1.3769296407699585	1653804.4002973377
1.381219506263733	1700194.0160479543
1.3855066299438477	1601886.9188472761
1.3897908926010132	1595300.31527548
1.3940720558166504	1548369.116507241
1.3983501195907593	1482910.036456162
1.4026249647140503	1490706.6761504074
1.4068963527679443	1441553.3432272256
1.4111642837524414	1400571.6077552554
1.4154287576675415	1477270.7713999008
1.419689416885376	1480644.997534
1.4239463806152344	1475141.9450708374
1.4281994104385376	1688098.7970913325
1.4324485063552856	1970832.874875337
1.436693549156189	2162141.881003606
1.440934419631958	2330751.4481941676
1.4451709985733032	2608743.120540946
1.449403166770935	3257880.7692226125
1.453631043434143	4073511.56089027
1.4578542709350586	4605916.534361671
1.4620729684829712	4787399.828175032
1.4662868976593018	4768162.846847808
1.4704961776733398	4730883.626847285
1.4747005701065063	4970762.973898187
1.4788999557495117	5424974.656018331
1.4830944538116455	5747927.157894361
1.4872838258743286	6096344.971442052
1.491468071937561	6559570.903777238
1.4956470727920532	7090313.979549965
1.4998208284378052	7721168.1245259885
1.5039892196655273	8383783.081140009
1.5081522464752197	9223921.12303337
1.5123097896575928	10214945.987248434
1.5164618492126465	10947480.04362769
1.5206083059310913	11710696.087518519
1.5247491598129272	12716126.677475901
1.5288842916488647	13761211.015418105
1.5330137014389038	14914456.980636232
1.5371372699737549	15886859.186951958
1.541254997253418	16736252.062374862
1.545366883277893	18040533.637761015
1.5494728088378906	19207885.184666
1.5535727739334106	19606525.28202722
1.5576666593551636	20253907.87338657
1.561754584312439	22303928.467229057
1.5658363103866577	24913037.47242023
1.5699119567871094	26345693.346690223
1.5739814043045044	26891036.054432213
1.5780447721481323	27573486.048950166
1.582101821899414	28276069.749264132
1.5861525535583496	28510073.776068553
1.5901970863342285	28000709.143173236
1.5942351818084717	27198873.463995792
1.5982669591903687	26194764.94142988
1.6022924184799194	24326249.669319797
1.606311559677124	22118949.320210893
1.6103241443634033	20405887.70878074
1.6143304109573364	18550381.544947583
1.6183301210403442	16749685.935846142
1.6223233938217163	16424740.166626738
1.6263102293014526	17209815.192383867
1.6302905082702637	18060416.39035973
1.634264349937439	19565789.470204033
1.638231635093689	21921776.897525646
1.6421923637390137	22684360.102064926
1.646146535873413	20926412.61650879
1.6500942707061768	20321933.15232831
1.6540353298187256	19846382.74640655
1.6579699516296387	18334945.14396365
1.661897897720337	17560438.670900736
1.6658192873001099	12196170.496648513
1.6697341203689575	6389413.202118376
1.6736423969268799	8315024.389821785
1.677544116973877	11948804.299976945
1.6814392805099487	12222069.603940982
1.6853278875350952	11047111.780876098
1.6892099380493164	9678903.579091214
1.6930854320526123	8138507.0584216295
1.696954369544983	6817905.20311799
1.7008168697357178	6122191.766305371
1.7046726942062378	6333764.160105743
1.708522081375122	7411033.742951389
1.712364912033081	8319909.542717397
1.7162011861801147	8865990.56190096
1.7200311422348022	9319442.473343488
1.723854422569275	8945960.1815302
1.7276713848114014	8217087.257035543
1.731481909751892	7688823.500753673
1.7352858781814575	7474637.388449168
1.7390835285186768	7887156.7440838935
1.7428747415542603	8489564.671595696
1.7466596364974976	8760400.73976082
1.7504380941390991	8576627.445574855
1.7542102336883545	7835092.029570432
1.7579760551452637	7039118.684963189
1.7617355585098267	6658500.151742152
1.7654887437820435	6254109.164169738
1.7692357301712036	5599967.748913632
1.7729763984680176	5078571.832275668
1.776710867881775	5041891.656501347
1.7804391384124756	5192746.484623992
1.7841613292694092	4844663.244853812
1.7878772020339966	4329036.318157753
1.7915871143341064	3795834.4715612945
1.7952908277511597	3551683.773692721
1.7989884614944458	3695063.065307365
1.8026801347732544	3400243.346297154
1.806365728378296	3183656.856353289
1.8100452423095703	3386843.3772007655
1.8137187957763672	3624306.1306039696
1.817386507987976	3427358.1421000445
1.8210482597351074	3352722.6686906093
1.8247040510177612	3809867.637225207
1.828354001045227	3678539.1549182413
1.8319982290267944	3150942.8901513102
1.8356364965438843	2834434.5393901933
1.8392690420150757	2813794.2935038684
1.8428958654403687	3082437.573179304
1.8465168476104736	3076958.800459225
1.8501322269439697	2963904.972118807
1.8537418842315674	2904831.3047188483
1.8573459386825562	2496839.9230886013
1.860944390296936	2086930.6127182075
1.864537239074707	1969179.062286007
1.8681244850158691	1962744.8791550545
1.871706247329712	2166631.6194274365
1.8752825260162354	2745546.621393856
1.8788533210754395	3648152.4309048033
1.8824186325073242	4415163.255453713
1.8859784603118896	4661113.528386703
1.8895330429077148	4675266.973499305
1.8930821418762207	5041940.340316003
1.8966259956359863	5398457.110607562
1.9001644849777222	5041158.373025066
1.9036977291107178	4684783.4477293175
1.9072256088256836	4975890.670409701
1.9107483625411987	5008994.596270247
1.9142658710479736	4738278.140805876
1.9177782535552979	4857935.154594988
1.9212853908538818	4742855.450763187
1.9247875213623047	4327386.483784401
1.9282845258712769	3904239.0463431096
1.9317764043807983	3468194.5135349436
1.9352631568908691	3118218.298491305
1.9387450218200684	2799411.0832984275
1.942221760749817	2955990.4435048196
1.9456936120986938	3378058.5252180356
1.9491604566574097	3591415.5966946133
1.952622413635254	3583848.403193483
1.956079363822937	3423628.347282948
1.959531545639038	3531096.3285232014
1.962978720664978	3796214.6437784676
1.966421127319336	4129198.7444336
1.9698586463928223	4440697.375183134
1.9732913970947266	4458718.824402946
1.9767193794250488	4586734.686521885
1.9801424741744995	4788313.484331078
1.9835609197616577	5037985.859763787
1.9869745969772339	5367584.613144478
1.990383505821228	5568976.800630781
1.9937876462936401	6173964.373186729
1.9971871376037598	6718917.870355396
2.000581979751587	7006995.885195884
2.003972291946411	7332794.972612569
2.007357597351074	7353663.91071641
2.0107386112213135	7702360.071456254
2.0141148567199707	8259648.9486499075
2.017486572265625	8357997.003923067
2.0208535194396973	9109897.079158211
2.0242159366607666	10159697.963170154
2.027573823928833	10129695.423562529
2.0309269428253174	10256381.681187853
2.034275770187378	11222473.595888764
2.0376198291778564	11799603.34925166
2.040959596633911	11824762.468496846
2.044294595718384	12441108.090636428
2.0476250648498535	13500665.03125639
2.0509510040283203	13691107.593593296
2.054272413253784	13703468.770932732
2.057589530944824	14711225.874230662
2.0609018802642822	15227202.626633633
2.0642096996307373	15145010.827602593
2.0675129890441895	15553332.866528051
2.0708119869232178	15792633.858498719
2.074106216430664	15769711.96980589
2.0773961544036865	15803772.327674108
2.080681324005127	15911538.671835033
2.0839622020721436	15963883.503965383
2.087238311767578	16024632.602846416
2.090510129928589	16225460.67365232
2.0937774181365967	16219699.548722291
2.0970399379730225	15979752.41836531
2.1002981662750244	15596965.407593062
2.1035518646240234	15199364.654858503
2.1068007946014404	14805724.672857933
2.1100454330444336	14415404.912973164
2.1132853031158447	14317180.957963225
2.116520881652832	14001930.373736784
2.1197516918182373	13558443.00380874
2.1229779720306396	13489132.385595646
2.12619948387146	13354304.645882023
2.1294167041778564	13009917.880662357
2.132629156112671	12815063.078374255
2.1358368396759033	12547669.110901931
2.139039993286133	11731352.355658332
2.1422386169433594	10465939.457633507
2.145432472229004	9370499.59543325
2.1486217975616455	9041522.954328712
2.151806354522705	9039688.449096937
2.1549863815307617	8850240.315013204
2.1581614017486572	8456091.43025473
2.16133189201355	7905693.563077761
2.1644976139068604	7392536.65488692
2.167658567428589	6899810.682152679
2.1708147525787354	6585606.932342162
2.173966407775879	6319295.057085641
2.1771130561828613	5876184.029461089
2.1802549362182617	5484111.324776876
2.183391809463501	5036752.090799246
2.1865241527557373	4484587.140944184
2.1896514892578125	3871442.8154665655
2.1927738189697266	3138191.1679461077
2.1958916187286377	2281373.6309454064
2.1990041732788086	1450396.355436986
2.2021119594573975	947746.5262624765
2.2052149772644043	804461.0893481827
2.208312749862671	906044.7335686162
2.2114057540893555	1188983.7749771406
2.214493751525879	1525388.6454513299
2.217576742172241	1764041.626985153
2.2206547260284424	1842560.3185840242
2.2237277030944824	1777298.6380166393
2.2267956733703613	1622713.5561380598
2.2298583984375	1471070.2755360436
2.2329163551330566	1375432.035526957
2.235969066619873	1298895.4398875232
2.2390167713165283	1179825.9055235959
2.2420592308044434	1048703.1475570598
2.2450966835021973	937908.2164539226
2.248128890991211	862046.8216209852
2.2511560916900635	826023.2011345157
2.254178285598755	806712.001826183
2.257194995880127	803444.7741513541
2.260206699371338	810484.6744962004
2.2632133960723877	828827.6523178741
2.266214609146118	837027.6565495307
2.2692108154296875	829241.0896028396
2.2722020149230957	821976.7297920511
2.2751877307891846	799479.5317388825
2.278168201446533	771830.8897935845
2.2811436653137207	720859.9933065362
2.284113883972168	629259.2716277016
2.287078857421875	550212.5616845357
2.290038824081421	491470.48568661715
2.2929933071136475	452803.62222174695
2.295942783355713	467284.8143052656
2.298887014389038	544236.4195839533
2.301826238632202	638594.8362927681
2.304760217666626	777480.3605467884
2.3076889514923096	1071237.9426245228
2.310612440109253	1436023.3346281687
2.3135311603546143	1514987.384935604
2.3164443969726562	1061435.1386487233
2.319352865219116	553582.3565147915
2.322256088256836	405494.9104789949
2.3251543045043945	382750.5060178064
2.328047275543213	378266.21523880004
2.330935478210449	424877.9527125918
2.3338186740875244	482725.58030325535
2.3366971015930176	532047.5617710962
2.3395702838897705	566934.8099917563
2.3424389362335205	566154.0327836103
2.3453025817871094	527895.3473957045
2.348161458969116	513479.7045133828
2.351015567779541	554773.7612720074
2.353865146636963	615046.7071077446
2.3567099571228027	680351.8666124584
2.3595502376556396	770674.0073432552
2.3623859882354736	879728.9290556252
2.3652172088623047	970614.2621709163
2.368043899536133	920820.1756712964
2.370866537094116	659306.6790921873
2.3736846446990967	486267.9916632457
2.3764986991882324	505895.27227751387
2.3793084621429443	497260.4673271076
2.3821144104003906	463616.8125350117
2.384916305541992	545258.8101529683
2.387714147567749	727683.0257812327
2.3905084133148193	814634.4331490513
2.393299102783203	808674.6422653116
2.3960859775543213	859765.3887287178
2.398869514465332	969083.8589543985
2.4016497135162354	1091291.1447310112
2.4044265747070312	1225944.1869879891
2.407200336456299	1297398.6607722864
2.409970998764038	1340823.3997694538
2.4127390384674072	1428448.6605328938
2.415503978729248	1425734.5378401305
2.418266534805298	1358829.6214646548
2.4210267066955566	1317223.9773106272
2.4237842559814453	1203786.7949069703
2.426539897918701	1136222.7679740197
2.429293394088745	1265684.5112423894
2.4320452213287354	1402568.7153977128
2.4347951412200928	1383522.4077344413
2.4375438690185547	1464677.6096433196
2.440291166305542	1667184.1187637956
2.443037271499634	1700819.8671600355
2.445782423019409	1648779.0056413936
2.4485268592834473	1650469.9101310605
2.451270818710327	1672608.4458686234
2.454014539718628	1746663.8954897185
2.4567582607269287	1928726.3367132791
2.4595019817352295	2045677.5697040756
2.4622461795806885	2174417.0239914083
2.4649908542633057	2355351.7547759507
2.4677364826202393	2227826.5972528607
2.4704833030700684	2000019.1492306252
2.473231554031372	1948179.4593261392
2.4759814739227295	2053022.440548242
2.4787333011627197	2167338.3953718576
2.481487512588501	2190684.5164101454
