#wavelength	surface flux
0.6450077295303345	6824.679111596188
0.6472567915916443	11067.623676667165
0.6494921445846558	15207.975759054965
0.6517150402069092	18519.061210611828
0.6539263725280762	22202.06226426774
0.6561272740364075	26345.310012301907
0.6583186388015747	30980.88967258299
0.6605015397071838	36110.521743807396
0.6626768708229065	41647.38570685214
0.6648455858230591	47321.7241899557
0.6670085787773132	50872.23967854083
0.6691668033599854	47957.65583589866
0.6713210344314575	47978.22873154843
0.6734722256660461	62818.57317887588
0.6756211519241333	80270.1092151068
0.6777685880661011	90935.3948848029
0.6799154281616211	99246.93061563041
0.6820623278617859	106815.76722079076
0.6842101216316223	113704.65979816862
0.6863595843315125	119714.20252832002
0.688511312007904	124287.63793427695
0.6906660795211792	126189.95200222699
0.6928245425224304	126249.0150412632
0.6949873566627502	127970.8022680453
0.6971551775932312	130573.97854415758
0.6993286609649658	130312.3120860446
0.7015084028244019	127438.82578376801
0.7036949396133423	123775.03577477072
0.7058889269828796	119547.7459513718
0.7080909013748169	114394.71157554862
0.710301399230957	108226.4682322397
0.712520956993103	101108.27960639322
0.7147500514984131	92176.20780572738
0.7169892191886902	81801.02468692485
0.7192389369010925	73352.05406239248
0.7214996814727783	66824.31749783503
0.723771870136261	59595.21314135893
0.7260559797286987	52142.23138617564
0.7283523678779602	45682.30675261865
0.7306615710258484	39979.78379163897
0.7329838871955872	34868.506483820674
0.7353196740150452	30208.658910539976
0.7376693487167358	25635.519271767855
0.7400332689285278	21383.465513228744
0.7424117922782898	17636.214191029638
0.7448052167892456	14420.914044168374
0.7472138404846191	11686.143983670703
0.7496379613876343	9366.873302609547
0.7520779371261597	7449.6851615824335
0.7545340061187744	5898.968869304448
0.7570064663887024	4643.637911926247
0.7594954967498779	3579.741362447998
0.7620013952255249	2553.1231246867364
0.7645244002342224	1502.29075334796
0.7670646905899048	790.0837934992564
0.7696225643157959	868.7488064306835
0.7721980810165405	1870.05964180436
0.7747915983200073	3449.567644405894
0.7774031162261963	4966.722300185484
0.7800329327583313	6669.213049009575
0.7826811671257019	9626.888772114371
0.7853479981422424	13789.82411191109
0.7880334854125977	18739.478564172303
0.7907378077507019	23599.1740522967
0.7934610247612	27261.103344506955
0.7962033748626709	35874.70065307176
0.7989648580551147	52602.26317324981
0.801745593547821	71104.21618216591
0.8045456409454346	89976.12514610494
0.8073651194572449	110563.9195413338
0.8102040886878967	132180.82634101275
0.8130625486373901	156951.16334964402
0.8159406185150146	189536.72684341524
0.8188382983207703	229604.98374073865
0.8217556476593018	273070.89062299364
0.8246926665306091	324008.7063594313
0.8276493549346924	383265.1978007043
0.8306257724761963	445615.82252883347
0.8336219191551208	513414.1830704324
0.8366377949714661	589015.3462182541
0.8396733403205872	674070.3529069405
0.8427285552024841	771474.8972750221
0.8458034992218018	873550.7878232754
0.8488980531692505	925703.6597043992
0.8520121574401855	958424.0644484274
0.8551458716392517	1136551.1520081747
0.8582990765571594	1359158.0035186976
0.8614717125892639	1440263.8103626107
0.8646637797355652	1498675.973140791
0.8678751587867737	1639623.5822640506
0.8711057901382446	1802949.644917936
0.8743556141853333	1964929.6538312081
0.87762451171875	2103876.3646917567
0.8809124231338501	2132047.4736216357
0.8842192888259888	2092043.5906261064
0.8875449895858765	2072606.9982849206
0.8908893465995789	1966991.858463364
0.894252359867096	1869064.6520671677
0.8976338505744934	2235963.003827738
0.9010337591171265	3002123.812538112
0.9044519662857056	3728981.274856384
0.9078882932662964	4197820.047687186
0.9113426208496094	4394243.921144513
0.914814829826355	4479577.676097774
0.9183048605918884	4680355.654175061
0.9218124747276306	4842691.951436064
0.925337553024292	4179745.548276686
0.9288799166679382	2901465.2434796076
0.9324395060539246	2302365.3199805142
0.9360161423683167	2594033.487449544
0.9396095871925354	3169417.5848934613
0.943219780921936	3563896.8710279176
0.9468464851379395	3670704.5836527376
0.9504896402359009	3713857.8653924344
0.9541489481925964	3713294.0571899354
0.9578243494033813	3623166.8010096145
0.9615156054496765	3697957.323509246
0.9652225375175476	4130407.4757354287
0.9689450263977051	4691821.1608632635
0.9726828336715698	5085128.217619924
0.9764357805252075	5419686.843255648
0.9802037477493286	5780361.805253032
0.983986496925354	6085322.112241829
0.9877838492393494	6496902.1838401705
0.9915955662727356	7054716.483623089
0.9954215884208679	7481332.658058301
0.9992615580558777	7614219.195501373
1.0031154155731201	7976012.525113938
1.0069829225540161	8813285.651400566
1.0108637809753418	9828263.186159419
1.0147579908370972	11013013.902483197
1.018665075302124	12288617.571910052
1.022585153579712	13432937.069154076
1.0265177488327026	14428093.099474711
1.0304628610610962	15516887.527471667
1.0344202518463135	16808285.705850713
1.0383895635604858	18060969.450108573
1.0423706769943237	19055492.333592266
1.0463634729385376	19799190.91654472
1.0503677129745483	20385218.77502056
1.0543830394744873	20989114.072526183
1.058409333229065	21619752.091599185
1.0624464750289917	22285267.517198306
1.0664942264556885	22929997.30219352
1.0705522298812866	23479910.807871934
1.0746204853057861	24153697.382687125
1.0786986351013184	24750176.392217968
1.0827864408493042	24630764.12880359
1.086883783340454	22556955.44800078
1.0909905433654785	18048667.406550124
1.0951062440872192	13164168.397312608
1.0992310047149658	9787940.109183686
1.10336434841156	7495618.903925831
1.1075061559677124	5658107.3363098735
1.1116561889648438	4280399.549714272
1.115814208984375	3521089.2922987323
1.1199802160263062	3354616.037531087
1.124153733253479	3571420.906158162
1.1283347606658936	3713618.3025097824
1.1325229406356812	3236373.0290180286
1.1367181539535522	3136039.144318088
1.1409201622009277	3841719.394862285
1.145128846168518	4274090.261068423
1.1493438482284546	4204093.455761472
1.1535650491714478	3857882.4972907156
1.1577922105789185	3633106.884150164
1.1620250940322876	3572717.126031031
1.1662636995315552	3615841.1829101774
1.170507550239563	4132969.5770910433
1.174756646156311	4889795.4076289935
1.1790107488632202	5917740.8689204985
1.1832695007324219	7458055.609215388
1.1875330209732056	9055380.608991534
1.191800832748413	10876075.421376605
1.1960728168487549	13020461.198288873
1.2003488540649414	15003564.371718263
1.2046287059783936	17013634.605532598
1.2089121341705322	18893431.049406633
1.2131990194320679	20511672.06060372
1.2174891233444214	22225346.977115653
1.2217823266983032	23951913.703765254
1.2260783910751343	25803613.437930655
1.230377197265625	27697348.98488982
1.2346785068511963	29192921.087522388
1.238982081413269	29690904.426018305
1.2432878017425537	29556071.408864275
1.2475954294204712	29644043.412517816
1.2519049644470215	29521451.933958735
1.256216049194336	31648320.853323806
1.2605286836624146	34898592.79528699
1.2648425102233887	35350449.076435365
1.2691574096679688	34386504.67403833
1.2734732627868652	33343450.965814326
1.2777899503707886	32348083.33461132
1.2821072340011597	30822956.457845274
1.2864248752593994	28445302.933349665
1.2907428741455078	26577006.64451396
1.2950609922409058	25907825.727504343
1.2993791103363037	25205314.063838147
1.303696870803833	23987560.270797774
1.3080145120620728	22538385.334469486
1.3123314380645752	20557450.962988958
1.3166478872299194	18782360.80324007
1.3209635019302368	17486594.852972433
1.3252781629562378	14904681.763918694
1.3295916318893433	9984930.105555719
1.3339040279388428	4892930.203716559
1.3382149934768677	2150433.9554018048
1.3425244092941284	1216272.290186033
1.3468321561813354	807853.6328635409
1.3511382341384888	571111.2599819461
1.3554422855377197	436892.9859699091
1.3597444295883179	417866.57866045926
1.3640443086624146	516211.8087592483
1.3683418035507202	598337.9171605222
1.3726370334625244	652522.4091005777
1.3769296407699585	759880.5002489206
1.381219506263733	773725.3945162635
1.3855066299438477	717653.574763284
1.3897908926010132	718486.3018491018
1.3940720558166504	704982.81461593
1.3983501195907593	679135.4443924237
1.4026249647140503	685268.0743905258
1.4068963527679443	669268.5602133041
1.4111642837524414	663010.1025626602
1.4154287576675415	709818.5261176453
1.419689416885376	717294.2107829951
1.4239463806152344	727086.5073683651
1.4281994104385376	853540.9482791754
1.4324485063552856	1008853.759699634
1.436693549156189	1109953.4368897227
1.440934419631958	1206529.2527407324
1.4451709985733032	1370950.4086398112
1.449403166770935	1738151.8906257388
1.453631043434143	2189915.419999901
1.4578542709350586	2480450.9780073045
1.4620729684829712	2574481.3584963195
1.4662868976593018	2545969.593204732
1.4704961776733398	2485180.61412934
1.4747005701065063	2580946.456534992
1.4788999557495117	2824058.1200347547
1.4830944538116455	3003600.629351576
1.4872838258743286	3186666.00952477
1.491468071937561	3436039.8557896754
1.4956470727920532	3754402.2722481447
1.4998208284378052	4148124.2057644813
1.5039892196655273	4511321.716061167
1.5081522464752197	4910769.856494957
1.5123097896575928	5378107.738569615
1.5164618492126465	5775162.692929423
1.5206083059310913	6298542.287940854
1.5247491598129272	6977664.1286416
1.5288842916488647	7643345.738391624
1.5330137014389038	8338540.647731119
1.5371372699737549	8923271.630175669
1.541254997253418	9445763.612738434
1.545366883277893	10241135.520549104
1.5494728088378906	10961997.794817362
1.5535727739334106	11255896.918113533
1.5576666593551636	11769119.610573575
1.561754584312439	13127156.899821214
1.5658363103866577	14742794.146740405
1.5699119567871094	15574765.694547938
1.5739814043045044	15855811.299806116
1.5780447721481323	16293860.91618405
1.582101821899414	16719375.644104254
1.5861525535583496	16728611.879909772
1.5901970863342285	16232817.14220162
1.5942351818084717	15550794.270056441
1.5982669591903687	14747866.49697441
1.6022924184799194	13457192.508218048
1.606311559677124	11994338.233582318
1.6103241443634033	10831847.153461397
1.6143304109573364	9583528.216595186
1.6183301210403442	8396510.655812254
1.6223233938217163	8107842.94870475
1.6263102293014526	8497601.723002786
1.6302905082702637	8961809.726804985
1.634264349937439	9822841.905968556
1.638231635093689	11187454.540213319
1.6421923637390137	11602503.097710852
1.646146535873413	10485464.319451854
1.6500942707061768	10121690.858139446
1.6540353298187256	9979963.288537344
1.6579699516296387	9166628.505970864
1.661897897720337	8799996.51473153
1.6658192873001099	6085145.018339978
1.6697341203689575	3008802.053016071
1.6736423969268799	3832054.3781825835
1.677544116973877	5538371.404489783
1.6814392805099487	5611750.897454727
1.6853278875350952	5039411.901976145
1.6892099380493164	4393963.487874971
1.6930854320526123	3636407.7975731483
1.696954369544983	2996257.2308595227
1.7008168697357178	2660998.107180826
1.7046726942062378	2787313.0858064247
1.708522081375122	3398494.2580422945
1.712364912033081	3965031.864810805
1.7162011861801147	4379761.873277344
1.7200311422348022	4711804.4035077095
1.723854422569275	4526437.055889436
1.7276713848114014	4155703.76946329
1.731481909751892	3920585.5254327278
1.7352858781814575	3861375.9905744633
1.7390835285186768	4160094.1555168736
1.7428747415542603	4568668.332860512
1.7466596364974976	4793449.001997594
1.7504380941390991	4731588.879194514
1.7542102336883545	4302451.57816482
1.7579760551452637	3826920.2817657753
1.7617355585098267	3604589.2784012216
1.7654887437820435	3403491.292093905
1.7692357301712036	3067976.238271819
1.7729763984680176	2787579.5561080766
1.776710867881775	2797636.331323469
1.7804391384124756	2919332.342951549
1.7841613292694092	2727799.4404278905
1.7878772020339966	2423576.597659461
1.7915871143341064	2101646.173141869
1.7952908277511597	1959505.6777975177
1.7989884614944458	2059290.504412194
1.8026801347732544	1896138.8498793899
1.806365728378296	1769167.9769645708
1.8100452423095703	1881644.1537957399
1.8137187957763672	2002789.3929050239
1.817386507987976	1890600.4252055404
1.8210482597351074	1876725.264675906
1.8247040510177612	2152645.329310669
1.828354001045227	2043284.038874661
1.8319982290267944	1709630.6177000434
1.8356364965438843	1520327.3226126123
1.8392690420150757	1514053.232570961
1.8428958654403687	1717281.8835676701
1.8465168476104736	1752708.5096924333
1.8501322269439697	1686729.2916302916
1.8537418842315674	1657628.0308685056
1.8573459386825562	1434067.8252851556
1.860944390296936	1195261.2932049679
1.864537239074707	1102338.3612629182
1.8681244850158691	1063394.1179519186
1.871706247329712	1163360.5495196322
1.8752825260162354	1529332.2811541883
1.8788533210754395	2117203.4808912072
1.8824186325073242	2584562.1333695143
1.8859784603118896	2705187.74479171
1.8895330429077148	2707692.2109194696
1.8930821418762207	2945588.485064762
1.8966259956359863	3140756.61327304
1.9001644849777222	2843164.859040131
1.9036977291107178	2575734.9756880268
1.9072256088256836	2736785.8011182803
1.9107483625411987	2730787.293334615
1.9142658710479736	2546599.819008061
1.9177782535552979	2621913.439447185
1.9212853908538818	2568117.4077065103
1.9247875213623047	2315502.632673518
1.9282845258712769	2056233.4453064643
1.9317764043807983	1816975.0590456245
1.9352631568908691	1645032.2146846242
1.9387450218200684	1494851.0690914483
1.942221760749817	1607307.7347408829
1.9456936120986938	1838442.4981071772
1.9491604566574097	1933805.0848117608
1.952622413635254	1929797.7673534635
1.956079363822937	1870019.6599712132
1.959531545639038	1958119.694862282
1.962978720664978	2122187.296306401
1.966421127319336	2319838.9173154505
1.9698586463928223	2485655.5602370636
1.9732913970947266	2496343.8034411846
1.9767193794250488	2608192.134866759
1.9801424741744995	2756808.1383806807
1.9835609197616577	2923136.387989448
1.9869745969772339	3142310.2868591077
1.990383505821228	3296024.429587618
1.9937876462936401	3697017.3545178627
1.9971871376037598	4062504.4780217083
2.000581979751587	4250774.536770996
2.003972291946411	4425178.291994717
2.007357597351074	4444545.792242647
2.0107386112213135	4674789.297010513
2.0141148567199707	4964990.940016927
2.017486572265625	4972884.732202504
2.0208535194396973	5437058.554303278
2.0242159366607666	6120555.620612735
2.027573823928833	6151017.622580074
2.0309269428253174	6262846.392591843
2.034275770187378	6875615.805944058
2.0376198291778564	7233517.680083835
2.040959596633911	7245968.220119783
2.044294595718384	7671326.744368531
2.0476250648498535	8391936.453890448
2.0509510040283203	8531376.991749337
2.054272413253784	8551708.831425425
2.057589530944824	9190347.478317285
2.0609018802642822	9534641.049332252
2.0642096996307373	9521221.912180081
2.0675129890441895	9785435.100330645
2.0708119869232178	9954987.92259922
2.074106216430664	9977565.592711154
2.0773961544036865	10001566.669014629
2.080681324005127	10068194.608662121
2.0839622020721436	10116374.824351836
2.087238311767578	10159433.074565757
2.090510129928589	10281487.794910721
2.0937774181365967	10263382.441282714
2.0970399379730225	10085068.556967795
2.1002981662750244	9810670.775860695
2.1035518646240234	9538239.11904428
2.1068007946014404	9278421.222999498
2.1100454330444336	9008535.932222208
2.1132853031158447	8913633.462317578
2.116520881652832	8689860.801748037
2.1197516918182373	8386853.945619422
2.1229779720306396	8310767.424098156
2.12619948387146	8206662.968342831
2.1294167041778564	7993178.000017267
2.132629156112671	7864230.040544231
2.1358368396759033	7683988.938502837
2.139039993286133	7176551.370094428
2.1422386169433594	6368375.216094627
2.145432472229004	5650433.284136758
2.1486217975616455	5439330.579116236
2.151806354522705	5438481.934632314
2.1549863815307617	5300317.007783456
2.1581614017486572	5030492.815357243
2.16133189201355	4665629.724581395
2.1644976139068604	4338449.285973698
2.167658567428589	4043370.7889413224
2.1708147525787354	3868403.3885200312
2.173966407775879	3738879.7152116285
2.1771130561828613	3503152.689417127
2.1802549362182617	3289129.5753745073
2.183391809463501	3034171.632622959
2.1865241527557373	2709947.812427418
2.1896514892578125	2335708.698472249
2.1927738189697266	1867834.1252244392
2.1958916187286377	1328373.276205073
2.1990041732788086	820015.1322640879
2.2021119594573975	523021.0364655179
2.2052149772644043	458651.25446706975
2.208312749862671	542277.8509988454
2.2114057540893555	720036.83178702
2.214493751525879	915184.3307982567
2.217576742172241	1048915.72425901
2.2206547260284424	1085520.6748342812
2.2237277030944824	1034591.9338990638
2.2267956733703613	936781.1266580955
2.2298583984375	843091.0295611583
2.2329163551330566	784269.8549222237
2.235969066619873	738875.294991979
2.2390167713165283	661219.841604963
2.2420592308044434	580337.9516503916
2.2450966835021973	517336.30274255096
2.248128890991211	468638.37408073264
2.2511560916900635	444512.504796321
2.254178285598755	433025.15782866627
2.257194995880127	432119.2230225733
2.260206699371338	440383.75537917076
2.2632133960723877	454551.0637694427
2.266214609146118	463806.4667959435
2.2692108154296875	463633.0610824413
2.2722020149230957	459581.0020216723
2.2751877307891846	443372.1054328186
2.278168201446533	429753.82289288874
2.2811436653137207	405927.9811434472
2.284113883972168	350869.9955534065
2.287078857421875	302413.12852285407
2.290038824081421	270132.97995882184
2.2929933071136475	249170.25743710317
2.295942783355713	256818.10134822413
2.298887014389038	300013.7160980583
2.301826238632202	353971.5247404003
2.304760217666626	436505.08097502147
2.3076889514923096	617495.3405164367
2.310612440109253	852021.3131362352
2.3135311603546143	907901.3788494039
2.3164443969726562	619825.0579926053
2.319352865219116	300338.8012991522
2.322256088256836	214610.57487951143
2.3251543045043945	208318.57959147554
2.328047275543213	208542.48995357554
2.330935478210449	236591.55327148922
2.3338186740875244	271551.85762122064
2.3366971015930176	301153.4297205961
2.3395702838897705	321959.92513093905
2.3424389362335205	321500.9944107976
2.3453025817871094	295845.71403518395
2.348161458969116	284660.7607486329
2.351015567779541	309757.1098317468
2.353865146636963	345924.47072614013
2.3567099571228027	386127.2304243131
2.3595502376556396	444919.1465637149
2.3623859882354736	514702.34058630926
2.3652172088623047	566244.8390660477
2.368043899536133	527621.4248988669
2.370866537094116	366656.65819126635
2.3736846446990967	265155.8513945486
2.3764986991882324	282586.31594082975
2.3793084621429443	284029.44359295507
2.3821144104003906	266831.5404671347
2.384916305541992	317753.8801518759
2.387714147567749	430053.29223051615
2.3905084133148193	482624.5870620989
2.393299102783203	475290.9216680331
2.3960859775543213	502307.20827531937
2.398869514465332	572482.1764940247
2.4016497135162354	655695.9782041558
2.4044265747070312	742723.5916562246
2.407200336456299	787510.4637213525
2.409970998764038	822930.5001055067
2.4127390384674072	887030.8179571205
2.415503978729248	877437.5403938183
2.418266534805298	820285.7812229763
2.4210267066955566	788657.7978221412
2.4237842559814453	718944.4330584091
2.426539897918701	682198.7622428386
2.429293394088745	776006.7759409648
2.4320452213287354	870081.5780303124
2.4347951412200928	859486.303615772
2.4375438690185547	920802.9784124361
2.440291166305542	1064142.5837247344
2.443037271499634	1090170.874028939
2.445782423019409	1052458.270361099
2.4485268592834473	1052543.4201998785
2.451270818710327	1071340.3496154307
2.454014539718628	1125265.934587487
2.4567582607269287	1246045.885745788
2.4595019817352295	1326702.673107691
2.4622461795806885	1419053.9568750996
2.4649908542633057	1548478.034051009
2.4677364826202393	1472421.4125319275
2.4704833030700684	1319809.4785680696
2.473231554031372	1281685.8324091642
2.4759814739227295	1348791.2718911008
2.4787333011627197	1423183.4587732332
2.481487512588501	1441543.227584619
