#wavelength	surface flux
0.6450077295303345	762.532125212341
0.6472567915916443	1195.5192873042577
0.6494921445846558	1548.9257351583403
0.6517150402069092	1763.7274570854374
0.6539263725280762	1983.904312986247
0.6561272740364075	2217.532464940906
0.6583186388015747	2466.2614758927753
0.6605015397071838	2733.697971786185
0.6626768708229065	3015.570324042417
0.6648455858230591	3306.1723480838623
0.6670085787773132	3554.8901608256947
0.6691668033599854	3621.399882493818
0.6713210344314575	3748.1548900491216
0.6734722256660461	4260.636472822427
0.6756211519241333	4794.478148523962
0.6777685880661011	5120.505871785778
0.6799154281616211	5392.788280670354
0.6820623278617859	5639.946639841318
0.6842101216316223	5859.34323955249
0.6863595843315125	6045.231636952773
0.688511312007904	6179.2782436762345
0.6906660795211792	6208.906592172542
0.6928245425224304	6166.748189139666
0.6949873566627502	6211.996903798631
0.6971551775932312	6318.138688310311
0.6993286609649658	6320.664449505902
0.7015084028244019	6232.384215808657
0.7036949396133423	6134.578207027642
0.7058889269828796	6033.6416599498725
0.7080909013748169	5915.224276169907
0.710301399230957	5773.289717427105
0.712520956993103	5593.5149834239555
0.7147500514984131	5304.000398461868
0.7169892191886902	4892.630311562226
0.7192389369010925	4576.56277474758
0.7214996814727783	4400.632469859102
0.723771870136261	4177.753089816576
0.7260559797286987	3925.123691019081
0.7283523678779602	3720.300002735279
0.7306615710258484	3556.892613176096
0.7329838871955872	3460.17239520816
0.7353196740150452	3377.342093029426
0.7376693487167358	3243.67584918024
0.7400332689285278	3097.034420303297
0.7424117922782898	2953.326570397543
0.7448052167892456	2802.8883951994117
0.7472138404846191	2637.131111958959
0.7496379613876343	2452.2235355301873
0.7520779371261597	2247.9044293205698
0.7545340061187744	2023.4782479915193
0.7570064663887024	1777.696523311554
0.7594954967498779	1492.9739168991484
0.7620013952255249	1128.559014722526
0.7645244002342224	693.532617338587
0.7670646905899048	384.4853684490009
0.7696225643157959	422.5709134866481
0.7721980810165405	863.7354605294464
0.7747915983200073	1518.0589524355535
0.7774031162261963	2030.3930326149832
0.7800329327583313	2450.379563298793
0.7826811671257019	3195.9164785006433
0.7853479981422424	4133.43221427902
0.7880334854125977	4970.287316318766
0.7907378077507019	5612.813116743638
0.7934610247612	5913.212397574812
0.7962033748626709	6766.160907216159
0.7989648580551147	8565.065908582936
0.801745593547821	10314.053862225912
0.8045456409454346	11833.838009593468
0.8073651194572449	13338.789216426127
0.8102040886878967	14645.438068194473
0.8130625486373901	15903.56806808812
0.8159406185150146	17858.717186851874
0.8188382983207703	20679.324705773368
0.8217556476593018	23462.324719867636
0.8246926665306091	26524.922421310654
0.8276493549346924	30249.337756882138
0.8306257724761963	33945.962407973704
0.8336219191551208	37920.13498506389
0.8366377949714661	42576.194651637634
0.8396733403205872	47829.709234747264
0.8427285552024841	53731.892855501676
0.8458034992218018	60155.20504377332
0.8488980531692505	65177.77097163452
0.8520121574401855	69610.09719076766
0.8551458716392517	79247.9594064514
0.8582990765571594	91290.95019102994
0.8614717125892639	100567.04200704653
0.8646637797355652	109833.45673370747
0.8678751587867737	121063.71324056016
0.8711057901382446	133542.82709605963
0.8743556141853333	145758.9586406966
0.87762451171875	154673.81786445234
0.8809124231338501	155088.11514427356
0.8842192888259888	149975.38987173775
0.8875449895858765	147202.67615752175
0.8908893465995789	141912.63634951357
0.894252359867096	135505.68402287798
0.8976338505744934	155029.4589474607
0.9010337591171265	206265.54434147745
0.9044519662857056	260830.65903804274
0.9078882932662964	292434.6008993608
0.9113426208496094	302526.4754884959
0.914814829826355	308534.65898595325
0.9183048605918884	325677.4555148592
0.9218124747276306	340790.3693311056
0.925337553024292	287602.00725271704
0.9288799166679382	170775.0210772596
0.9324395060539246	104199.99763389642
0.9360161423683167	131890.20586517017
0.9396095871925354	193565.58829500354
0.943219780921936	215500.49970603935
0.9468464851379395	198636.81793428533
0.9504896402359009	190892.03084363235
0.9541489481925964	188455.64291973633
0.9578243494033813	184946.03990594108
0.9615156054496765	202649.87008690907
0.9652225375175476	263666.95113488677
0.9689450263977051	348976.0692694316
0.9726828336715698	406766.5023982164
0.9764357805252075	442760.5798353595
0.9802037477493286	484951.0742550309
0.983986496925354	530074.1341692224
0.9877838492393494	588224.9866833067
0.9915955662727356	673965.9621869033
0.9954215884208679	785238.9376665038
0.9992615580558777	916836.4082952907
1.0031154155731201	1056519.7709045843
1.0069829225540161	1168081.4676909563
1.0108637809753418	1230493.9094523157
1.0147579908370972	1254216.1118859793
1.018665075302124	1260836.9006676658
1.022585153579712	1299547.099354376
1.0265177488327026	1387937.2363566735
1.0304628610610962	1456651.9637988415
1.0344202518463135	1489991.770339201
1.0383895635604858	1567403.0205881402
1.0423706769943237	1682904.6585486364
1.0463634729385376	1778757.152412832
1.0503677129745483	1865022.5809827542
1.0543830394744873	1957878.9342894943
1.058409333229065	2031918.1041702554
1.0624464750289917	2073862.1117649754
1.0664942264556885	2085586.2676667206
1.0705522298812866	2070057.4001093474
1.0746204853057861	2059369.9634174989
1.0786986351013184	2057431.5881018592
1.0827864408493042	2025251.1499366905
1.086883783340454	1894288.642424115
1.0909905433654785	1613343.9704343425
1.0951062440872192	1243932.8878593247
1.0992310047149658	890901.0506496965
1.10336434841156	595379.044896466
1.1075061559677124	374289.02504876134
1.1116561889648438	227000.23741128264
1.115814208984375	151192.44114756543
1.1199802160263062	140167.40739794215
1.124153733253479	165644.36210682482
1.1283347606658936	188340.48044513544
1.1325229406356812	178761.88605930115
1.1367181539535522	213860.1457112543
1.1409201622009277	288477.20373182534
1.145128846168518	289178.84082611266
1.1493438482284546	242844.21918403756
1.1535650491714478	198770.90992756677
1.1577922105789185	175710.25466694435
1.1620250940322876	184532.81715735066
1.1662636995315552	223574.98613597223
1.170507550239563	318950.4108804399
1.174756646156311	460697.26007949683
1.1790107488632202	628655.2339332765
1.1832695007324219	804652.7094645931
1.1875330209732056	959977.2348360583
1.191800832748413	1115221.795487092
1.1960728168487549	1286762.3530008846
1.2003488540649414	1451828.2092096158
1.2046287059783936	1612977.7945670243
1.2089121341705322	1745654.6245714533
1.2131990194320679	1851261.3212244438
1.2174891233444214	1972914.8598829187
1.2217823266983032	2114929.198884325
1.2260783910751343	2302597.292217612
1.230377197265625	2527104.1195734674
1.2346785068511963	2740062.6003496177
1.238982081413269	2941832.2642330965
1.2432878017425537	3143265.4270376144
1.2475954294204712	3313252.8823818774
1.2519049644470215	3429264.2914102757
1.256216049194336	3604841.651985512
1.2605286836624146	3839809.7436631625
1.2648425102233887	3970838.740803187
1.2691574096679688	3944407.445351507
1.2734732627868652	3773643.741294001
1.2777899503707886	3510384.634016811
1.2821072340011597	3177184.0133908316
1.2864248752593994	2814412.3543677367
1.2907428741455078	2545708.103163903
1.2950609922409058	2411583.907243083
1.2993791103363037	2312524.216774475
1.303696870803833	2181537.84902938
1.3080145120620728	2037000.4954755593
1.3123314380645752	1822292.7492336468
1.3166478872299194	1634802.6388649114
1.3209635019302368	1555556.5402234104
1.3252781629562378	1357143.4311233608
1.3295916318893433	916831.9991314382
1.3339040279388428	454194.5991988319
1.3382149934768677	184537.67788673085
1.3425244092941284	69262.29383480168
1.3468321561813354	26815.210128982493
1.3511382341384888	13082.797156249291
1.3554422855377197	6395.02181471853
1.3597444295883179	4576.058854485039
1.3640443086624146	6666.116858355656
1.3683418035507202	9346.914986936146
1.3726370334625244	15349.025079452793
1.3769296407699585	23883.950344552744
1.381219506263733	21785.673179604735
1.3855066299438477	13952.763468156014
1.3897908926010132	12719.2749713007
1.3940720558166504	13845.09824435942
1.3983501195907593	15002.266745768895
1.4026249647140503	17286.121616829394
1.4068963527679443	18547.296473257484
1.4111642837524414	19437.78888515857
1.4154287576675415	21230.80789802749
1.419689416885376	22213.496801380756
1.4239463806152344	28241.65646678153
1.4281994104385376	46117.19142865496
1.4324485063552856	60267.35592133208
1.436693549156189	63779.25239940714
1.440934419631958	74938.90406320631
1.4451709985733032	103558.72951700051
1.449403166770935	151154.54274044474
1.453631043434143	201215.04047666118
1.4578542709350586	237527.5605903021
1.4620729684829712	234375.65328828924
1.4662868976593018	190300.77038989138
1.4704961776733398	140558.0364874311
1.4747005701065063	114861.47606493888
1.4788999557495117	120424.19709264794
1.4830944538116455	133086.97939005887
1.4872838258743286	140487.1827511609
1.491468071937561	147659.68736554286
1.4956470727920532	171556.2279062674
1.4998208284378052	221227.98008245247
1.5039892196655273	255418.37656273757
1.5081522464752197	233362.38317285202
1.5123097896575928	185363.64873400662
1.5164618492126465	192346.85771145145
1.5206083059310913	278814.10612287855
1.5247491598129272	374630.4674990093
1.5288842916488647	451327.90228342084
1.5330137014389038	520632.41232728085
1.5371372699737549	579332.4783867765
1.541254997253418	647008.9009639248
1.545366883277893	731387.1564495319
1.5494728088378906	830781.5838365563
1.5535727739334106	973433.6264013116
1.5576666593551636	1177109.1521340793
1.561754584312439	1456222.4169738675
1.5658363103866577	1780773.1997219468
1.5699119567871094	2023599.8594041227
1.5739814043045044	2167086.2286723275
1.5780447721481323	2316508.8695603083
1.582101821899414	2472217.46289566
1.5861525535583496	2566490.2688318156
1.5901970863342285	2571237.269090047
1.5942351818084717	2513804.2019481333
1.5982669591903687	2400275.518014808
1.6022924184799194	2193396.7623723843
1.606311559677124	1920617.1798375815
1.6103241443634033	1629928.9554469222
1.6143304109573364	1308803.8240239902
1.6183301210403442	1005103.1037397368
1.6223233938217163	811064.768964978
1.6263102293014526	711326.5972070019
1.6302905082702637	674638.8154899782
1.634264349937439	734108.1659595862
1.638231635093689	864875.3621517922
1.6421923637390137	929654.9432079758
1.646146535873413	861904.7250306928
1.6500942707061768	836494.1331586484
1.6540353298187256	865014.2279692709
1.6579699516296387	912121.5766102591
1.661897897720337	927842.7868729478
1.6658192873001099	597600.3302892421
1.6697341203689575	277744.1706488791
1.6736423969268799	370229.6994454921
1.677544116973877	505310.97137681284
1.6814392805099487	484849.33171158104
1.6853278875350952	431333.43649492034
1.6892099380493164	375741.5693535621
1.6930854320526123	301164.3310449268
1.696954369544983	236670.10471208568
1.7008168697357178	194365.05394189246
1.7046726942062378	194618.79997019464
1.708522081375122	268644.6650108941
1.712364912033081	375168.84331019176
1.7162011861801147	491376.25312011637
1.7200311422348022	572515.8860545104
1.723854422569275	538535.9752146302
1.7276713848114014	491553.1780275374
1.731481909751892	498841.9396565236
1.7352858781814575	531083.4513965094
1.7390835285186768	599328.5695090644
1.7428747415542603	670971.7129556641
1.7466596364974976	700537.8206600031
1.7504380941390991	676085.400766005
1.7542102336883545	580176.2653209724
1.7579760551452637	473876.6960213105
1.7617355585098267	416552.9322474475
1.7654887437820435	370853.82335828984
1.7692357301712036	324096.28184361325
1.7729763984680176	279436.20709457266
1.776710867881775	257964.47176222465
1.7804391384124756	260132.68020050245
1.7841613292694092	228586.15515347276
1.7878772020339966	181859.88727423074
1.7915871143341064	142546.67307073454
1.7952908277511597	122153.98364706611
1.7989884614944458	127739.33933627697
1.8026801347732544	99192.32065758575
1.806365728378296	72055.21788998647
1.8100452423095703	75042.05441983181
1.8137187957763672	73743.74160677823
1.817386507987976	64858.482686705676
1.8210482597351074	76555.67159412582
1.8247040510177612	98081.36708793076
1.828354001045227	74707.73591357174
1.8319982290267944	42098.33436746842
1.8356364965438843	32544.07519624648
1.8392690420150757	34252.09896216502
1.8428958654403687	57970.74919799969
1.8465168476104736	73033.25077022077
1.8501322269439697	70758.07114618663
1.8537418842315674	67673.47855907152
1.8573459386825562	54923.930681979495
1.860944390296936	41383.17338872836
1.864537239074707	31615.656810464177
1.8681244850158691	21290.91345777415
1.871706247329712	19775.180875419035
1.8752825260162354	44882.060631383276
1.8788533210754395	98651.5029370936
1.8824186325073242	134699.23239846685
1.8859784603118896	127535.67659254705
1.8895330429077148	113361.78692844494
1.8930821418762207	130456.80149382546
1.8966259956359863	142773.8103584552
1.9001644849777222	99937.15564207332
1.9036977291107178	61309.44088952554
1.9072256088256836	62086.81043088548
1.9107483625411987	58301.668408512756
1.9142658710479736	46391.71786092769
1.9177782535552979	46547.65004616527
1.9212853908538818	46203.4690147074
1.9247875213623047	38322.402917266285
1.9282845258712769	30539.9977869536
1.9317764043807983	26010.172555370766
1.9352631568908691	23813.448721110744
1.9387450218200684	21399.62911657743
1.942221760749817	24507.658270724212
1.9456936120986938	30998.638903067964
1.9491604566574097	33383.773336445185
1.952622413635254	33024.29494607021
1.956079363822937	38888.50896067381
1.959531545639038	51202.76507110262
1.962978720664978	59054.23117116982
1.966421127319336	65344.04365055624
1.9698586463928223	66399.89672818391
1.9732913970947266	67766.77001193346
1.9767193794250488	84007.16873497012
1.9801424741744995	88026.43495061607
1.9835609197616577	87000.69538196358
1.9869745969772339	104640.572214133
1.990383505821228	120765.56896024453
1.9937876462936401	149261.8678434151
1.9971871376037598	188934.22572200804
2.000581979751587	204650.86458140414
2.003972291946411	200081.49618657556
2.007357597351074	204245.87452978632
2.0107386112213135	219435.7842246433
2.0141148567199707	215190.40364048257
2.017486572265625	186212.7088055031
2.0208535194396973	180914.66898534645
2.0242159366607666	213707.17732275737
2.027573823928833	238745.30448214503
2.0309269428253174	260585.98428094888
2.034275770187378	290355.0219269219
2.0376198291778564	305731.6195038397
2.040959596633911	321081.89451216307
2.044294595718384	366732.1433632496
2.0476250648498535	417389.853532471
2.0509510040283203	446350.1128609701
2.054272413253784	475829.5472875699
2.057589530944824	518311.615553067
2.0609018802642822	559164.3779229805
2.0642096996307373	591532.677122884
2.0675129890441895	621552.6363650202
2.0708119869232178	650169.9417666538
2.074106216430664	676739.2487943763
2.0773961544036865	697127.866759203
2.080681324005127	713400.361904688
2.0839622020721436	733367.017722678
2.087238311767578	750885.8275236544
2.090510129928589	764922.0756089124
2.0937774181365967	769875.4597023714
2.0970399379730225	764245.7818146391
2.1002981662750244	755906.7462333537
2.1035518646240234	751909.0963837709
2.1068007946014404	747088.5931485584
2.1100454330444336	734986.606184183
2.1132853031158447	728268.2387369336
2.116520881652832	713412.3629488422
2.1197516918182373	691985.7783202748
2.1229779720306396	677911.9497174943
2.12619948387146	663444.4399413458
2.1294167041778564	647632.8670550295
2.132629156112671	633394.499997415
2.1358368396759033	616938.559269473
2.139039993286133	590651.0690325212
2.1422386169433594	541765.3586385637
2.145432472229004	491245.4542932254
2.1486217975616455	464215.9162107624
2.151806354522705	443168.86497938517
2.1549863815307617	418207.1770493555
2.1581614017486572	391874.5860357004
2.16133189201355	354189.1102177269
2.1644976139068604	319350.08994030545
2.167658567428589	295258.3860662792
2.1708147525787354	276735.6113100302
2.173966407775879	264683.2819052171
2.1771130561828613	243699.49452367902
2.1802549362182617	220178.8626181553
2.183391809463501	203507.39403584623
2.1865241527557373	189845.3219443908
2.1896514892578125	162592.06661396852
2.1927738189697266	116694.57903744231
2.1958916187286377	70600.00494567017
2.1990041732788086	35537.98405344313
2.2021119594573975	19084.59099350132
2.2052149772644043	23785.116810917178
2.208312749862671	40371.13382544698
2.2114057540893555	52678.852730338454
2.214493751525879	55436.37725966743
2.217576742172241	56002.70934300302
2.2206547260284424	52638.3033867724
2.2237277030944824	46700.7378188999
2.2267956733703613	40282.964170432366
2.2298583984375	32191.21135302659
2.2329163551330566	30056.45633680513
2.235969066619873	30673.58518281059
2.2390167713165283	25722.361155632807
2.2420592308044434	21222.810347601568
2.2450966835021973	19076.623973653728
2.248128890991211	15627.507917104971
2.2511560916900635	13256.414855368965
2.254178285598755	11868.444854808602
2.257194995880127	10762.58283673205
2.260206699371338	10876.046515678121
2.2632133960723877	11474.271765202642
2.266214609146118	12527.71300378721
2.2692108154296875	14197.19615812469
2.2722020149230957	16168.225160485315
2.2751877307891846	16296.757479742326
2.278168201446533	15907.23377082954
2.2811436653137207	15468.51625817132
2.284113883972168	12767.198967105016
2.287078857421875	11088.70351829721
2.290038824081421	10490.067712481456
2.2929933071136475	9438.061099397102
2.295942783355713	9316.793521113312
2.298887014389038	10564.442871411304
2.301826238632202	12597.464229366755
2.304760217666626	17191.02955369172
2.3076889514923096	31333.15750692629
2.310612440109253	53521.827183631016
2.3135311603546143	57170.305415242285
2.3164443969726562	31218.324357695554
2.319352865219116	8884.75706771415
2.322256088256836	6559.8412073762065
2.3251543045043945	9286.67422147791
2.328047275543213	9826.7413560476
2.330935478210449	9742.530876543442
2.3338186740875244	10309.364387035323
2.3366971015930176	10448.068470544269
2.3395702838897705	10151.934493389066
2.3424389362335205	10479.097289560816
2.3453025817871094	10035.56287773701
2.348161458969116	9849.320622847548
2.351015567779541	11800.817842792583
2.353865146636963	14387.327451266323
2.3567099571228027	18241.54322582876
2.3595502376556396	25736.52664142201
2.3623859882354736	32695.306497150992
2.3652172088623047	32113.38261908738
2.368043899536133	23120.49797118342
2.370866537094116	11856.586387189484
2.3736846446990967	8104.972379025124
2.3764986991882324	12957.969611127444
2.3793084621429443	18161.708376175633
2.3821144104003906	18981.03572900271
2.384916305541992	20893.8972379141
2.387714147567749	27170.257783898436
2.3905084133148193	30431.22538467252
2.393299102783203	28589.368468596433
2.3960859775543213	28588.180734510395
2.398869514465332	35358.82027471241
2.4016497135162354	43709.6086616605
2.4044265747070312	46726.887951550176
2.407200336456299	46985.676363006074
2.409970998764038	58943.97776237967
2.4127390384674072	76501.27093962359
2.415503978729248	70507.01753653373
2.418266534805298	54860.80145423651
2.4210267066955566	53815.384532624776
2.4237842559814453	51039.00071957924
2.426539897918701	48844.32340422998
2.429293394088745	65772.95835884663
2.4320452213287354	81191.99027898743
2.4347951412200928	77422.7485836905
2.4375438690185547	87708.15840296297
2.440291166305542	113593.46801157984
2.443037271499634	117022.08858539637
2.445782423019409	103452.64378253627
2.4485268592834473	97420.9789078293
2.451270818710327	100494.22228517417
2.454014539718628	112697.82426111925
2.4567582607269287	132045.38175498004
2.4595019817352295	143911.96322204315
2.4622461795806885	157632.4166075404
2.4649908542633057	177732.00370274845
2.4677364826202393	168916.89125926467
2.4704833030700684	142596.0147363312
2.473231554031372	130601.77765205335
2.4759814739227295	134845.99603486882
2.4787333011627197	139323.16084719912
