#wavelength	surface flux
0.6450077295303345	1230.5689620993141
0.6472567915916443	1924.0851817404875
0.6494921445846558	2477.070302730374
0.6517150402069092	2798.756788922885
0.6539263725280762	3127.454956660853
0.6561272740364075	3477.1485134600457
0.6583186388015747	3847.442617522545
0.6605015397071838	4240.751583726583
0.6626768708229065	4652.210913050699
0.6648455858230591	5074.459186790239
0.6670085787773132	5434.099671772221
0.6691668033599854	5528.289793578155
0.6713210344314575	5709.805759371071
0.6734722256660461	6450.655969174104
0.6756211519241333	7223.035956269445
0.6777685880661011	7696.21128415522
0.6799154281616211	8093.9715442199895
0.6820623278617859	8458.18293695175
0.6842101216316223	8785.336899383798
0.6863595843315125	9067.188745402895
0.688511312007904	9278.088667084266
0.6906660795211792	9367.844735697117
0.6928245425224304	9382.886069412918
0.6949873566627502	9469.654517401166
0.6971551775932312	9591.39750130081
0.6993286609649658	9599.288554884175
0.7015084028244019	9503.360034626108
0.7036949396133423	9369.22706962345
0.7058889269828796	9204.68516867438
0.7080909013748169	9009.056680236143
0.710301399230957	8781.237554748983
0.712520956993103	8505.774814827715
0.7147500514984131	8116.689405721404
0.7169892191886902	7603.557787573878
0.7192389369010925	7170.9314923468055
0.7214996814727783	6862.753320757573
0.723771870136261	6504.611865408447
0.7260559797286987	6115.067962470946
0.7283523678779602	5768.405638132942
0.7306615710258484	5460.0642412670795
0.7329838871955872	5215.5436128020465
0.7353196740150452	4986.360023222331
0.7376693487167358	4712.831054866118
0.7400332689285278	4430.5335630438185
0.7424117922782898	4155.41883086446
0.7448052167892456	3880.36259574183
0.7472138404846191	3600.4406933074274
0.7496379613876343	3314.3262500457654
0.7520779371261597	3018.7208301991063
0.7545340061187744	2705.5689916939696
0.7570064663887024	2368.0082955413295
0.7594954967498779	1987.486025747212
0.7620013952255249	1511.301957818786
0.7645244002342224	939.4760433051197
0.7670646905899048	529.596669594747
0.7696225643157959	580.543951214898
0.7721980810165405	1162.3646751896435
0.7747915983200073	2013.2282255913374
0.7774031162261963	2669.208034821807
0.7800329327583313	3216.376551268329
0.7826811671257019	4208.48740118297
0.7853479981422424	5460.34886397811
0.7880334854125977	6588.0978137866305
0.7907378077507019	7476.633072913717
0.7934610247612	7939.775484290477
0.7962033748626709	9174.328865786274
0.7989648580551147	11712.4446273607
0.801745593547821	14230.538686467651
0.8045456409454346	16480.621394545815
0.8073651194572449	18806.10051418964
0.8102040886878967	21071.271878676856
0.8130625486373901	23408.609407891425
0.8159406185150146	26498.542154786777
0.8188382983207703	30511.999869220257
0.8217556476593018	34614.737605436065
0.8246926665306091	39104.83018479831
0.8276493549346924	44342.008272783925
0.8306257724761963	49680.56472718713
0.8336219191551208	55421.64563194256
0.8366377949714661	61946.85524466833
0.8396733403205872	69170.64637446107
0.8427285552024841	77193.71289522713
0.8458034992218018	85868.59959115801
0.8488980531692505	92848.2372801908
0.8520121574401855	99263.81065143486
0.8551458716392517	112303.17931052564
0.8582990765571594	128619.9114510879
0.8614717125892639	141832.9360065678
0.8646637797355652	154799.09577487508
0.8678751587867737	169531.99162681663
0.8711057901382446	185420.11473396164
0.8743556141853333	201297.53780472954
0.87762451171875	214769.9323817719
0.8809124231338501	221396.3433880366
0.8842192888259888	223279.05406358922
0.8875449895858765	226501.6757252926
0.8908893465995789	224566.10657729316
0.894252359867096	220428.14252289868
0.8976338505744934	246824.77525228675
0.9010337591171265	306695.47682366596
0.9044519662857056	366984.56935879495
0.9078882932662964	405154.2372351505
0.9113426208496094	423931.72398770205
0.914814829826355	439092.3360597455
0.9183048605918884	463819.7349990472
0.9218124747276306	484412.08204571385
0.925337553024292	427946.37402165076
0.9288799166679382	289244.01783391286
0.9324395060539246	207185.52068026926
0.9360161423683167	255308.70821723426
0.9396095871925354	352253.18891091534
0.943219780921936	385241.11722476105
0.9468464851379395	362448.16373250505
0.9504896402359009	358840.56099990977
0.9541489481925964	363536.3718492519
0.9578243494033813	364590.9782855382
0.9615156054496765	394930.8792577212
0.9652225375175476	480873.530089966
0.9689450263977051	596962.4242062459
0.9726828336715698	680984.6554651571
0.9764357805252075	736582.647730992
0.9802037477493286	797474.5130551945
0.983986496925354	863190.4111639931
0.9877838492393494	942592.7103628385
0.9915955662727356	1046621.8264852504
0.9954215884208679	1167529.6305438804
0.9992615580558777	1296821.0891385276
1.0031154155731201	1426539.2902913035
1.0069829225540161	1527999.9795724123
1.0108637809753418	1582432.236293059
1.0147579908370972	1599722.576611661
1.018665075302124	1603319.5054827658
1.022585153579712	1638382.1217983817
1.0265177488327026	1714930.956980124
1.0304628610610962	1774192.6786165838
1.0344202518463135	1808092.6159255016
1.0383895635604858	1881576.0573134494
1.0423706769943237	1988701.8539185475
1.0463634729385376	2083138.694900893
1.0503677129745483	2171113.144823927
1.0543830394744873	2260999.8416555948
1.058409333229065	2329739.0024623293
1.0624464750289917	2368654.6903074468
1.0664942264556885	2382619.282406884
1.0705522298812866	2372620.6250214665
1.0746204853057861	2362329.196882717
1.0786986351013184	2360418.6569897034
1.0827864408493042	2340281.147911666
1.086883783340454	2251400.3727976377
1.0909905433654785	2046304.2027105724
1.0951062440872192	1739595.4619149193
1.0992310047149658	1382533.2682655377
1.10336434841156	1015439.9625414647
1.1075061559677124	689110.4508564826
1.1116561889648438	442027.2395692314
1.115814208984375	308258.46249054663
1.1199802160263062	292645.11535965925
1.124153733253479	356427.1546146456
1.1283347606658936	414547.7380792531
1.1325229406356812	395292.1576788528
1.1367181539535522	455060.4878563742
1.1409201622009277	594201.4994412854
1.145128846168518	596759.838818696
1.1493438482284546	517100.5786259935
1.1535650491714478	445812.9340689757
1.1577922105789185	412554.0083335273
1.1620250940322876	443645.1364435767
1.1662636995315552	528674.174694135
1.170507550239563	694293.889247909
1.174756646156311	919871.6825148492
1.1790107488632202	1175540.0285859853
1.1832695007324219	1432743.3528502784
1.1875330209732056	1645585.9407220786
1.191800832748413	1832289.732460091
1.1960728168487549	2016658.3679411246
1.2003488540649414	2187239.3990189657
1.2046287059783936	2350369.3193563092
1.2089121341705322	2484807.141079254
1.2131990194320679	2594002.059567604
1.2174891233444214	2717519.9812069912
1.2217823266983032	2856940.125382504
1.2260783910751343	3033128.2743322426
1.230377197265625	3238763.577452464
1.2346785068511963	3428488.586089661
1.238982081413269	3600971.118895126
1.2432878017425537	3768631.4574470464
1.2475954294204712	3909559.1970191193
1.2519049644470215	4014171.451202453
1.256216049194336	4174826.2520880005
1.2605286836624146	4392803.450026012
1.2648425102233887	4545886.788359281
1.2691574096679688	4588122.674786998
1.2734732627868652	4514291.188917894
1.2777899503707886	4346796.8543705065
1.2821072340011597	4102083.2811165703
1.2864248752593994	3821583.017184495
1.2907428741455078	3604277.2795980154
1.2950609922409058	3483663.2907315264
1.2993791103363037	3386510.0842091935
1.303696870803833	3259283.621301005
1.3080145120620728	3110470.294923221
1.3123314380645752	2877776.293032613
1.3166478872299194	2656440.713058601
1.3209635019302368	2523135.473473208
1.3252781629562378	2226712.0666691414
1.3295916318893433	1586319.2846863049
1.3339040279388428	856817.5266144589
1.3382149934768677	371463.33693650266
1.3425244092941284	139667.89331624997
1.3468321561813354	55038.50885918582
1.3511382341384888	27392.605794769348
1.3554422855377197	14278.911739192177
1.3597444295883179	11637.817735641513
1.3640443086624146	17712.761974361765
1.3683418035507202	25276.376713232556
1.3726370334625244	40569.52640855314
1.3769296407699585	61205.22472055325
1.381219506263733	54743.049778695895
1.3855066299438477	33767.386342123056
1.3897908926010132	29479.347422633116
1.3940720558166504	32113.010996088768
1.3983501195907593	36327.43022119199
1.4026249647140503	43166.52226928473
1.4068963527679443	45532.2245300783
1.4111642837524414	45737.024863521525
1.4154287576675415	48906.368989535695
1.419689416885376	51322.471229925664
1.4239463806152344	63215.38984419198
1.4281994104385376	96247.35557515347
1.4324485063552856	124126.55293197451
1.436693549156189	136900.42863309488
1.440934419631958	162871.194685943
1.4451709985733032	218932.76164088256
1.449403166770935	309644.3942172254
1.453631043434143	407352.2607599369
1.4578542709350586	485251.67464086786
1.4620729684829712	492676.3039806358
1.4662868976593018	420467.7487117005
1.4704961776733398	335278.69234030566
1.4747005701065063	296792.54286822287
1.4788999557495117	309519.3345673334
1.4830944538116455	331166.69442837866
1.4872838258743286	350796.99255475804
1.491468071937561	379508.0065137423
1.4956470727920532	440160.5571506224
1.4998208284378052	546751.0909714333
1.5039892196655273	625700.9763082091
1.5081522464752197	592257.8285002103
1.5123097896575928	504181.02451001626
1.5164618492126465	522898.80580149684
1.5206083059310913	685131.2950670526
1.5247491598129272	854303.3112848474
1.5288842916488647	987056.4716609918
1.5330137014389038	1109723.4780348924
1.5371372699737549	1217928.9605264433
1.541254997253418	1335659.171793425
1.545366883277893	1472490.919704331
1.5494728088378906	1627538.4526737763
1.5535727739334106	1829557.161914701
1.5576666593551636	2097957.3810241916
1.561754584312439	2445620.1668490293
1.5658363103866577	2832405.3421666073
1.5699119567871094	3126046.1197410766
1.5739814043045044	3306118.8243248356
1.5780447721481323	3476971.7474814467
1.582101821899414	3648195.073189235
1.5861525535583496	3757163.972293956
1.5901970863342285	3774377.384380679
1.5942351818084717	3726080.931865549
1.5982669591903687	3616145.89844369
1.6022924184799194	3398627.382077608
1.606311559677124	3088511.4308877885
1.6103241443634033	2731474.5341523215
1.6143304109573364	2325336.987176785
1.6183301210403442	1918206.057033077
1.6223233938217163	1609964.7635913023
1.6263102293014526	1405638.0330939482
1.6302905082702637	1293904.026683822
1.634264349937439	1335023.8470521907
1.638231635093689	1497137.7687758037
1.6421923637390137	1598831.857098523
1.646146535873413	1557694.7705179143
1.6500942707061768	1561578.1788557626
1.6540353298187256	1609698.6193094624
1.6579699516296387	1695045.7784825393
1.661897897720337	1673703.635802658
1.6658192873001099	1076892.554961759
1.6697341203689575	595347.8313336134
1.6736423969268799	848516.614037493
1.677544116973877	1134330.5474548934
1.6814392805099487	1108698.5435142154
1.6853278875350952	1001787.3292477479
1.6892099380493164	895384.7389447802
1.6930854320526123	765651.3773438608
1.696954369544983	648849.3830320059
1.7008168697357178	567820.8264642718
1.7046726942062378	564160.0690043693
1.708522081375122	698095.7092313027
1.712364912033081	887074.2741644161
1.7162011861801147	1081441.3329031412
1.7200311422348022	1221524.3921860699
1.723854422569275	1182754.122511969
1.7276713848114014	1115857.4608662734
1.731481909751892	1126295.015669874
1.7352858781814575	1165936.9776135057
1.7390835285186768	1243534.1757875492
1.7428747415542603	1318731.7794012749
1.7466596364974976	1328776.3157359366
1.7504380941390991	1262699.8104037168
1.7542102336883545	1103364.3071877155
1.7579760551452637	936889.4234748579
1.7617355585098267	835571.2542290239
1.7654887437820435	730174.3657247836
1.7692357301712036	628356.7163677387
1.7729763984680176	545791.5909761745
1.776710867881775	487284.02293036575
1.7804391384124756	461424.13277207396
1.7841613292694092	397045.215805123
1.7878772020339966	319777.9824396319
1.7915871143341064	258651.76837272747
1.7952908277511597	221303.96417578787
1.7989884614944458	219584.94318161835
1.8026801347732544	169139.75963870238
1.806365728378296	125808.18472605156
1.8100452423095703	131651.4966609309
1.8137187957763672	130795.23578804867
1.817386507987976	115180.57211272106
1.8210482597351074	130254.57538842433
1.8247040510177612	164445.21649788832
1.828354001045227	130807.96857501823
1.8319982290267944	81696.7086274165
1.8356364965438843	66725.75740182733
1.8392690420150757	68257.0143604543
1.8428958654403687	106789.35517943278
1.8465168476104736	132628.33400041275
1.8501322269439697	129735.57614346914
1.8537418842315674	122392.49317407329
1.8573459386825562	98834.60714067306
1.860944390296936	76961.84729697903
1.864537239074707	60920.718498239345
1.8681244850158691	42288.96602899759
1.871706247329712	40760.445264991205
1.8752825260162354	88382.25059613248
1.8788533210754395	184396.39192758838
1.8824186325073242	248381.19456649086
1.8859784603118896	238844.39443876033
1.8895330429077148	215899.11914610508
1.8930821418762207	243738.33576264462
1.8966259956359863	262290.2155678721
1.9001644849777222	187877.24630519448
1.9036977291107178	121838.58507075232
1.9072256088256836	124897.78649699109
1.9107483625411987	120023.9613804153
1.9142658710479736	98955.418745516
1.9177782535552979	99463.36242550853
1.9212853908538818	97133.00172186794
1.9247875213623047	80717.63631872936
1.9282845258712769	66397.3506111204
1.9317764043807983	58379.10778662902
1.9352631568908691	54183.27528967902
1.9387450218200684	48614.436114861
1.942221760749817	54462.55018086896
1.9456936120986938	67857.50131766923
1.9491604566574097	75822.52019530072
1.952622413635254	76977.3019268677
1.956079363822937	84790.20703787345
1.959531545639038	106105.34911872339
1.962978720664978	123852.02405069112
1.966421127319336	140478.51970859306
1.9698586463928223	144503.94573584778
1.9732913970947266	146302.89684264554
1.9767193794250488	174769.9224601596
1.9801424741744995	185706.32473907652
1.9835609197616577	194069.9788367287
1.9869745969772339	230679.91778319242
1.990383505821228	252787.37593381488
1.9937876462936401	293843.3835362153
1.9971871376037598	353564.5337425193
2.000581979751587	376488.8928059834
2.003972291946411	376424.64113270125
2.007357597351074	384653.3968471672
2.0107386112213135	409958.08107257
2.0141148567199707	413418.81588739227
2.017486572265625	374092.6561883747
2.0208535194396973	367311.14307571255
2.0242159366607666	416325.55782390595
2.027573823928833	449958.456064206
2.0309269428253174	478397.6734762067
2.034275770187378	524624.998534879
2.0376198291778564	556763.5877297446
2.040959596633911	585024.4914013854
2.044294595718384	647552.8874467374
2.0476250648498535	716403.4425001605
2.0509510040283203	757283.6956615874
2.054272413253784	795526.1712558254
2.057589530944824	847136.9774931034
2.0609018802642822	895619.8819636883
2.0642096996307373	931653.5760245172
2.0675129890441895	963496.9135201386
2.0708119869232178	993429.9982636415
2.074106216430664	1019342.6977398575
2.0773961544036865	1038333.8184757772
2.080681324005127	1053226.0027742104
2.0839622020721436	1070923.782724951
2.087238311767578	1086017.9082785673
2.090510129928589	1097280.1590985463
2.0937774181365967	1100002.9481311112
2.0970399379730225	1093316.9798950248
2.1002981662750244	1084240.6130508848
2.1035518646240234	1078802.24183537
2.1068007946014404	1072333.3814202514
2.1100454330444336	1059987.8726905575
2.1132853031158447	1053261.6617611903
2.116520881652832	1038624.1148492654
2.1197516918182373	1017757.9600105603
2.1229779720306396	1003863.6698708812
2.12619948387146	988952.6047739726
2.1294167041778564	971114.6690258689
2.132629156112671	952739.2559015217
2.1358368396759033	930711.8797077074
2.139039993286133	901257.6483466182
2.1422386169433594	851211.9997085927
2.145432472229004	797144.5994695999
2.1486217975616455	763687.481134589
2.151806354522705	736438.8688369757
2.1549863815307617	707846.1400824101
2.1581614017486572	675463.3801928512
2.16133189201355	625976.59815961
2.1644976139068604	579919.1506601614
2.167658567428589	546303.5277023757
2.1708147525787354	516933.0490963066
2.173966407775879	492093.53389217315
2.1771130561828613	454837.3607278581
2.1802549362182617	416134.0410758637
2.183391809463501	388760.53986043355
2.1865241527557373	365293.3245433843
2.1896514892578125	320250.8506254628
2.1927738189697266	246232.0546799835
2.1958916187286377	165493.6475928509
2.1990041732788086	94867.98930708774
2.2021119594573975	58747.85313775881
2.2052149772644043	68464.46051812798
2.208312749862671	103888.17729150917
2.2114057540893555	128972.42652756699
2.214493751525879	133902.819735746
2.217576742172241	135174.58981187057
2.2206547260284424	128800.01189721223
2.2237277030944824	118044.60495838386
2.2267956733703613	104957.33387716571
2.2298583984375	86925.4115968396
2.2329163551330566	82417.67887151016
2.235969066619873	84302.19649128905
2.2390167713165283	73589.58342597111
2.2420592308044434	63149.85013280987
2.2450966835021973	57713.80452973945
2.248128890991211	49376.20992952701
2.2511560916900635	43507.1606855798
2.254178285598755	39386.21356891158
2.257194995880127	35874.000515050575
2.260206699371338	35530.74231723463
2.2632133960723877	36736.20000366457
2.266214609146118	39596.2362812536
2.2692108154296875	44009.81478845408
2.2722020149230957	48579.39100225542
2.2751877307891846	48627.31337643517
2.278168201446533	48213.54162455474
2.2811436653137207	47501.80766929617
2.284113883972168	41181.48289676217
2.287078857421875	37592.185302507285
2.290038824081421	35727.447147912884
2.2929933071136475	32588.076875604296
2.295942783355713	32156.39631319665
2.298887014389038	35795.82962961318
2.301826238632202	42169.05046361514
2.304760217666626	54137.48467145126
2.3076889514923096	86503.77402197986
2.310612440109253	133664.69135727204
2.3135311603546143	138225.12477773725
2.3164443969726562	77520.43886522081
2.319352865219116	26065.65156444832
2.322256088256836	22709.0467132377
2.3251543045043945	31525.588304362
2.328047275543213	33262.43826184784
2.330935478210449	31937.99684137852
2.3338186740875244	32205.541455265367
2.3366971015930176	31840.01665224865
2.3395702838897705	30062.821662572424
2.3424389362335205	30010.683970732225
2.3453025817871094	29212.0417933765
2.348161458969116	29685.433119598096
2.351015567779541	35468.0903067852
2.353865146636963	42954.23987246147
2.3567099571228027	53083.91604492333
2.3595502376556396	71390.74399865656
2.3623859882354736	88364.50763536814
2.3652172088623047	86937.242999532
2.368043899536133	63517.08517154467
2.370866537094116	33517.1682063801
2.3736846446990967	24068.490858802386
2.3764986991882324	37437.140884385146
2.3793084621429443	52301.53497726405
2.3821144104003906	56334.84434296739
2.384916305541992	60660.279064473245
2.387714147567749	74307.31120011728
2.3905084133148193	81523.81021628462
2.393299102783203	76843.95825016819
2.3960859775543213	76969.35805261048
2.398869514465332	93436.17672029667
2.4016497135162354	110926.1329183018
2.4044265747070312	113710.38821366851
2.407200336456299	112117.00538401115
2.409970998764038	136409.0987069554
2.4127390384674072	172590.03032231156
2.415503978729248	160673.32103717976
2.418266534805298	132020.35867271794
2.4210267066955566	138264.89518355037
2.4237842559814453	137853.84464757485
2.426539897918701	131406.13494167366
2.429293394088745	164929.40489566783
2.4320452213287354	196873.06390511504
2.4347951412200928	182865.02971897396
2.4375438690185547	195790.36170766182
2.440291166305542	247489.5261520931
2.443037271499634	255185.47076226142
2.445782423019409	226368.73474740225
2.4485268592834473	214462.46565722805
2.451270818710327	220545.8131454238
2.454014539718628	243217.0975594061
2.4567582607269287	278434.2022197787
2.4595019817352295	292951.3286360125
2.4622461795806885	308677.24951010215
2.4649908542633057	338806.9787359501
2.4677364826202393	319929.282548558
2.4704833030700684	271966.535257694
2.473231554031372	245960.21574186705
2.4759814739227295	246649.93492954527
2.4787333011627197	253248.05369029247
2.481487512588501	257777.58029832685
