#wavelength	surface flux
0.6450077295303345	52.542231468922964
0.6472567915916443	81.50447669123646
0.6494921445846558	104.07114962366111
0.6517150402069092	116.44291840342125
0.6539263725280762	128.47463717298717
0.6561272740364075	140.79360840274467
0.6583186388015747	153.83709141279218
0.6605015397071838	168.29816597332166
0.6626768708229065	183.5725854336527
0.6648455858230591	199.24844849787752
0.6670085787773132	213.73358965305354
0.6691668033599854	222.18906032649264
0.6713210344314575	232.6973464168178
0.6734722256660461	256.1813967084885
0.6756211519241333	280.1185716163339
0.6777685880661011	296.8753543560109
0.6799154281616211	311.8941038855098
0.6820623278617859	326.1613967290014
0.6842101216316223	339.68607638109825
0.6863595843315125	352.14253056581356
0.688511312007904	361.18506398564483
0.6906660795211792	358.37311827084744
0.6928245425224304	347.3816745193582
0.6949873566627502	354.233052207777
0.6971551775932312	376.9006675653512
0.6993286609649658	387.5241050967298
0.7015084028244019	387.5277584751067
0.7036949396133423	391.7774255712595
0.7058889269828796	400.89893868577275
0.7080909013748169	410.70631904603346
0.710301399230957	418.9075752909814
0.712520956993103	421.8547932762299
0.7147500514984131	403.1710439021373
0.7169892191886902	358.56879080304356
0.7192389369010925	333.62190093719613
0.7214996814727783	339.8924654570036
0.723771870136261	335.021370992039
0.7260559797286987	321.03989910776085
0.7283523678779602	318.30865804371575
0.7306615710258484	327.23922155570574
0.7329838871955872	354.4988296147452
0.7353196740150452	384.4643230877101
0.7376693487167358	399.81025205387544
0.7400332689285278	412.09740719075506
0.7424117922782898	424.89469179297214
0.7448052167892456	433.80999529843257
0.7472138404846191	435.8882947977376
0.7496379613876343	429.9859761310453
0.7520779371261597	415.92919777212404
0.7545340061187744	392.8634985466065
0.7570064663887024	360.2611780569766
0.7594954967498779	316.1994333044026
0.7620013952255249	251.95879924144137
0.7645244002342224	164.39753536467057
0.7670646905899048	97.41552121262373
0.7696225643157959	106.96491539143746
0.7721980810165405	204.5823992930362
0.7747915983200073	338.9122198526007
0.7774031162261963	428.48504897962516
0.7800329327583313	488.7963194503884
0.7826811671257019	612.0697707028953
0.7853479981422424	766.3086580090592
0.7880334854125977	886.610686935607
0.7907378077507019	965.2591170166826
0.7934610247612	981.0194241134024
0.7962033748626709	1066.9960165810937
0.7989648580551147	1282.563563253445
0.801745593547821	1475.6833489208152
0.8045456409454346	1614.0773037023637
0.8073651194572449	1703.2619817452423
0.8102040886878967	1682.28608606816
0.8130625486373901	1606.0373930490298
0.8159406185150146	1686.4448037899201
0.8188382983207703	1965.910627169862
0.8217556476593018	2198.6645502737656
0.8246926665306091	2426.3894222975127
0.8276493549346924	2738.6417295748643
0.8306257724761963	2988.8010481561887
0.8336219191551208	3244.6688991028464
0.8366377949714661	3596.6443252123154
0.8396733403205872	4023.119189444791
0.8427285552024841	4515.203074526481
0.8458034992218018	5062.369084450061
0.8488980531692505	5560.127578640653
0.8520121574401855	5983.3257067198765
0.8551458716392517	6527.16022821415
0.8582990765571594	7056.067274732603
0.8614717125892639	7376.41472039686
0.8646637797355652	7763.966470366141
0.8678751587867737	8420.222437749864
0.8711057901382446	9171.019964251203
0.8743556141853333	9726.551496961283
0.87762451171875	9672.233770148545
0.8809124231338501	8478.880851795338
0.8842192888259888	6794.101205971926
0.8875449895858765	5778.180417614427
0.8908893465995789	5234.202098141414
0.894252359867096	4775.639707137329
0.8976338505744934	5472.27605564692
0.9010337591171265	8296.655537803359
0.9044519662857056	11805.796809072417
0.9078882932662964	13383.166041593513
0.9113426208496094	13134.651602550543
0.914814829826355	12694.063941905795
0.9183048605918884	13213.459472242097
0.9218124747276306	13921.345029695369
0.925337553024292	11140.341996822264
0.9288799166679382	5479.772767106957
0.9324395060539246	2179.8917207857517
0.9360161423683167	2641.3667712099127
0.9396095871925354	4432.916006381329
0.943219780921936	5024.160569228717
0.9468464851379395	4371.51454863776
0.9504896402359009	3979.9317714652066
0.9541489481925964	3825.693361375223
0.9578243494033813	3799.334741367776
0.9615156054496765	4493.616466905176
0.9652225375175476	6900.069919430403
0.9689450263977051	10418.453724884657
0.9726828336715698	12381.606485065206
0.9764357805252075	12952.181992532434
0.9802037477493286	13881.733784136233
0.983986496925354	15051.010891916185
0.9877838492393494	16654.271759717176
0.9915955662727356	19697.62631973004
0.9954215884208679	24281.957906686563
0.9992615580558777	29759.329648860472
1.0031154155731201	35400.13648382442
1.0069829225540161	38891.898724902945
1.0108637809753418	38437.87145593447
1.0147579908370972	34761.538613558834
1.018665075302124	30054.6091902781
1.022585153579712	28686.444179906066
1.0265177488327026	32070.34463396961
1.0304628610610962	33991.21222611977
1.0344202518463135	32793.11674634367
1.0383895635604858	35792.87103591217
1.0423706769943237	43133.71038197374
1.0463634729385376	49801.73470719584
1.0503677129745483	56200.197015369835
1.0543830394744873	63648.54591904264
1.058409333229065	70395.63796833725
1.0624464750289917	74702.90963170807
1.0664942264556885	76374.52320381659
1.0705522298812866	76353.22993969894
1.0746204853057861	76994.33164717237
1.0786986351013184	78192.86822045635
1.0827864408493042	78005.1222016578
1.086883783340454	74353.91201109762
1.0909905433654785	65182.0351260517
1.0951062440872192	51744.100532569966
1.0992310047149658	37167.07509269079
1.10336434841156	23543.467751243334
1.1075061559677124	13073.857475899234
1.1116561889648438	6379.957160309466
1.115814208984375	3005.9505254829446
1.1199802160263062	2101.841844826309
1.124153733253479	2199.8444833027497
1.1283347606658936	2572.2117132385697
1.1325229406356812	2746.4495051437907
1.1367181539535522	4123.79152577822
1.1409201622009277	6159.399216165251
1.145128846168518	5686.682820759261
1.1493438482284546	3736.7200091413133
1.1535650491714478	2380.5636796774374
1.1577922105789185	1903.545312491349
1.1620250940322876	2065.227603786146
1.1662636995315552	3046.814254103871
1.170507550239563	6076.8867063832
1.174756646156311	11376.110777293086
1.1790107488632202	18109.09305660231
1.1832695007324219	24285.914556483396
1.1875330209732056	28107.511271123505
1.191800832748413	30907.43617189252
1.1960728168487549	34121.88504344647
1.2003488540649414	37453.65777349158
1.2046287059783936	41357.159762306
1.2089121341705322	44387.876827981585
1.2131990194320679	46290.2843918141
1.2174891233444214	49143.40935534662
1.2217823266983032	54850.981764609496
1.2260783910751343	66345.95447565011
1.230377197265625	81770.05402710657
1.2346785068511963	97101.94780551923
1.238982081413269	114614.36462150633
1.2432878017425537	135801.3336791253
1.2475954294204712	155095.73422798645
1.2519049644470215	167848.86665366756
1.256216049194336	181042.71804900383
1.2605286836624146	202559.92577946326
1.2648425102233887	223471.23450999465
1.2691574096679688	227375.97888477685
1.2734732627868652	209420.9168469981
1.2777899503707886	180214.8840772842
1.2821072340011597	148400.8570234974
1.2864248752593994	118908.55740887654
1.2907428741455078	100064.54270332085
1.2950609922409058	92576.40176140952
1.2993791103363037	87385.79973365288
1.303696870803833	78400.8822736993
1.3080145120620728	68347.598687002
1.3123314380645752	56162.15013784991
1.3166478872299194	47518.59643382595
1.3209635019302368	48634.81263737406
1.3252781629562378	47206.51192071125
1.3295916318893433	32699.616648501407
1.3339040279388428	15037.1029868852
1.3382149934768677	5778.814082404229
1.3425244092941284	2037.3117915273901
1.3468321561813354	523.3482048425736
1.3511382341384888	173.9355870509284
1.3554422855377197	58.331033477035845
1.3597444295883179	24.615931249309522
1.3640443086624146	33.18369063918884
1.3683418035507202	50.16670615045728
1.3726370334625244	108.23688545091736
1.3769296407699585	184.3979552573553
1.381219506263733	154.76963123821443
1.3855066299438477	87.22743369496186
1.3897908926010132	93.00905926314448
1.3940720558166504	117.952506567829
1.3983501195907593	137.98141378990763
1.4026249647140503	157.7329055488418
1.4068963527679443	172.73334938335267
1.4111642837524414	219.33992293813412
1.4154287576675415	286.6286892377095
1.419689416885376	324.6471879067312
1.4239463806152344	510.1669155478295
1.4281994104385376	1059.5375231232679
1.4324485063552856	1454.9283231487007
1.436693549156189	1476.2574402668556
1.440934419631958	1843.6445280856487
1.4451709985733032	2944.8869069033103
1.449403166770935	4764.488268030523
1.453631043434143	6643.497721808176
1.4578542709350586	7714.393732996864
1.4620729684829712	6763.714449229825
1.4662868976593018	4320.880894609591
1.4704961776733398	2286.6698286476094
1.4747005701065063	1241.8824090031085
1.4788999557495117	1105.985613289627
1.4830944538116455	1260.2728458695688
1.4872838258743286	1285.2600015186213
1.491468071937561	1209.7869063144517
1.4956470727920532	1409.7371660919312
1.4998208284378052	2083.4505657458258
1.5039892196655273	2544.9900593454518
1.5081522464752197	2082.922467012541
1.5123097896575928	1185.8384431483894
1.5164618492126465	1134.1340010858441
1.5206083059310913	2234.4789209149017
1.5247491598129272	3557.599042990788
1.5288842916488647	4767.599070236254
1.5330137014389038	5912.280525229363
1.5371372699737549	6739.333923739225
1.541254997253418	7853.24207205743
1.545366883277893	9513.592054129807
1.5494728088378906	12329.34435634438
1.5535727739334106	18826.253130931495
1.5576666593551636	29768.094993138984
1.561754584312439	46632.635214736365
1.5658363103866577	70389.88988458815
1.5699119567871094	92377.23505557145
1.5739814043045044	108875.88343926179
1.5780447721481323	128256.27415284942
1.582101821899414	150768.29241596136
1.5861525535583496	168967.78589843135
1.5901970863342285	178159.1013028244
1.5942351818084717	179270.38984316675
1.5982669591903687	171347.36308661822
1.6022924184799194	150479.95338365476
1.606311559677124	122112.79728172699
1.6103241443634033	93871.83160630008
1.6143304109573364	64736.85269027355
1.6183301210403442	38959.98139825345
1.6223233938217163	24868.209386374278
1.6263102293014526	19211.83854528452
1.6302905082702637	17187.26099029198
1.634264349937439	18981.03677377379
1.638231635093689	23506.45663978434
1.6421923637390137	25212.74694957403
1.646146535873413	21220.49501689837
1.6500942707061768	20124.494198727723
1.6540353298187256	23138.296242971617
1.6579699516296387	27414.379265112584
1.661897897720337	29689.813967330898
1.6658192873001099	18379.03023498984
1.6697341203689575	6503.953083592854
1.6736423969268799	7121.401699744464
1.677544116973877	9046.099811948352
1.6814392805099487	7880.951175569515
1.6853278875350952	6824.310524418716
1.6892099380493164	5745.891540513234
1.6930854320526123	4027.769691565649
1.696954369544983	2717.1896758976104
1.7008168697357178	1930.1437030004092
1.7046726942062378	1878.0873166756594
1.708522081375122	3425.575801891243
1.712364912033081	6441.659162667589
1.7162011861801147	11110.765821706675
1.7200311422348022	14392.765869285719
1.723854422569275	12409.34712770352
1.7276713848114014	10124.077562295159
1.731481909751892	10887.965558993712
1.7352858781814575	13547.112322514631
1.7390835285186768	18926.823119112632
1.7428747415542603	25331.15284277482
1.7466596364974976	29527.355350046462
1.7504380941390991	30002.772163761503
1.7542102336883545	25049.73630703332
1.7579760551452637	18352.60313332482
1.7617355585098267	14895.48648833195
1.7654887437820435	13736.905639744564
1.7692357301712036	12595.349113432907
1.7729763984680176	10657.53967928339
1.776710867881775	10922.898998442222
1.7804391384124756	12822.37744414534
1.7841613292694092	11338.744211880417
1.7878772020339966	8207.041043240686
1.7915871143341064	5724.3110413044
1.7952908277511597	4732.339537614994
1.7989884614944458	5430.228881363211
1.8026801347732544	4090.027834893978
1.806365728378296	2490.0077111999317
1.8100452423095703	2332.5619484938866
1.8137187957763672	1948.8586013696738
1.817386507987976	1568.4787888364312
1.8210482597351074	2189.57559777786
1.8247040510177612	2984.9456585380344
1.828354001045227	1989.6512659313685
1.8319982290267944	742.6765811567993
1.8356364965438843	468.0786774420897
1.8392690420150757	586.5526804320258
1.8428958654403687	1459.455715110751
1.8465168476104736	2090.581008547988
1.8501322269439697	2040.1546265650186
1.8537418842315674	1873.2562126654066
1.8573459386825562	1432.2806139690954
1.860944390296936	1060.983045344454
1.864537239074707	807.1648882420537
1.8681244850158691	451.208089153069
1.871706247329712	273.937346921129
1.8752825260162354	926.8611075555187
1.8788533210754395	2757.4216606834384
1.8824186325073242	4081.5355478364913
1.8859784603118896	3817.048730079456
1.8895330429077148	3211.083049469871
1.8930821418762207	3605.759801501348
1.8966259956359863	3946.4440146263883
1.9001644849777222	2425.2589124239894
1.9036977291107178	1045.9957799488855
1.9072256088256836	1060.7851338284102
1.9107483625411987	1013.6974499657088
1.9142658710479736	753.295954136653
1.9177782535552979	785.1192343233955
1.9212853908538818	848.7530470312806
1.9247875213623047	724.7400643314369
1.9282845258712769	544.9188799004239
1.9317764043807983	437.2088926283504
1.9352631568908691	406.85042799907063
1.9387450218200684	368.3891826484879
1.942221760749817	429.8612620300506
1.9456936120986938	586.472360641177
1.9491604566574097	640.0820913344038
1.952622413635254	642.1699595434586
1.956079363822937	932.6905849731037
1.959531545639038	1460.6220461634916
1.962978720664978	1745.0193307316886
1.966421127319336	1882.4929755739201
1.9698586463928223	1820.967099021353
1.9732913970947266	1827.2902828689862
1.9767193794250488	2418.1509849750396
1.9801424741744995	2385.4467401388056
1.9835609197616577	2050.983061784983
1.9869745969772339	2645.479181257039
1.990383505821228	3421.85971522768
1.9937876462936401	4706.426076657229
1.9971871376037598	6558.477226217858
2.000581979751587	7136.7647844916455
2.003972291946411	6335.673195424405
2.007357597351074	6210.394234973587
2.0107386112213135	6525.73824201647
2.0141148567199707	5996.525841859817
2.017486572265625	4932.116375424492
2.0208535194396973	4588.410568935776
2.0242159366607666	5699.502824228816
2.027573823928833	6950.280193892432
2.0309269428253174	8168.337897132581
2.034275770187378	9539.2532857701
2.0376198291778564	10094.584796506802
2.040959596633911	10647.85580029549
2.044294595718384	12608.674024124819
2.0476250648498535	14730.239773888952
2.0509510040283203	16315.716105973623
2.054272413253784	18067.391155839992
2.057589530944824	20073.728985903195
2.0609018802642822	22268.792803133485
2.0642096996307373	24221.631741323177
2.0675129890441895	25907.665075604957
2.0708119869232178	27534.4391038722
2.074106216430664	29213.110773080414
2.0773961544036865	30549.50946107547
2.080681324005127	31427.629507222126
2.0839622020721436	32650.218984655843
2.087238311767578	33814.94918448279
2.090510129928589	34792.2312298717
2.0937774181365967	35197.89302596716
2.0970399379730225	34781.51220975447
2.1002981662750244	34348.793965307676
2.1035518646240234	34470.246555401274
2.1068007946014404	34513.71107838469
2.1100454330444336	33830.085012096504
2.1132853031158447	33377.26708280762
2.116520881652832	32568.13461916482
2.1197516918182373	31361.22681785272
2.1229779720306396	30406.195382544796
2.12619948387146	29515.763422614018
2.1294167041778564	28790.548149187198
2.132629156112671	28211.660717021234
2.1358368396759033	27652.954949004106
2.139039993286133	26616.041031348017
2.1422386169433594	24021.071088390407
2.145432472229004	21256.848532307202
2.1486217975616455	19821.626452687447
2.151806354522705	18613.292835485146
2.1549863815307617	17084.711392082376
2.1581614017486572	15636.86703278713
2.16133189201355	13665.093563357355
2.1644976139068604	11753.824001394874
2.167658567428589	10507.27526728356
2.1708147525787354	9727.683972186445
2.173966407775879	9642.250115781091
2.1771130561828613	9032.87606859055
2.1802549362182617	7991.7469853405755
2.183391809463501	7338.398563555949
2.1865241527557373	6967.459499615105
2.1896514892578125	5837.403666531159
2.1927738189697266	3748.992433074455
2.1958916187286377	1888.800701130713
2.1990041732788086	748.681446991321
2.2021119594573975	297.006065209278
2.2052149772644043	468.20209013940297
2.208312749862671	999.1609235016481
2.2114057540893555	1349.8277865812538
2.214493751525879	1344.1131097863388
2.217576742172241	1271.0010484425895
2.2206547260284424	1108.5265961269592
2.2237277030944824	907.8737042851768
2.2267956733703613	740.0771629357739
2.2298583984375	545.0462790054712
2.2329163551330566	492.58439951970695
2.235969066619873	496.87511740611046
2.2390167713165283	387.7194670256986
2.2420592308044434	313.97558098545176
2.2450966835021973	278.20189072361524
2.248128890991211	201.72026609147764
2.2511560916900635	156.61922826976527
2.254178285598755	135.90711834217143
2.257194995880127	114.36928219782295
2.260206699371338	115.66291885783211
2.2632133960723877	124.5378448234586
2.266214609146118	140.60716945002866
2.2692108154296875	183.17807119443333
2.2722020149230957	251.59960984542968
2.2751877307891846	268.48871567775444
2.278168201446533	252.52533646533723
2.2811436653137207	240.38425583900744
2.284113883972168	183.7796051211113
2.287078857421875	144.66818076573296
2.290038824081421	132.16748962616256
2.2929933071136475	112.47181169915628
2.295942783355713	105.52020309988721
2.298887014389038	115.56666502762492
2.301826238632202	137.6265335718313
2.304760217666626	216.31001301663167
2.3076889514923096	584.784504487304
2.310612440109253	1297.5177544758574
2.3135311603546143	1492.199485620891
2.3164443969726562	772.7184352080809
2.319352865219116	163.62731168755326
2.322256088256836	100.59439711376112
2.3251543045043945	159.91405373191262
2.328047275543213	166.21289845676384
2.330935478210449	152.80031699253632
2.3338186740875244	161.68819053509674
2.3366971015930176	163.17713439536578
2.3395702838897705	156.67876993073082
2.3424389362335205	170.5493755557577
2.3453025817871094	158.31808951469648
2.348161458969116	141.55890480689408
2.351015567779541	179.62371214748572
2.353865146636963	236.09341183449328
2.3567099571228027	339.2170189904179
2.3595502376556396	570.0404764865456
2.3623859882354736	767.6099592595978
2.3652172088623047	704.8886314807586
2.368043899536133	445.7131593690353
2.370866537094116	201.02506544892947
2.3736846446990967	142.79717044443086
2.3764986991882324	298.32725784446825
2.3793084621429443	462.7746831357867
2.3821144104003906	461.28981274729017
2.384916305541992	470.1978890138874
2.387714147567749	619.3879082465826
2.3905084133148193	699.4675329268036
2.393299102783203	634.2281857963238
2.3960859775543213	615.0054048857687
2.398869514465332	787.993270152011
2.4016497135162354	1030.3352601766694
2.4044265747070312	1167.8086198349617
2.407200336456299	1288.473846171047
2.409970998764038	1937.9196362374614
2.4127390384674072	2724.123943891671
2.415503978729248	2409.2738251597602
2.418266534805298	1646.2612062205258
2.4210267066955566	1438.2410253425394
2.4237842559814453	1256.3088360858294
2.426539897918701	1239.1163196780317
2.429293394088745	1933.8821214624124
2.4320452213287354	2494.5666717613585
2.4347951412200928	2478.534369414831
2.4375438690185547	3244.7294329255615
2.440291166305542	4571.845327358621
2.443037271499634	4778.711063512654
2.445782423019409	4137.809726793261
2.4485268592834473	3831.3817470573126
2.451270818710327	4119.073375054894
2.454014539718628	4947.965574228034
2.4567582607269287	6094.04778497145
2.4595019817352295	7084.309258058549
2.4622461795806885	8166.762736016208
2.4649908542633057	9735.464881143975
2.4677364826202393	9923.639307656955
2.4704833030700684	8678.632715542037
2.473231554031372	8158.665039586861
2.4759814739227295	8821.981504545087
2.4787333011627197	8992.359873758349
