#wavelength	surface flux
0.6450077295303345	31297.676202562005
0.6472567915916443	50393.53946177711
0.6494921445846558	68348.53425391956
0.6517150402069092	82034.27215431785
0.6539263725280762	97052.11700373761
0.6561272740364075	113781.60448759195
0.6583186388015747	132256.83604596023
0.6605015397071838	152385.88300223305
0.6626768708229065	173647.77909271247
0.6648455858230591	194135.60836217407
0.6670085787773132	202737.909121377
0.6691668033599854	181910.52436123378
0.6713210344314575	175373.30325586424
0.6734722256660461	236208.00221723694
0.6756211519241333	311647.66435697954
0.6777685880661011	357528.7580952733
0.6799154281616211	390960.52550038265
0.6820623278617859	420273.9649717582
0.6842101216316223	446444.03155837726
0.6863595843315125	469033.02172386635
0.688511312007904	486461.34000701975
0.6906660795211792	495527.4090124221
0.6928245425224304	498275.5772959714
0.6949873566627502	504105.9089282764
0.6971551775932312	511322.30552781775
0.6993286609649658	509678.0793673553
0.7015084028244019	499600.8261258917
0.7036949396133423	485647.8973216044
0.7058889269828796	468493.5626595118
0.7080909013748169	447971.14792054845
0.710301399230957	424316.9150939076
0.712520956993103	397715.90886414394
0.7147500514984131	366328.29430458986
0.7169892191886902	331334.8621712249
0.7192389369010925	300711.8501052211
0.7214996814727783	274327.41670038906
0.723771870136261	246194.21734433042
0.7260559797286987	217649.1234163249
0.7283523678779602	191461.1645079182
0.7306615710258484	167292.6852531622
0.7329838871955872	145045.42081344177
0.7353196740150452	124423.9943708165
0.7376693487167358	104657.40922598471
0.7400332689285278	86367.23317741862
0.7424117922782898	69989.20610771982
0.7448052167892456	55620.01519985187
0.7472138404846191	43218.665452627545
0.7496379613876343	32703.27656400648
0.7520779371261597	24066.6907905624
0.7545340061187744	17236.058618398063
0.7570064663887024	12040.818356927806
0.7594954967498779	8203.462476249642
0.7620013952255249	5290.219753042863
0.7645244002342224	2942.841861644235
0.7670646905899048	1529.416447301714
0.7696225643157959	1679.9097382834084
0.7721980810165405	3670.4856379052417
0.7747915983200073	7147.326336412847
0.7774031162261963	11124.041816572304
0.7800329327583313	16726.053636690474
0.7826811671257019	27364.597339557517
0.7853479981422424	42979.74350582751
0.7880334854125977	62154.84852662485
0.7907378077507019	81034.94410701838
0.7934610247612	95051.56901935578
0.7962033748626709	127986.3383107791
0.7989648580551147	191693.30914917792
0.801745593547821	260917.1769821745
0.8045456409454346	330193.44224702584
0.8073651194572449	406459.6911145332
0.8102040886878967	488828.7383558001
0.8130625486373901	581668.04133101
0.8159406185150146	692708.869062488
0.8188382983207703	822779.9538421811
0.8217556476593018	974025.5336124301
0.8246926665306091	1153215.0890182292
0.8276493549346924	1352629.7717739476
0.8306257724761963	1562818.3575006241
0.8336219191551208	1792607.4676279295
0.8366377949714661	2048389.7874319912
0.8396733403205872	2332616.074306607
0.8427285552024841	2649940.9198294654
0.8458034992218018	2970614.355721231
0.8488980531692505	3107115.3814195036
0.8520121574401855	3177555.981057557
0.8551458716392517	3764913.220436526
0.8582990765571594	4458455.953567023
0.8614717125892639	4498899.990058755
0.8646637797355652	4434380.784546724
0.8678751587867737	4788665.7103763595
0.8711057901382446	5239922.002938332
0.8743556141853333	5719186.92353415
0.87762451171875	6274785.746373713
0.8809124231338501	6703153.856623315
0.8842192888259888	7078379.903505583
0.8875449895858765	7448021.805074414
0.8908893465995789	7306779.383564332
0.894252359867096	7018768.595995152
0.8976338505744934	8242321.354212389
0.9010337591171265	10609918.267090205
0.9044519662857056	12644322.26382742
0.9078882932662964	14054101.511535719
0.9113426208496094	14990573.25931461
0.914814829826355	15769664.241179995
0.9183048605918884	16764958.92577409
0.9218124747276306	17466490.218794808
0.925337553024292	15642861.770372134
0.9288799166679382	11852873.09465353
0.9324395060539246	10287842.680852167
0.9360161423683167	11876349.684055999
0.9396095871925354	14397911.270519672
0.943219780921936	15976921.573023036
0.9468464851379395	16357395.217633935
0.9504896402359009	16541639.239350121
0.9541489481925964	16574650.123975446
0.9578243494033813	16332808.636395948
0.9615156054496765	16722484.033371951
0.9652225375175476	18435263.827131294
0.9689450263977051	20741941.991111245
0.9726828336715698	22566896.681920055
0.9764357805252075	24251663.094842926
0.9802037477493286	26129603.26501147
0.983986496925354	27915255.42284939
0.9877838492393494	29395584.382089082
0.9915955662727356	30008758.571387954
0.9954215884208679	29142841.444097422
0.9992615580558777	26352556.953782298
1.0031154155731201	24784349.24988242
1.0069829225540161	26570654.90136932
1.0108637809753418	29880574.96109716
1.0147579908370972	33892451.72152349
1.018665075302124	38189170.07216172
1.022585153579712	41931816.91196872
1.0265177488327026	44835535.789880626
1.0304628610610962	48124074.13287281
1.0344202518463135	52414748.2964319
1.0383895635604858	56585849.31189434
1.0423706769943237	59776725.85750684
1.0463634729385376	62045812.852026895
1.0503677129745483	63435182.37771461
1.0543830394744873	64650457.36629384
1.058409333229065	66495257.19362164
1.0624464750289917	69087274.195526
1.0664942264556885	72117139.73503737
1.0705522298812866	75293710.44357789
1.0746204853057861	78881812.88320273
1.0786986351013184	82280203.18947253
1.0827864408493042	83849879.37590611
1.086883783340454	79972069.70767778
1.0909905433654785	68219548.4914757
1.0951062440872192	53235779.83670866
1.0992310047149658	41054329.988677055
1.10336434841156	31831808.464224607
1.1075061559677124	24354845.52432004
1.1116561889648438	18893942.406614613
1.115814208984375	16273837.317733048
1.1199802160263062	16339376.017611802
1.124153733253479	18118674.623922795
1.1283347606658936	18948400.346519027
1.1325229406356812	16128109.063249137
1.1367181539535522	14524124.678529484
1.1409201622009277	16966497.792885125
1.145128846168518	19857190.32638805
1.1493438482284546	21232664.07024561
1.1535650491714478	20453891.902370535
1.1577922105789185	19354106.643087197
1.1620250940322876	18760549.61785654
1.1662636995315552	17836466.26496418
1.170507550239563	18048077.64542447
1.174756646156311	19192402.939155843
1.1790107488632202	21835477.378600847
1.1832695007324219	27753862.93255829
1.1875330209732056	34563107.79847198
1.191800832748413	41136009.22250836
1.1960728168487549	47952619.159381054
1.2003488540649414	54200182.90381122
1.2046287059783936	60617025.40973848
1.2089121341705322	66877639.510726444
1.2131990194320679	72641375.47405934
1.2174891233444214	78577090.25110774
1.2217823266983032	84191771.06633788
1.2260783910751343	90059484.6866055
1.230377197265625	95716631.642989
1.2346785068511963	99124817.72691911
1.238982081413269	96667612.38292435
1.2432878017425537	90783928.66127664
1.2475954294204712	87415039.15943108
1.2519049644470215	85021528.37528494
1.256216049194336	94694712.01941635
1.2605286836624146	111923924.31413892
1.2648425102233887	118500744.73548478
1.2691574096679688	118745014.77166669
1.2734732627868652	117468936.89565487
1.2777899503707886	115552268.59155732
1.2821072340011597	111768496.7873205
1.2864248752593994	104988370.54606691
1.2907428741455078	99491425.1127377
1.2950609922409058	97522013.58485152
1.2993791103363037	95620839.40198219
1.303696870803833	92591460.57995883
1.3080145120620728	88488293.42358159
1.3123314380645752	81813779.98896036
1.3166478872299194	74863112.46069488
1.3209635019302368	68142192.38316052
1.3252781629562378	56201150.72640714
1.3295916318893433	36985612.69632833
1.3339040279388428	17984046.079805274
1.3382149934768677	7500030.847727564
1.3425244092941284	4130970.3709439673
1.3468321561813354	2919275.3604103937
1.3511382341384888	2182319.23069638
1.3554422855377197	1723736.1233341612
1.3597444295883179	1685850.5675538254
1.3640443086624146	2077417.7818222283
1.3683418035507202	2392245.7914922084
1.3726370334625244	2619186.0805775328
1.3769296407699585	3078304.3528105603
1.381219506263733	3176769.867916711
1.3855066299438477	2932063.3146102317
1.3897908926010132	2837002.209247246
1.3940720558166504	2701142.639689985
1.3983501195907593	2586610.7501629973
1.4026249647140503	2646564.5419990593
1.4068963527679443	2587484.4726237427
1.4111642837524414	2460475.066604759
1.4154287576675415	2509982.0926448456
1.419689416885376	2505536.8808307615
1.4239463806152344	2523742.098900459
1.4281994104385376	2892579.5856543547
1.4324485063552856	3345268.93162799
1.436693549156189	3618002.020647817
1.440934419631958	3881042.905268366
1.4451709985733032	4352496.719911367
1.449403166770935	5404883.76394727
1.453631043434143	6673441.041276402
1.4578542709350586	7515003.389919637
1.4620729684829712	7846008.46009301
1.4662868976593018	7850861.015583802
1.4704961776733398	7877990.896527225
1.4747005701065063	8358072.5087377
1.4788999557495117	9127644.46498825
1.4830944538116455	9668409.73782613
1.4872838258743286	10213993.795738792
1.491468071937561	10961902.606969634
1.4956470727920532	11836932.897684945
1.4998208284378052	12870480.218803538
1.5039892196655273	14052172.88500591
1.5081522464752197	15499902.489853896
1.5123097896575928	17145850.551461983
1.5164618492126465	18444544.946030464
1.5206083059310913	19837692.19704673
1.5247491598129272	21635568.70618593
1.5288842916488647	23462036.74602578
1.5330137014389038	25503455.579482496
1.5371372699737549	27339746.68579735
1.541254997253418	28895500.04390643
1.545366883277893	31082233.31823365
1.5494728088378906	33120974.877313036
1.5535727739334106	34075810.51533712
1.5576666593551636	35290777.77223217
1.561754584312439	38362964.1658763
1.5658363103866577	42236622.624599956
1.5699119567871094	44523442.415706225
1.5739814043045044	45541154.75718635
1.5780447721481323	46681990.40257046
1.582101821899414	47869561.97217418
1.5861525535583496	48419196.809249334
1.5901970863342285	47905178.33392654
1.5942351818084717	46948583.256824754
1.5982669591903687	45684107.447476
1.6022924184799194	43189778.00001666
1.606311559677124	40087715.12404464
1.6103241443634033	37454501.10348168
1.6143304109573364	34584833.83281853
1.6183301210403442	31790092.676091187
1.6223233938217163	30875762.79187479
1.6263102293014526	31461048.52236877
1.6302905082702637	32390287.74644406
1.634264349937439	34485826.04285923
1.638231635093689	37905990.30746922
1.6421923637390137	39352300.19980781
1.646146535873413	37539841.64113247
1.6500942707061768	36755478.23515034
1.6540353298187256	35610719.689592555
1.6579699516296387	33555462.55102973
1.661897897720337	31980402.974445518
1.6658192873001099	22162653.394685198
1.6697341203689575	12750605.890742403
1.6736423969268799	17088389.079137962
1.677544116973877	23968267.095306523
1.6814392805099487	24729805.335803732
1.6853278875350952	22717002.39253863
1.6892099380493164	20288127.728682026
1.6930854320526123	17677825.89775788
1.696954369544983	15324931.660968453
1.7008168697357178	13950684.379418867
1.7046726942062378	14119433.137384018
1.708522081375122	15705580.978864405
1.712364912033081	16967275.415227663
1.7162011861801147	17533442.460745048
1.7200311422348022	17998356.796277672
1.723854422569275	17284721.6287494
1.7276713848114014	16048395.848307012
1.731481909751892	15141464.845052788
1.7352858781814575	14537772.10112889
1.7390835285186768	14645139.953975935
1.7428747415542603	15003092.213960532
1.7466596364974976	14966851.550314538
1.7504380941390991	14427182.395469876
1.7542102336883545	13107597.669734977
1.7579760551452637	11793102.419226455
1.7617355585098267	11214161.172219936
1.7654887437820435	10508378.185187977
1.7692357301712036	9396635.254650593
1.7729763984680176	8464884.76850578
1.776710867881775	8085710.965990418
1.7804391384124756	8006369.78398344
1.7841613292694092	7381541.205263778
1.7878772020339966	6659507.910519529
1.7915871143341064	5972770.417804672
1.7952908277511597	5586697.273180021
1.7989884614944458	5670182.874212663
1.8026801347732544	5114799.109994718
1.806365728378296	4731665.795162297
1.8100452423095703	5033871.209679365
1.8137187957763672	5399746.146522332
1.817386507987976	5109048.507875043
1.8210482597351074	4994401.336310322
1.8247040510177612	5648260.178833057
1.828354001045227	5402797.417774928
1.8319982290267944	4619970.849409503
1.8356364965438843	4204188.1450511385
1.8392690420150757	4175326.0184729532
1.8428958654403687	4520066.336034709
1.8465168476104736	4484667.376949354
1.8501322269439697	4329632.472691091
1.8537418842315674	4233918.861785097
1.8573459386825562	3612580.78400915
1.860944390296936	3006760.276666523
1.864537239074707	2846780.3450383986
1.8681244850158691	2864533.5163215674
1.871706247329712	3172422.9887664295
1.8752825260162354	4005029.65611653
1.8788533210754395	5293837.082764169
1.8824186325073242	6369003.891974145
1.8859784603118896	6687642.594520264
1.8895330429077148	6703465.735811055
1.8930821418762207	7302322.029982938
1.8966259956359863	7888777.204059962
1.9001644849777222	7377043.339255712
1.9036977291107178	6859318.454298105
1.9072256088256836	7274548.5245505525
1.9107483625411987	7300270.651406364
1.9142658710479736	6905069.247521349
1.9177782535552979	7080844.413152744
1.9212853908538818	6864711.652742084
1.9247875213623047	6211235.642073244
1.9282845258712769	5608163.344414053
1.9317764043807983	4996232.1282638265
1.9352631568908691	4507103.696622735
1.9387450218200684	4032899.077645241
1.942221760749817	4211780.853343507
1.9456936120986938	4809564.488222065
1.9491604566574097	5138211.112580288
1.952622413635254	5141704.737517138
1.956079363822937	4903329.593033606
1.959531545639038	5020566.9940436
1.962978720664978	5388279.537532403
1.966421127319336	5917470.725234049
1.9698586463928223	6373172.841201453
1.9732913970947266	6345454.955268866
1.9767193794250488	6498065.430679428
1.9801424741744995	6798148.350972118
1.9835609197616577	7208057.86560662
1.9869745969772339	7681261.110395661
1.990383505821228	7843383.1896230895
1.9937876462936401	8596012.142775793
1.9971871376037598	9365621.856098399
2.000581979751587	9788425.143854413
2.003972291946411	10315341.716652432
2.007357597351074	10350119.250148738
2.0107386112213135	10783040.317796402
2.0141148567199707	11606445.911944665
2.017486572265625	11785553.286611713
2.0208535194396973	12822870.173576398
2.0242159366607666	14217273.057460606
2.027573823928833	14107059.475861354
2.0309269428253174	14295680.740592696
2.034275770187378	15632511.607997805
2.0376198291778564	16436007.798732104
2.040959596633911	16530003.893508064
2.044294595718384	17321393.444198776
2.0476250648498535	18632324.34587186
2.0509510040283203	18871905.12404363
2.054272413253784	18951442.50883307
2.057589530944824	20323426.434741218
2.0609018802642822	21015508.875903286
2.0642096996307373	20904976.852516286
2.0675129890441895	21442245.114670213
2.0708119869232178	21765893.369008247
2.074106216430664	21725901.50184487
2.0773961544036865	21817679.751483195
2.080681324005127	22057280.4123524
2.0839622020721436	22224637.92622245
2.087238311767578	22378050.347850297
2.090510129928589	22653758.705964573
2.0937774181365967	22671821.184587963
2.0970399379730225	22449296.750342045
2.1002981662750244	22061902.485190876
2.1035518646240234	21609179.35208186
2.1068007946014404	21196747.820704523
2.1100454330444336	20851913.061825566
2.1132853031158447	20825491.57172463
2.116520881652832	20462696.109933943
2.1197516918182373	19929379.957341336
2.1229779720306396	19879306.504650414
2.12619948387146	19727717.822240993
2.1294167041778564	19281816.157013692
2.132629156112671	19042356.15972067
2.1358368396759033	18737564.974717967
2.139039993286133	17781361.300169364
2.1422386169433594	16295027.90053121
2.145432472229004	14999233.54808773
2.1486217975616455	14573240.008553782
2.151806354522705	14527278.176811472
2.1549863815307617	14298531.984543597
2.1581614017486572	13793131.70054077
2.16133189201355	13070844.82751088
2.1644976139068604	12434718.498597257
2.167658567428589	11810532.09076052
2.1708147525787354	11339716.1007618
2.173966407775879	10881791.422448091
2.1771130561828613	10201637.45852851
2.1802549362182617	9607357.947796276
2.183391809463501	8916741.083863556
2.1865241527557373	8053602.01047767
2.1896514892578125	7082153.6587933395
2.1927738189697266	5898285.563514285
2.1958916187286377	4447814.759363446
2.1990041732788086	2975982.7885050867
2.2021119594573975	2054613.1543744328
2.2052149772644043	1794354.9847396205
2.208312749862671	1999143.6585569421
2.2114057540893555	2516912.7800681666
2.214493751525879	3101349.238017297
2.217576742172241	3493386.22149502
2.2206547260284424	3618870.8709384906
2.2237277030944824	3513473.461502465
2.2267956733703613	3224477.3158603907
2.2298583984375	2942165.7988622077
2.2329163551330566	2773161.155445435
2.235969066619873	2638010.497366014
2.2390167713165283	2439320.190056358
2.2420592308044434	2199950.4951649625
2.2450966835021973	1991497.8930609752
2.248128890991211	1859047.7686263972
2.2511560916900635	1795730.9924365245
2.254178285598755	1765225.8135980177
2.257194995880127	1753866.3096198165
2.260206699371338	1746493.4570569769
2.2632133960723877	1771399.3593152754
2.266214609146118	1786328.8071882476
2.2692108154296875	1759687.265918092
2.2722020149230957	1739957.7788445475
2.2751877307891846	1710102.6457808518
2.278168201446533	1664667.071984026
2.2811436653137207	1559549.4462249558
2.284113883972168	1382474.1877336036
2.287078857421875	1243256.2631409236
2.290038824081421	1129566.5991685442
2.2929933071136475	1044972.0293705083
2.295942783355713	1076237.3494921403
2.298887014389038	1235552.9206918683
2.301826238632202	1424876.5155115146
2.304760217666626	1699480.580440784
2.3076889514923096	2267445.493811604
2.310612440109253	2943850.0167497573
2.3135311603546143	3050478.699356739
2.3164443969726562	2146591.0888321465
2.319352865219116	1166388.5976099027
2.322256088256836	897492.924478092
2.3251543045043945	870583.9468970277
2.328047275543213	865983.6743047261
2.330935478210449	946396.6941663397
2.3338186740875244	1041292.6214622373
2.3366971015930176	1119313.1725655
2.3395702838897705	1180398.1398104343
2.3424389362335205	1189599.6686171691
2.3453025817871094	1134860.8687294156
2.348161458969116	1117694.1157120462
2.351015567779541	1194874.3571935936
2.353865146636963	1307496.1532915249
2.3567099571228027	1430058.0303762658
2.3595502376556396	1615339.748126143
2.3623859882354736	1840161.1177726334
2.3652172088623047	1991669.5468729378
2.368043899536133	1842404.94878067
2.370866537094116	1316003.2531531337
2.3736846446990967	1004385.9245013902
2.3764986991882324	1059126.9081148044
2.3793084621429443	1048476.2515055609
2.3821144104003906	986224.6209998248
2.384916305541992	1132304.097760062
2.387714147567749	1462876.8593328563
2.3905084133148193	1624735.4451917126
2.393299102783203	1621578.9451803027
2.3960859775543213	1717516.4913339366
2.398869514465332	1921003.3408325778
2.4016497135162354	2130674.8643159713
2.4044265747070312	2319748.175029536
2.407200336456299	2394077.5146880317
2.409970998764038	2473717.6873486955
2.4127390384674072	2653966.0533480155
2.415503978729248	2628350.788245884
2.418266534805298	2500636.948289406
2.4210267066955566	2481047.5746670566
2.4237842559814453	2324242.3322835634
2.426539897918701	2196454.6213129223
2.429293394088745	2413548.7907046834
2.4320452213287354	2666743.646209658
2.4347951412200928	2609852.2024330124
2.4375438690185547	2707998.2997390395
2.440291166305542	3030512.154386062
2.443037271499634	3034115.9135595975
2.445782423019409	2896666.161705255
2.4485268592834473	2892403.570067165
2.451270818710327	2895176.8063280187
2.454014539718628	2971106.9186070436
2.4567582607269287	3280157.848031737
2.4595019817352295	3438880.2438667472
2.4622461795806885	3605811.8386453483
2.4649908542633057	3874189.150746576
2.4677364826202393	3590929.034924152
2.4704833030700684	3168144.563039177
2.473231554031372	3057754.5601565014
2.4759814739227295	3198882.944654667
2.4787333011627197	3369625.636582052
