#wavelength	surface flux
0.6450077295303345	431.1772587269199
0.6472567915916443	688.4613567446453
0.6494921445846558	924.9133156943226
0.6517150402069092	1099.4272469200746
0.6539263725280762	1289.228367834095
0.6561272740364075	1498.792983579419
0.6583186388015747	1733.3520208701095
0.6605015397071838	2000.0239946701759
0.6626768708229065	2293.3113094518535
0.6648455858230591	2608.0378329043283
0.6670085787773132	2886.2534307781466
0.6691668033599854	2975.1046430942374
0.6713210344314575	3138.9850241499876
0.6734722256660461	3731.6069363068023
0.6756211519241333	4356.174910255158
0.6777685880661011	4752.458200326156
0.6799154281616211	5080.938602399192
0.6820623278617859	5372.440297407379
0.6842101216316223	5621.160483074193
0.6863595843315125	5814.868598063889
0.688511312007904	5911.812667242649
0.6906660795211792	5789.379407899937
0.6928245425224304	5527.4667530387005
0.6949873566627502	5494.568305168473
0.6971551775932312	5625.329146182205
0.6993286609649658	5547.980469566406
0.7015084028244019	5302.160143037553
0.7036949396133423	5082.327649002511
0.7058889269828796	4901.841146801642
0.7080909013748169	4712.74035151117
0.710301399230957	4494.310146109453
0.712520956993103	4229.316049741282
0.7147500514984131	3819.1576529087192
0.7169892191886902	3263.701609242017
0.7192389369010925	2873.090265246053
0.7214996814727783	2696.9926902241564
0.723771870136261	2481.4123010466074
0.7260559797286987	2244.132936543214
0.7283523678779602	2091.515020861838
0.7306615710258484	2005.1272628261472
0.7329838871955872	1995.7846861496828
0.7353196740150452	2005.7803946118984
0.7376693487167358	1956.2812296659324
0.7400332689285278	1889.9157406011802
0.7424117922782898	1827.2916425643932
0.7448052167892456	1758.5100529291599
0.7472138404846191	1668.3685924298811
0.7496379613876343	1546.0947521825037
0.7520779371261597	1392.705635394335
0.7545340061187744	1206.6770046550857
0.7570064663887024	987.4127577548551
0.7594954967498779	745.4017029763259
0.7620013952255249	506.75210930158346
0.7645244002342224	295.54036799879754
0.7670646905899048	164.49762689332218
0.7696225643157959	181.5465888609625
0.7721980810165405	375.6105160685687
0.7747915983200073	704.9091549169719
0.7774031162261963	1043.7793663085624
0.7800329327583313	1402.3108534077478
0.7826811671257019	1970.464041215019
0.7853479981422424	2648.4959080411622
0.7880334854125977	3263.148144461445
0.7907378077507019	3742.916362925409
0.7934610247612	3968.7491445074447
0.7962033748626709	4550.027741778516
0.7989648580551147	5769.512300429247
0.801745593547821	6957.966827913397
0.8045456409454346	7991.640214274939
0.8073651194572449	8910.36998498174
0.8102040886878967	9485.082292307323
0.8130625486373901	10048.670164660121
0.8159406185150146	11512.079605925803
0.8188382983207703	13872.522681921779
0.8217556476593018	16040.389305509645
0.8246926665306091	18545.337000556865
0.8276493549346924	21876.833510985973
0.8306257724761963	25208.39611270763
0.8336219191551208	28812.959314666572
0.8366377949714661	33150.69254554393
0.8396733403205872	38398.87869239379
0.8427285552024841	44878.6994169625
0.8458034992218018	52476.98116161676
0.8488980531692505	58471.60774759838
0.8520121574401855	63655.64178860771
0.8551458716392517	75546.85602900072
0.8582990765571594	89843.52205372704
0.8614717125892639	99381.16880195848
0.8646637797355652	109660.0849050376
0.8678751587867737	124979.82467614643
0.8711057901382446	143011.38575942352
0.8743556141853333	159005.72213000155
0.87762451171875	164358.23344005764
0.8809124231338501	146289.63768161292
0.8842192888259888	115873.02614474628
0.8875449895858765	96710.0212928393
0.8908893465995789	85455.12513270088
0.894252359867096	79916.2724710283
0.8976338505744934	106577.7007877265
0.9010337591171265	178860.8996791709
0.9044519662857056	266219.08943400014
0.9078882932662964	317119.21760752425
0.9113426208496094	322029.20933000854
0.914814829826355	311078.11466856493
0.9183048605918884	321867.07820031454
0.9218124747276306	336577.20061301644
0.925337553024292	263129.6610183988
0.9288799166679382	129388.99665272485
0.9324395060539246	60800.927068709054
0.9360161423683167	71768.22133076444
0.9396095871925354	107561.12938051808
0.943219780921936	126721.5098512824
0.9468464851379395	123498.22265007436
0.9504896402359009	117850.90584240091
0.9541489481925964	112156.39732471509
0.9578243494033813	106097.0301331446
0.9615156054496765	115571.29544852967
0.9652225375175476	158098.24783777265
0.9689450263977051	215437.53963287597
0.9726828336715698	247240.9292649047
0.9764357805252075	264563.63624168374
0.9802037477493286	285057.9766724278
0.983986496925354	296741.23157775955
0.9877838492393494	318319.94626770896
0.9915955662727356	379373.1527248117
0.9954215884208679	488417.50398855895
0.9992615580558777	652737.3469957354
1.0031154155731201	858502.9381204719
1.0069829225540161	1036036.8381875018
1.0108637809753418	1142922.0676891624
1.0147579908370972	1200602.7482591358
1.018665075302124	1233594.0247528714
1.022585153579712	1301876.468702764
1.0265177488327026	1436850.1379228868
1.0304628610610962	1542112.7048256285
1.0344202518463135	1606930.1990238994
1.0383895635604858	1756362.6372874214
1.0423706769943237	1963006.889523565
1.0463634729385376	2121915.1683580363
1.0503677129745483	2261644.117305521
1.0543830394744873	2424386.2561694332
1.058409333229065	2548823.8855125112
1.0624464750289917	2608830.6665203623
1.0664942264556885	2610654.2424803614
1.0705522298812866	2566408.069401751
1.0746204853057861	2554466.1663319753
1.0786986351013184	2555507.6567263226
1.0827864408493042	2469860.6087186504
1.086883783340454	2161023.8885486363
1.0909905433654785	1593528.0444268463
1.0951062440872192	1013370.6908171013
1.0992310047149658	623913.5072232579
1.10336434841156	381010.3065520487
1.1075061559677124	222476.26695192332
1.1116561889648438	125512.1538305444
1.115814208984375	74150.3104800072
1.1199802160263062	58513.99882107039
1.124153733253479	58991.576047857896
1.1283347606658936	63812.23322190916
1.1325229406356812	59420.22868860781
1.1367181539535522	72747.81959619347
1.1409201622009277	105629.6977729217
1.145128846168518	106362.78386760766
1.1493438482284546	79760.72750865939
1.1535650491714478	55975.24860890201
1.1577922105789185	45983.950790896015
1.1620250940322876	45122.366625633265
1.1662636995315552	54763.99348923993
1.170507550239563	92256.27891040091
1.174756646156311	153267.17091287224
1.1790107488632202	237490.57653155157
1.1832695007324219	340932.11650923576
1.1875330209732056	441398.96854237805
1.191800832748413	574094.018798551
1.1960728168487549	754373.7023766097
1.2003488540649414	934765.8347943255
1.2046287059783936	1125409.507236365
1.2089121341705322	1296526.1392541856
1.2131990194320679	1431854.2692715458
1.2174891233444214	1588149.9825090829
1.2217823266983032	1787326.9575320284
1.2260783910751343	2063135.3564178569
1.230377197265625	2393555.220770078
1.2346785068511963	2716026.8294932707
1.238982081413269	3042430.3681160556
1.2432878017425537	3386623.1254986804
1.2475954294204712	3687355.5083003137
1.2519049644470215	3871696.9124067235
1.256216049194336	4093088.8397697182
1.2605286836624146	4352945.164474954
1.2648425102233887	4383806.246217236
1.2691574096679688	4148391.7031399333
1.2734732627868652	3742428.8655777187
1.2777899503707886	3286233.618700422
1.2821072340011597	2802159.3455155846
1.2864248752593994	2295981.6642794516
1.2907428741455078	1943393.5415291223
1.2950609922409058	1811028.159153614
1.2993791103363037	1713382.4123522465
1.303696870803833	1527631.7679155231
1.3080145120620728	1323717.0366291679
1.3123314380645752	1101845.0446794725
1.3166478872299194	951103.7289048475
1.3209635019302368	925879.9388540293
1.3252781629562378	805116.6169969989
1.3295916318893433	496015.5238128768
1.3339040279388428	196663.5828829718
1.3382149934768677	62009.71286825692
1.3425244092941284	24247.40777663275
1.3468321561813354	9377.71254974789
1.3511382341384888	4234.5592252473625
1.3554422855377197	1995.3511506381958
1.3597444295883179	1315.3208603973655
1.3640443086624146	1808.5278215558021
1.3683418035507202	2445.606439530364
1.3726370334625244	3807.6260047823207
1.3769296407699585	5749.686622813207
1.381219506263733	5309.478438843369
1.3855066299438477	3820.2437004847
1.3897908926010132	3919.013039588725
1.3940720558166504	4286.797225226964
1.3983501195907593	4399.611394701891
1.4026249647140503	4695.345036798493
1.4068963527679443	4926.011359068537
1.4111642837524414	5623.959192214327
1.4154287576675415	6714.395922279234
1.419689416885376	7002.900742022
1.4239463806152344	8712.70903802689
1.4281994104385376	14813.127761068288
1.4324485063552856	19903.968833796385
1.436693549156189	21117.079865870477
1.440934419631958	24780.138476395074
1.4451709985733032	34705.53979452269
1.449403166770935	52666.70253363224
1.453631043434143	70679.07510530401
1.4578542709350586	78837.06020749235
1.4620729684829712	73228.56391860794
1.4662868976593018	57023.1698061433
1.4704961776733398	38431.33367992199
1.4747005701065063	27866.666219365878
1.4788999557495117	30363.20572150589
1.4830944538116455	36194.94426011741
1.4872838258743286	38453.374396059546
1.491468071937561	38410.207808111874
1.4956470727920532	44335.2975552716
1.4998208284378052	58706.79252964307
1.5039892196655273	65234.62460251257
1.5081522464752197	56617.8341337199
1.5123097896575928	44114.44584560107
1.5164618492126465	47739.75667827792
1.5206083059310913	76568.75687487827
1.5247491598129272	109722.65316681717
1.5288842916488647	140208.75768754465
1.5330137014389038	173761.7566611796
1.5371372699737549	201867.79790403065
1.541254997253418	230759.23834649113
1.545366883277893	267695.5112082687
1.5494728088378906	310057.9415335872
1.5535727739334106	377324.7868765432
1.5576666593551636	495808.84317558643
1.561754584312439	691091.596408838
1.5658363103866577	931981.0174187617
1.5699119567871094	1087500.1654440565
1.5739814043045044	1156582.3513642503
1.5780447721481323	1264247.5875146387
1.582101821899414	1385955.185507232
1.5861525535583496	1429656.5903230484
1.5901970863342285	1379477.970104275
1.5942351818084717	1276057.2669184883
1.5982669591903687	1138016.5604566033
1.6022924184799194	947727.6742102163
1.606311559677124	750767.4789795856
1.6103241443634033	595526.6971921695
1.6143304109573364	435358.2815604483
1.6183301210403442	286578.35745822533
1.6223233938217163	224179.47836846745
1.6263102293014526	223134.252098488
1.6302905082702637	240799.83291457783
1.634264349937439	285360.47109881265
1.638231635093689	351854.5414576414
1.6421923637390137	363492.60719217826
1.646146535873413	288583.9737889503
1.6500942707061768	268204.907887072
1.6540353298187256	293981.9246512663
1.6579699516296387	285794.25476427743
1.661897897720337	284291.3012082596
1.6658192873001099	188030.99649123842
1.6697341203689575	67951.27807830929
1.6736423969268799	70126.00877499073
1.677544116973877	95408.57179720039
1.6814392805099487	86527.26271861258
1.6853278875350952	75549.17087423809
1.6892099380493164	63175.07135796832
1.6930854320526123	44091.70790733393
1.696954369544983	30015.595108789876
1.7008168697357178	22608.073517143876
1.7046726942062378	24344.677016028265
1.708522081375122	40101.65606791264
1.712364912033081	62391.19366223921
1.7162011861801147	91714.76761807798
1.7200311422348022	114552.73063831544
1.723854422569275	105484.55622171117
1.7276713848114014	91749.31836174898
1.731481909751892	92259.949859601
1.7352858781814575	103126.07103037527
1.7390835285186768	132569.71585347297
1.7428747415542603	167982.45538609076
1.7466596364974976	192754.25409826796
1.7504380941390991	195296.7036085
1.7542102336883545	163873.53796660062
1.7579760551452637	125267.20981524744
1.7617355585098267	108764.80780349587
1.7654887437820435	104443.08908832415
1.7692357301712036	94897.03057215948
1.7729763984680176	81719.232527784
1.776710867881775	87357.78412151797
1.7804391384124756	102902.29240505274
1.7841613292694092	94231.81056653787
1.7878772020339966	74416.80303290668
1.7915871143341064	55873.41228251932
1.7952908277511597	48357.87045303424
1.7989884614944458	55341.877562167
1.8026801347732544	46084.18104028457
1.806365728378296	35714.87565154291
1.8100452423095703	37386.63508316974
1.8137187957763672	36366.70296646678
1.817386507987976	31954.039551508016
1.8210482597351074	39500.06967212066
1.8247040510177612	51629.65924079397
1.828354001045227	38211.92165082061
1.8319982290267944	19615.725688897335
1.8356364965438843	13965.301245640103
1.8392690420150757	15334.65497509885
1.8428958654403687	28363.110379923353
1.8465168476104736	35970.65293884524
1.8501322269439697	33820.27791520719
1.8537418842315674	32651.748484918528
1.8573459386825562	27325.27670466477
1.860944390296936	20486.927426222377
1.864537239074707	15346.059744673132
1.8681244850158691	10134.33450062324
1.871706247329712	8815.835684167598
1.8752825260162354	19630.441132097203
1.8788533210754395	44362.25270860665
1.8824186325073242	61068.35338882195
1.8859784603118896	57723.716474985056
1.8895330429077148	51298.234524959174
1.8930821418762207	58700.20114197173
1.8966259956359863	63685.768626602796
1.9001644849777222	43451.67671012341
1.9036977291107178	25616.893663560044
1.9072256088256836	25869.509212184254
1.9107483625411987	23742.343546035012
1.9142658710479736	18100.61467732056
1.9177782535552979	17819.373740579987
1.9212853908538818	18019.230487084966
1.9247875213623047	15300.165412003953
1.9282845258712769	12020.349010459247
1.9317764043807983	9863.189376395838
1.9352631568908691	8876.9548498559
1.9387450218200684	8177.400031008355
1.942221760749817	9843.82663270103
1.9456936120986938	12387.342100462156
1.9491604566574097	12269.825744668551
1.952622413635254	11439.704790320833
1.956079363822937	14407.550254167898
1.959531545639038	20247.067709380415
1.962978720664978	22842.165950327697
1.966421127319336	23122.27963827414
1.9698586463928223	22782.673295825956
1.9732913970947266	24269.872186188197
1.9767193794250488	30766.235114711122
1.9801424741744995	31532.828574079937
1.9835609197616577	30038.118712779833
1.9869745969772339	36833.585176992805
1.990383505821228	45248.275025548355
1.9937876462936401	59182.73858868419
1.9971871376037598	79297.3692022686
2.000581979751587	89598.92816161929
2.003972291946411	86822.22368408197
2.007357597351074	88418.79145168867
2.0107386112213135	91533.52728487006
2.0141148567199707	81626.49512590552
2.017486572265625	66167.73849328162
2.0208535194396973	66421.10305369229
2.0242159366607666	85522.58837388559
2.027573823928833	100771.02076306357
2.0309269428253174	114017.91624466184
2.034275770187378	130460.23888026636
2.0376198291778564	137322.39323932925
2.040959596633911	142417.91431630377
2.044294595718384	167050.4178174322
2.0476250648498535	197887.29248069186
2.0509510040283203	215141.36884957892
2.054272413253784	234145.86215253078
2.057589530944824	263793.71427712496
2.0609018802642822	290002.9831941933
2.0642096996307373	313891.6738890212
2.0675129890441895	340495.51811719546
2.0708119869232178	365137.3017570725
2.074106216430664	390661.3149110079
2.0773961544036865	410614.00702050014
2.080681324005127	425775.93550464814
2.0839622020721436	445789.5206475863
2.087238311767578	465152.3154647724
2.090510129928589	484107.8563793674
2.0937774181365967	491031.77471925004
2.0970399379730225	483078.520741405
2.1002981662750244	472205.61521640385
2.1035518646240234	468588.93732269126
2.1068007946014404	464486.7362498073
2.1100454330444336	448945.17557046976
2.1132853031158447	439475.79106935277
2.116520881652832	423536.79531773255
2.1197516918182373	401282.9128150837
2.1229779720306396	387829.82776476495
2.12619948387146	374872.1714577687
2.1294167041778564	363723.6853093318
2.132629156112671	357359.68676232366
2.1358368396759033	347823.7226192117
2.139039993286133	323756.9762608101
2.1422386169433594	276731.3507321273
2.145432472229004	230328.6137774781
2.1486217975616455	212484.08113953823
2.151806354522705	203159.48813537892
2.1549863815307617	185488.27675337598
2.1581614017486572	166172.716529117
2.16133189201355	143337.6244640113
2.1644976139068604	123873.40932018097
2.167658567428589	109472.55103606313
2.1708147525787354	101211.06811314415
2.173966407775879	101414.0162282842
2.1771130561828613	96220.47505063804
2.1802549362182617	86511.76081341272
2.183391809463501	77618.80774202844
2.1865241527557373	70570.05610405943
2.1896514892578125	58379.01196598673
2.1927738189697266	37318.294011834165
2.1958916187286377	19092.458102955537
2.1990041732788086	8549.173401825108
2.2021119594573975	4090.965068873603
2.2052149772644043	5106.679979783399
2.208312749862671	9110.159364480813
2.2114057540893555	12823.595265597547
2.214493751525879	14750.879278875174
2.217576742172241	15617.374382771617
2.2206547260284424	14649.262326631746
2.2237277030944824	12634.671398573068
2.2267956733703613	10693.010272236072
2.2298583984375	8387.568903701065
2.2329163551330566	7564.896406931681
2.235969066619873	7556.596283613299
2.2390167713165283	6155.599156083037
2.2420592308044434	4955.835369164603
2.2450966835021973	4292.199857275591
2.248128890991211	3293.515821119908
2.2511560916900635	2700.3557514156473
2.254178285598755	2452.3687036297465
2.257194995880127	2303.0514507509415
2.260206699371338	2416.8931918017806
2.2632133960723877	2543.2562856892855
2.266214609146118	2753.1873831590856
2.2692108154296875	3125.906453328053
2.2722020149230957	3528.515153353854
2.2751877307891846	3499.12543144361
2.278168201446533	3371.0519792403534
2.2811436653137207	3268.214945973453
2.284113883972168	2577.358518793247
2.287078857421875	2064.1941179693526
2.290038824081421	1908.8299911079787
2.2929933071136475	1727.5664403922779
2.295942783355713	1777.3905037144257
2.298887014389038	2106.1288871558445
2.301826238632202	2532.4744071308182
2.304760217666626	3536.085267769489
2.3076889514923096	6854.848535932986
2.310612440109253	12576.953007574604
2.3135311603546143	14118.8287277547
2.3164443969726562	7858.64498733171
2.319352865219116	2087.186545167202
2.322256088256836	1261.4192061572896
2.3251543045043945	1698.2158543675605
2.328047275543213	1823.303586741085
2.330935478210449	2009.6474616011715
2.3338186740875244	2363.449533656791
2.3366971015930176	2597.712460224534
2.3395702838897705	2677.8725095535237
2.3424389362335205	2763.531847670145
2.3453025817871094	2508.5858773865325
2.348161458969116	2294.8286027615086
2.351015567779541	2673.311327733641
2.353865146636963	3240.3623458823035
2.3567099571228027	4076.4496530942333
2.3595502376556396	5702.723726881454
2.3623859882354736	7289.4144996251225
2.3652172088623047	7329.322225130286
2.368043899536133	5552.945804366243
2.370866537094116	3034.259936858829
2.3736846446990967	1998.0749620869187
2.3764986991882324	2972.5055049946923
2.3793084621429443	3876.569721488295
2.3821144104003906	3738.7908298000502
2.384916305541992	4305.370688962884
2.387714147567749	6093.326859761485
2.3905084133148193	6880.131413446128
2.393299102783203	6383.763460665802
2.3960859775543213	6335.062861371095
2.398869514465332	7853.1822776265635
2.4016497135162354	10333.812109165203
2.4044265747070312	12342.322278199706
2.407200336456299	13424.04196920752
2.409970998764038	17122.247496804623
2.4127390384674072	21658.495725484485
2.415503978729248	19507.852026757606
2.418266534805298	14882.81748239898
2.4210267066955566	13412.028651270792
2.4237842559814453	11657.839176047946
2.426539897918701	11217.04925566305
2.429293394088745	15741.633543842807
2.4320452213287354	19512.087947374235
2.4347951412200928	19635.48193827019
2.4375438690185547	24500.58962339049
2.440291166305542	32735.543253913314
2.443037271499634	34223.58825109088
2.445782423019409	30878.740666931244
2.4485268592834473	29612.74923811526
2.451270818710327	31148.718896389273
2.454014539718628	35007.76977189122
2.4567582607269287	41063.05713914236
2.4595019817352295	46664.671195569455
2.4622461795806885	53638.581778346714
2.4649908542633057	62076.90701646092
2.4677364826202393	60128.382155179606
2.4704833030700684	51840.56988703225
2.473231554031372	48877.36861005332
2.4759814739227295	52088.58133191352
2.4787333011627197	54425.84936424661
