#wavelength	surface flux
0.6450077295303345	67790.77994955596
0.6472567915916443	108208.47807251614
0.6494921445846558	144442.621998928
0.6517150402069092	170121.35774729087
0.6539263725280762	197535.32251530592
0.6561272740364075	227462.72214384674
0.6583186388015747	259857.24215016537
0.6605015397071838	294456.2664503795
0.6626768708229065	330339.148631425
0.6648455858230591	364199.20457253174
0.6670085787773132	376717.82373998355
0.6691668033599854	336857.0555165317
0.6713210344314575	322184.9710244746
0.6734722256660461	426078.3745838784
0.6756211519241333	553730.6396828489
0.6777685880661011	627889.3836896168
0.6799154281616211	680373.4012260892
0.6820623278617859	726146.4726405811
0.6842101216316223	767075.4576257087
0.6863595843315125	802700.0351767793
0.688511312007904	830791.8931604396
0.6906660795211792	848125.5510170622
0.6928245425224304	857420.3717426191
0.6949873566627502	866417.6560906686
0.6971551775932312	873141.6306987805
0.6993286609649658	869819.4874962636
0.7015084028244019	856839.5715761269
0.7036949396133423	837931.8531102112
0.7058889269828796	813759.821024046
0.7080909013748169	783753.2257442429
0.710301399230957	748325.9551900594
0.712520956993103	708181.8035174541
0.7147500514984131	662486.9134137599
0.7169892191886902	612442.6647604572
0.7192389369010925	563816.3107791558
0.7214996814727783	517043.4938854987
0.723771870136261	468335.06903894123
0.7260559797286987	418881.04415395705
0.7283523678779602	371281.2265801054
0.7306615710258484	326020.13223737857
0.7329838871955872	283388.93982174725
0.7353196740150452	243367.34567219444
0.7376693487167358	205648.2595049304
0.7400332689285278	170799.39251277733
0.7424117922782898	139211.96262555456
0.7448052167892456	111076.09510476349
0.7472138404846191	86502.18079202792
0.7496379613876343	65519.654357875545
0.7520779371261597	48088.190972445336
0.7545340061187744	34053.67678171691
0.7570064663887024	23169.802592823467
0.7594954967498779	15076.463417644738
0.7620013952255249	9224.60953806997
0.7645244002342224	5050.265117901389
0.7670646905899048	2787.1134049122634
0.7696225643157959	3044.045647366876
0.7721980810165405	6277.851845203495
0.7747915983200073	12399.538183499957
0.7774031162261963	20061.99107027054
0.7800329327583313	31343.09105586688
0.7826811671257019	52565.041934759465
0.7853479981422424	83145.16505090737
0.7880334854125977	119869.86161797633
0.7907378077507019	155416.35745492962
0.7934610247612	181118.20461299858
0.7962033748626709	240948.62979268082
0.7989648580551147	356103.7266111674
0.801745593547821	478927.9335031073
0.8045456409454346	599921.9127939864
0.8073651194572449	734595.5044612186
0.8102040886878967	883929.0959561836
0.8130625486373901	1050759.9166625573
0.8159406185150146	1235432.8513028896
0.8188382983207703	1440535.021542381
0.8217556476593018	1686349.8726970637
0.8246926665306091	1972159.2112324291
0.8276493549346924	2274773.935367809
0.8306257724761963	2591034.105618031
0.8336219191551208	2931715.15514004
0.8366377949714661	3302127.388951243
0.8396733403205872	3702195.467256598
0.8427285552024841	4131212.6042882367
0.8458034992218018	4549267.871044303
0.8488980531692505	4707836.773940258
0.8520121574401855	4774792.466479066
0.8551458716392517	5551751.364782859
0.8582990765571594	6489619.631729363
0.8614717125892639	6594773.950501803
0.8646637797355652	6600395.45598455
0.8678751587867737	7157507.541384343
0.8711057901382446	7832733.818860822
0.8743556141853333	8515159.744792392
0.87762451171875	9308582.054998275
0.8809124231338501	10030854.647048173
0.8842192888259888	10700499.44520455
0.8875449895858765	11317038.119421095
0.8908893465995789	11274346.373268912
0.894252359867096	11004790.802439054
0.8976338505744934	12584424.023271395
0.9010337591171265	15349666.267201161
0.9044519662857056	17456947.11787654
0.9078882932662964	19002575.076121423
0.9113426208496094	20281301.851409413
0.914814829826355	21477092.513743497
0.9183048605918884	22789070.66844579
0.9218124747276306	23819326.04552807
0.925337553024292	22671914.94178512
0.9288799166679382	19550592.22256996
0.9324395060539246	18548635.610557042
0.9360161423683167	21085068.254938707
0.9396095871925354	24530313.797548715
0.943219780921936	26426231.313009564
0.9468464851379395	26946839.033293243
0.9504896402359009	27587864.01028125
0.9541489481925964	28151152.999944087
0.9578243494033813	28377088.310698174
0.9615156054496765	29235857.807248887
0.9652225375175476	31497728.944451347
0.9689450263977051	34514596.755719
0.9726828336715698	37182327.56656804
0.9764357805252075	39754827.147661
0.9802037477493286	42541961.62262943
0.983986496925354	45070362.483730674
0.9877838492393494	46146665.68981505
0.9915955662727356	45084053.83844916
0.9954215884208679	42732205.72392483
0.9992615580558777	39172727.4758882
1.0031154155731201	37560141.65191358
1.0069829225540161	39974502.60490682
1.0108637809753418	43784436.14620699
1.0147579908370972	47644184.44936323
1.018665075302124	51294227.54511537
1.022585153579712	54425236.66133932
1.0265177488327026	56877930.76553016
1.0304628610610962	59664214.95334396
1.0344202518463135	63380719.612409666
1.0383895635604858	67117331.7262673
1.0423706769943237	70266183.38173158
1.0463634729385376	72807968.97242434
1.0503677129745483	74495927.92751272
1.0543830394744873	75811683.4388199
1.058409333229065	77667155.72097264
1.0624464750289917	80409699.95251551
1.0664942264556885	83830524.63580018
1.0705522298812866	87538479.4490013
1.0746204853057861	91443909.87803578
1.0786986351013184	95178916.11873516
1.0827864408493042	97858955.27544133
1.086883783340454	97236959.43325618
1.0909905433654785	90893021.54379949
1.0951062440872192	80050887.18410695
1.0992310047149658	68153038.32308348
1.10336434841156	56649179.28141899
1.1075061559677124	46030874.59757745
1.1116561889648438	37610832.3209405
1.115814208984375	33790847.498615704
1.1199802160263062	34921283.8022341
1.124153733253479	39312594.44083521
1.1283347606658936	41415058.55255091
1.1325229406356812	35941631.76938546
1.1367181539535522	31830613.672075618
1.1409201622009277	35321767.96377845
1.145128846168518	41206132.767472595
1.1493438482284546	45103104.7885431
1.1535650491714478	44382620.514706954
1.1577922105789185	42139262.15231276
1.1620250940322876	40483714.36370401
1.1662636995315552	37429161.698238775
1.170507550239563	35288565.25770561
1.174756646156311	35032887.65982604
1.1790107488632202	38415565.62453929
1.1832695007324219	48495151.04465137
1.1875330209732056	59975931.45241028
1.191800832748413	68971204.64490668
1.1960728168487549	76557928.62805827
1.2003488540649414	83018146.06327714
1.2046287059783936	89282766.94641322
1.2089121341705322	95250588.02637447
1.2131990194320679	100780635.05521202
1.2174891233444214	106322181.68197863
1.2217823266983032	111166776.60214444
1.2260783910751343	115718023.63294539
1.230377197265625	119534253.64854473
1.2346785068511963	120238888.06022683
1.238982081413269	113788268.59854823
1.2432878017425537	103497848.39291778
1.2475954294204712	96314707.71862713
1.2519049644470215	91928887.34309468
1.256216049194336	102717140.47766356
1.2605286836624146	124393277.09529538
1.2648425102233887	136817315.50525957
1.2691574096679688	141653914.80394742
1.2734732627868652	143594974.10803568
1.2777899503707886	144113509.49929798
1.2821072340011597	142784123.34038523
1.2864248752593994	139176691.3053667
1.2907428741455078	135945493.4115479
1.2950609922409058	134241948.24832615
1.2993791103363037	132528720.17380841
1.303696870803833	130304936.24897258
1.3080145120620728	126900155.94066483
1.3123314380645752	120934953.25461377
1.3166478872299194	113924462.85612649
1.3209635019302368	104839311.74825723
1.3252781629562378	87856823.37947108
1.3295916318893433	61472303.98865389
1.3339040279388428	33400545.268535323
1.3382149934768677	15145052.946279306
1.3425244092941284	8356034.27648458
1.3468321561813354	6209093.197227481
1.3511382341384888	4896818.085236212
1.3554422855377197	4025764.098834114
1.3597444295883179	4115054.474449983
1.3640443086624146	5197421.031408804
1.3683418035507202	6182367.341928281
1.3726370334625244	7119950.368484157
1.3769296407699585	8490908.103232857
1.381219506263733	8480132.27926931
1.3855066299438477	7300638.363177063
1.3897908926010132	6625304.014310564
1.3940720558166504	6174188.300548477
1.3983501195907593	6065848.589794591
1.4026249647140503	6505277.884644624
1.4068963527679443	6579435.147435809
1.4111642837524414	6159400.032904858
1.4154287576675415	6034247.427327425
1.419689416885376	6056661.22470175
1.4239463806152344	6266377.249195634
1.4281994104385376	7158839.563525452
1.4324485063552856	8087441.108672172
1.436693549156189	8612267.45428403
1.440934419631958	9222581.314748812
1.4451709985733032	10266008.019312296
1.449403166770935	12211030.079449404
1.453631043434143	14397273.012704588
1.4578542709350586	16106554.356985617
1.4620729684829712	17064787.644809347
1.4662868976593018	17219461.38727904
1.4704961776733398	17519580.33267306
1.4747005701065063	18675394.73179882
1.4788999557495117	20090820.592200678
1.4830944538116455	21130958.442783397
1.4872838258743286	22170438.536322497
1.491468071937561	23627871.64469673
1.4956470727920532	25478745.447849855
1.4998208284378052	27518688.045804564
1.5039892196655273	29680972.21399697
1.5081522464752197	31848539.867987562
1.5123097896575928	34228756.33889778
1.5164618492126465	36672341.19661979
1.5206083059310913	39418357.32010575
1.5247491598129272	42278653.38352338
1.5288842916488647	44730009.1422208
1.5330137014389038	47371589.71670728
1.5371372699737549	49976332.911404274
1.541254997253418	52127570.84436813
1.545366883277893	54575142.74751624
1.5494728088378906	56852073.43679247
1.5535727739334106	58324957.32280392
1.5576666593551636	60006323.45397744
1.561754584312439	62838057.33468918
1.5658363103866577	66004267.99708567
1.5699119567871094	67998542.85962586
1.5739814043045044	69072154.43805912
1.5780447721481323	70109975.15910818
1.582101821899414	71066710.12902848
1.5861525535583496	71450652.65710111
1.5901970863342285	70987965.81898987
1.5942351818084717	70079237.0610199
1.5982669591903687	68918336.70923401
1.6022924184799194	66908274.47966137
1.606311559677124	64263514.080663875
1.6103241443634033	61558127.8502903
1.6143304109573364	58581456.452535674
1.6183301210403442	55609079.965271376
1.6223233938217163	53651970.12003036
1.6263102293014526	52706003.135163516
1.6302905082702637	52474482.17586252
1.634264349937439	53504567.89470172
1.638231635093689	55827376.68613538
1.6421923637390137	57392128.64763085
1.646146535873413	57196081.298433386
1.6500942707061768	57245163.2075263
1.6540353298187256	56480823.244418725
1.6579699516296387	55367964.198967025
1.661897897720337	52032046.04615254
1.6658192873001099	37904338.21889495
1.6697341203689575	28233288.65641212
1.6736423969268799	36833096.60156153
1.677544116973877	46393991.61270515
1.6814392805099487	47506842.318746604
1.6853278875350952	45193859.622101955
1.6892099380493164	42335200.38612928
1.6930854320526123	39409502.41246346
1.696954369544983	36649951.87363915
1.7008168697357178	34769011.29052414
1.7046726942062378	34492452.89948754
1.708522081375122	35660741.64826121
1.712364912033081	36472625.35805492
1.7162011861801147	36726846.04223642
1.7200311422348022	37002285.43619598
1.723854422569275	36013582.85379358
1.7276713848114014	34416706.95614296
1.731481909751892	33053167.152632233
1.7352858781814575	31602562.242121454
1.7390835285186768	30388546.20636316
1.7428747415542603	29506840.90981918
1.7466596364974976	28484291.668260373
1.7504380941390991	26973069.750356615
1.7542102336883545	24572450.88084589
1.7579760551452637	22433445.414999094
1.7617355585098267	21423440.496138833
1.7654887437820435	19953086.46319785
1.7692357301712036	17908465.86907572
1.7729763984680176	16236631.319971796
1.776710867881775	15016717.35316994
1.7804391384124756	14158964.957735747
1.7841613292694092	12903935.91787434
1.7878772020339966	11958710.87773701
1.7915871143341064	11246526.194097128
1.7952908277511597	10562480.073121797
1.7989884614944458	10231050.96241726
1.8026801347732544	9089095.070064921
1.806365728378296	8467948.598923512
1.8100452423095703	9005622.189114682
1.8137187957763672	9560313.676963016
1.817386507987976	9062902.7338606
1.8210482597351074	8962596.87757579
1.8247040510177612	10074598.212923728
1.828354001045227	9587716.13433829
1.8319982290267944	8352777.347055712
1.8356364965438843	7852776.3716504015
1.8392690420150757	7797331.58122198
1.8428958654403687	8328856.011466123
1.8465168476104736	8310546.822015719
1.8501322269439697	7992402.268468489
1.8537418842315674	7665655.842022605
1.8573459386825562	6631377.099172324
1.860944390296936	5748558.446064074
1.864537239074707	5497111.747130424
1.8681244850158691	5500122.169240693
1.871706247329712	6053274.065701041
1.8752825260162354	7612809.726796725
1.8788533210754395	9884866.927174978
1.8824186325073242	11575448.661768828
1.8859784603118896	11913405.364922168
1.8895330429077148	11889288.172556037
1.8930821418762207	13030298.35210156
1.8966259956359863	14045375.667258818
1.9001644849777222	13070749.70455375
1.9036977291107178	12080010.072807865
1.9072256088256836	12613819.873555409
1.9107483625411987	12623123.020327056
1.9142658710479736	11948514.866384588
1.9177782535552979	12026643.451985905
1.9212853908538818	11463799.914851973
1.9247875213623047	10396293.000172019
1.9282845258712769	9633368.945327166
1.9317764043807983	8878717.462184256
1.9352631568908691	8227468.055587367
1.9387450218200684	7464868.13908194
1.942221760749817	7689220.832321534
1.9456936120986938	8635676.008615928
1.9491604566574097	9179023.45166848
1.952622413635254	9192433.648631245
1.956079363822937	8775156.051326904
1.959531545639038	8909631.487604542
1.962978720664978	9533156.891999248
1.966421127319336	10518272.53536133
1.9698586463928223	11173769.499233678
1.9732913970947266	10894312.718566759
1.9767193794250488	11158284.21514362
1.9801424741744995	11880707.698728671
1.9835609197616577	12877977.204226268
1.9869745969772339	13674893.001422513
1.990383505821228	13374827.07242541
1.9937876462936401	14198487.29486733
1.9971871376037598	15519637.581964836
2.000581979751587	16259204.311451621
2.003972291946411	17331990.935506057
2.007357597351074	17405502.22682922
2.0107386112213135	17794164.77347102
2.0141148567199707	19141606.528971046
2.017486572265625	19514435.052768126
2.0208535194396973	20744310.287094083
2.0242159366607666	22409254.35640654
2.027573823928833	22216487.5361948
2.0309269428253174	22561804.711726535
2.034275770187378	24281799.63209568
2.0376198291778564	25208466.850246057
2.040959596633911	25290986.874866154
2.044294595718384	26091100.50343258
2.0476250648498535	27370323.85732724
2.0509510040283203	27620989.70554612
2.054272413253784	27829119.03843884
2.057589530944824	29229028.398998164
2.0609018802642822	29884801.94150237
2.0642096996307373	29746222.444832172
2.0675129890441895	30280480.44877857
2.0708119869232178	30654296.679524135
2.074106216430664	30587175.459718358
2.0773961544036865	30695440.98274236
2.080681324005127	31024891.710777696
2.0839622020721436	31247317.198648933
2.087238311767578	31376473.295412064
2.090510129928589	31571738.950934023
2.0937774181365967	31588459.994781848
2.0970399379730225	31448687.722152013
2.1002981662750244	31191459.99067775
2.1035518646240234	30841726.434938435
2.1068007946014404	30542609.08935284
2.1100454330444336	30359539.488517627
2.1132853031158447	30391470.53270995
2.116520881652832	30134105.50292026
2.1197516918182373	29738989.505202625
2.1229779720306396	29695829.959383138
2.12619948387146	29551305.40501446
2.1294167041778564	29157647.250549234
2.132629156112671	28922569.54225278
2.1358368396759033	28655680.88975919
2.139039993286133	27982655.08307354
2.1422386169433594	26987329.764099225
2.145432472229004	26062531.352726135
2.1486217975616455	25612253.347410224
2.151806354522705	25439680.136455912
2.1549863815307617	25281729.89250388
2.1581614017486572	24863341.06505232
2.16133189201355	24175418.755479895
2.1644976139068604	23620906.57616696
2.167658567428589	23058639.98705284
2.1708147525787354	22431516.32563057
2.173966407775879	21725441.10461659
2.1771130561828613	20918236.309733506
2.1802549362182617	20225707.162700146
2.183391809463501	19363455.92434477
2.1865241527557373	18261727.123947665
2.1896514892578125	16989713.737827934
2.1927738189697266	15325057.432448212
2.1958916187286377	12953715.937146913
2.1990041732788086	10171125.503691211
2.2021119594573975	8119981.8508921405
2.2052149772644043	7443977.498040654
2.208312749862671	7978948.7781881895
2.2114057540893555	9109450.3554031
2.214493751525879	10192705.245059691
2.217576742172241	10821835.861376146
2.2206547260284424	11013763.69966397
2.2237277030944824	10845665.124488443
2.2267956733703613	10178016.640457101
2.2298583984375	9509255.059321702
2.2329163551330566	9161200.626779946
2.235969066619873	8896455.953273006
2.2390167713165283	8475922.622854838
2.2420592308044434	7874706.271063079
2.2450966835021973	7384198.088964552
2.248128890991211	7161573.350370144
2.2511560916900635	7064306.307640055
2.254178285598755	6985648.063939554
2.257194995880127	6965249.43461864
2.260206699371338	6930607.547769146
2.2632133960723877	6922364.526454493
2.266214609146118	6959386.184377766
2.2692108154296875	6922708.639645576
2.2722020149230957	6858862.434804511
2.2751877307891846	6749944.750178897
2.278168201446533	6599096.944221075
2.2811436653137207	6308926.418748761
2.284113883972168	5868368.35061576
2.287078857421875	5543919.610581865
2.290038824081421	5197770.289798444
2.2929933071136475	4931506.201016151
2.295942783355713	5056428.230080291
2.298887014389038	5563571.484412559
2.301826238632202	6203558.880819069
2.304760217666626	7035533.978487558
2.3076889514923096	8442243.278181942
2.310612440109253	9871915.830788447
2.3135311603546143	9717910.165117726
2.3164443969726562	7102766.817274868
2.319352865219116	4585948.204676721
2.322256088256836	4069096.515794137
2.3251543045043945	4107720.460075271
2.328047275543213	4086765.9525171667
2.330935478210449	4229774.712202161
2.3338186740875244	4400941.341982183
2.3366971015930176	4510775.145759045
2.3395702838897705	4568484.208331667
2.3424389362335205	4567955.449527789
2.3453025817871094	4504017.5891299145
2.348161458969116	4549399.611012184
2.351015567779541	4812368.064561844
2.353865146636963	5185798.7119925385
2.3567099571228027	5556693.380547189
2.3595502376556396	6135614.5991213685
2.3623859882354736	6847967.046638638
2.3652172088623047	7145405.731048967
2.368043899536133	6352716.506470406
2.370866537094116	4614053.776128296
2.3736846446990967	3855134.6421453357
2.3764986991882324	4213660.143688532
2.3793084621429443	4301984.859034322
2.3821144104003906	4182575.0741270143
2.384916305541992	4548352.295454826
2.387714147567749	5379056.102516922
2.3905084133148193	5809279.269949539
2.393299102783203	5819932.012968629
2.3960859775543213	6051026.942845847
2.398869514465332	6584533.95874466
2.4016497135162354	7017257.957245513
2.4044265747070312	7183195.675135337
2.407200336456299	7137779.027784875
2.409970998764038	7368565.100568371
2.4127390384674072	7882521.438555715
2.415503978729248	7688273.332014276
2.418266534805298	7299520.2659000205
2.4210267066955566	7534152.398706793
2.4237842559814453	7490892.181516021
2.426539897918701	7154339.890384144
2.429293394088745	7506042.755571534
2.4320452213287354	8020667.069210359
2.4347951412200928	7668577.213438218
2.4375438690185547	7687737.072542522
2.440291166305542	8340267.155020154
2.443037271499634	8125482.23395118
2.445782423019409	7605994.619711853
2.4485268592834473	7603598.3336817715
2.451270818710327	7461536.409843868
2.454014539718628	7370899.59501797
2.4567582607269287	8017473.110427437
2.4595019817352295	8144302.405958195
2.4622461795806885	8213193.571528969
2.4649908542633057	8635071.2223458
2.4677364826202393	7848291.284149428
2.4704833030700684	6900285.551618131
2.473231554031372	6573997.136875463
2.4759814739227295	6642842.196944627
2.4787333011627197	6925098.198978341
2.481487512588501	7080796.827569041
2.4842441082000732	7743787.315144649
