#wavelength	surface flux
0.6450077295303345	27373.557433175163
0.6472567915916443	43823.7198439197
0.6494921445846558	58837.842606638835
0.6517150402069092	69827.0951210399
0.6539263725280762	81754.95620217537
0.6561272740364075	94949.97077201767
0.6583186388015747	109418.00549311248
0.6605015397071838	125102.29953040268
0.6626768708229065	141728.4435260507
0.6648455858230591	158315.0600799197
0.6670085787773132	167785.77430322315
0.6691668033599854	156789.14641618065
0.6713210344314575	154953.9512185899
0.6734722256660461	199328.63080885098
0.6756211519241333	251610.78969140508
0.6777685880661011	282441.96045436134
0.6799154281616211	305694.9872549388
0.6820623278617859	326510.7139343573
0.6842101216316223	345255.3703663184
0.6863595843315125	361574.70641017635
0.688511312007904	374388.78160005953
0.6906660795211792	382202.52324702794
0.6928245425224304	386217.67696764634
0.6949873566627502	389715.17512255337
0.6971551775932312	391647.7922832195
0.6993286609649658	388764.26460556936
0.7015084028244019	381350.6715630155
0.7036949396133423	371071.77960842033
0.7058889269828796	358332.97699104116
0.7080909013748169	342884.0592718378
0.710301399230957	324883.720482131
0.712520956993103	304715.2116481894
0.7147500514984131	281987.8647564924
0.7169892191886902	257334.18905751797
0.7192389369010925	233880.41099857778
0.7214996814727783	211963.9463999648
0.723771870136261	189600.76004021426
0.7260559797286987	167392.41246093583
0.7283523678779602	146561.63333337283
0.7306615710258484	127252.5378363013
0.7329838871955872	109572.57267261385
0.7353196740150452	93408.4220584675
0.7376693487167358	78519.88149162997
0.7400332689285278	65117.94930478708
0.7424117922782898	53280.36107390703
0.7448052167892456	42964.881447944215
0.7472138404846191	34109.76832584123
0.7496379613876343	26638.125800353926
0.7520779371261597	20461.30735617177
0.7545340061187744	15454.172955482385
0.7570064663887024	11449.2194985522
0.7594954967498779	8230.825587917208
0.7620013952255249	5545.621857342424
0.7645244002342224	3248.503613250752
0.7670646905899048	1828.482922250665
0.7696225643157959	1992.240436484027
0.7721980810165405	4009.707188812457
0.7747915983200073	7435.387075248576
0.7774031162261963	11171.66871136744
0.7800329327583313	15944.205384211944
0.7826811671257019	24491.866574283853
0.7853479981422424	36565.64027373961
0.7880334854125977	50887.548828258085
0.7907378077507019	64851.13757582165
0.7934610247612	75266.92399715405
0.7962033748626709	99576.17640432285
0.7989648580551147	146545.67361452957
0.801745593547821	198007.66019942987
0.8045456409454346	250559.30897798858
0.8073651194572449	310512.9026291882
0.8102040886878967	378389.2821743509
0.8130625486373901	456121.5912381111
0.8159406185150146	546997.9276609306
0.8188382983207703	652113.9477173727
0.8217556476593018	773081.6786420153
0.8246926665306091	912631.0417496118
0.8276493549346924	1067033.776183333
0.8306257724761963	1232020.915939571
0.8336219191551208	1411861.2912684574
0.8366377949714661	1609895.9137833014
0.8396733403205872	1826367.224951501
0.8427285552024841	2061881.711402772
0.8458034992218018	2297019.8086218177
0.8488980531692505	2405069.771839423
0.8520121574401855	2469622.205970769
0.8551458716392517	2898631.3680521892
0.8582990765571594	3444941.6174920155
0.8614717125892639	3653286.042549138
0.8646637797355652	3818903.9483810845
0.8678751587867737	4191613.0233241604
0.8711057901382446	4614517.513853176
0.8743556141853333	5043859.408403126
0.87762451171875	5502789.607658797
0.8809124231338501	5893104.59933925
0.8842192888259888	6227247.16279564
0.8875449895858765	6530874.343156665
0.8908893465995789	6466049.109983277
0.894252359867096	6288759.404807377
0.8976338505744934	7246077.833306506
0.9010337591171265	8975247.290182153
0.9044519662857056	10350068.532351203
0.9078882932662964	11336610.199049085
0.9113426208496094	12085690.026627772
0.914814829826355	12757483.957821278
0.9183048605918884	13537683.965319376
0.9218124747276306	14160923.152628932
0.925337553024292	13243886.907994134
0.9288799166679382	10875765.635942796
0.9324395060539246	9949628.157278817
0.9360161423683167	11554301.397269592
0.9396095871925354	13864313.50283512
0.943219780921936	15025970.163024906
0.9468464851379395	15174650.969048804
0.9504896402359009	15492919.360093568
0.9541489481925964	15823626.218334138
0.9578243494033813	15943309.296491927
0.9615156054496765	16540963.2513481
0.9652225375175476	18143219.789651867
0.9689450263977051	20254877.38203938
0.9726828336715698	22051082.30080346
0.9764357805252075	23710480.939956438
0.9802037477493286	25493682.499667224
0.983986496925354	27191045.356981326
0.9877838492393494	28516268.12311645
0.9915955662727356	29162709.39155754
0.9954215884208679	28846326.692327827
0.9992615580558777	27468045.681969874
1.0031154155731201	27241352.629540354
1.0069829225540161	29282429.70379145
1.0108637809753418	32010808.716958664
1.0147579908370972	34707478.52973442
1.018665075302124	37232883.9388806
1.022585153579712	39458550.736784205
1.0265177488327026	41340085.267063476
1.0304628610610962	43369118.96051477
1.0344202518463135	45887170.85010885
1.0383895635604858	48465261.74627605
1.0423706769943237	50747705.24474921
1.0463634729385376	52705068.79450812
1.0503677129745483	54280741.23100935
1.0543830394744873	55678356.55749188
1.058409333229065	57192329.64705213
1.0624464750289917	59014596.71853021
1.0664942264556885	61074564.42860709
1.0705522298812866	63136531.5904884
1.0746204853057861	65276534.12159896
1.0786986351013184	67328167.22289717
1.0827864408493042	68521669.04154952
1.086883783340454	66981976.67617668
1.0909905433654785	60954512.28788099
1.0951062440872192	51749389.77356177
1.0992310047149658	42242599.425063156
1.10336434841156	33519497.101904627
1.1075061559677124	25872097.808365546
1.1116561889648438	19988886.700178836
1.115814208984375	17215015.647158187
1.1199802160263062	17745302.447654366
1.124153733253479	20439727.6002421
1.1283347606658936	21901188.046302933
1.1325229406356812	19100177.36864783
1.1367181539535522	17739081.489633348
1.1409201622009277	20583022.539056603
1.145128846168518	23359152.507277213
1.1493438482284546	24588738.19064056
1.1535650491714478	23605667.89562482
1.1577922105789185	22130300.89661554
1.1620250940322876	21572845.32958088
1.1662636995315552	20822151.50619505
1.170507550239563	20850619.560914658
1.174756646156311	21831312.365476403
1.1790107488632202	24828744.78273161
1.1832695007324219	31529599.77096583
1.1875330209732056	38885778.35862518
1.191800832748413	45091983.47183721
1.1960728168487549	50865635.230531424
1.2003488540649414	55948591.99466873
1.2046287059783936	60732184.989418454
1.2089121341705322	65165765.71892023
1.2131990194320679	69212787.67426525
1.2174891233444214	73312866.29376651
1.2217823266983032	76959498.46152
1.2260783910751343	80335709.94358014
1.230377197265625	83331820.89121217
1.2346785068511963	84497193.60965905
1.238982081413269	81251736.09043805
1.2432878017425537	75420959.06053975
1.2475954294204712	70924542.17594771
1.2519049644470215	67959078.40380186
1.256216049194336	75233341.82875772
1.2605286836624146	89587426.6687266
1.2648425102233887	97453009.76017116
1.2691574096679688	100045186.6634045
1.2734732627868652	100657797.59944963
1.2777899503707886	100246689.70109753
1.2821072340011597	98367565.69363575
1.2864248752593994	94881347.31299628
1.2907428741455078	91808810.88437697
1.2950609922409058	89929552.47536764
1.2993791103363037	88060283.09404893
1.303696870803833	85923282.29457562
1.3080145120620728	83134483.74880621
1.3123314380645752	78346211.40792988
1.3166478872299194	72891209.70416385
1.3209635019302368	66480834.03854855
1.3252781629562378	54796809.51294435
1.3295916318893433	37217031.960210495
1.3339040279388428	19456940.336236328
1.3382149934768677	8352543.24638813
1.3425244092941284	4241904.200174637
1.3468321561813354	2949440.6582811647
1.3511382341384888	2237666.630879445
1.3554422855377197	1773037.335951213
1.3597444295883179	1781757.6122430207
1.3640443086624146	2291150.078852901
1.3683418035507202	2782089.6544598537
1.3726370334625244	3308041.1362352823
1.3769296407699585	4061420.1744936053
1.381219506263733	4016130.1205480034
1.3855066299438477	3343346.1551215462
1.3897908926010132	3011165.293624157
1.3940720558166504	2839323.4861140186
1.3983501195907593	2826563.740428348
1.4026249647140503	3073648.579017612
1.4068963527679443	3138313.2528789463
1.4111642837524414	2961088.257158079
1.4154287576675415	2919809.4449115987
1.419689416885376	2943460.7954705902
1.4239463806152344	3107199.1662896997
1.4281994104385376	3676257.762085449
1.4324485063552856	4220652.163602339
1.436693549156189	4503228.6451083785
1.440934419631958	4879889.808762294
1.4451709985733032	5562248.574524301
1.449403166770935	6794812.560601574
1.453631043434143	8170400.433645035
1.4578542709350586	9280012.217820682
1.4620729684829712	9890067.391423423
1.4662868976593018	9915454.589597039
1.4704961776733398	9990262.717675457
1.4747005701065063	10651643.165983535
1.4788999557495117	11549719.639843555
1.4830944538116455	12217103.292891283
1.4872838258743286	12886990.180506798
1.491468071937561	13882421.09347612
1.4956470727920532	15187450.173318567
1.4998208284378052	16639661.572603138
1.5039892196655273	18112560.554578055
1.5081522464752197	19476788.75916172
1.5123097896575928	20944044.53924377
1.5164618492126465	22623203.0630313
1.5206083059310913	24713394.04270008
1.5247491598129272	26885303.77017012
1.5288842916488647	28733840.220126837
1.5330137014389038	30691177.09845507
1.5371372699737549	32607921.688855
1.541254997253418	34217670.39636873
1.545366883277893	36038376.555068366
1.5494728088378906	37733418.051910214
1.5535727739334106	38903492.04942441
1.5576666593551636	40326637.946042925
1.561754584312439	42609421.755302906
1.5658363103866577	45050389.7672316
1.5699119567871094	46526004.0219982
1.5739814043045044	47279178.638226874
1.5780447721481323	48070232.523233786
1.582101821899414	48794087.9745057
1.5861525535583496	48974447.96937047
1.5901970863342285	48433293.13197515
1.5942351818084717	47514979.864511
1.5982669591903687	46381196.56077422
1.6022924184799194	44564042.172589384
1.606311559677124	42221268.89993222
1.6103241443634033	39798998.57608238
1.6143304109573364	37145220.12109361
1.6183301210403442	34551657.22420718
1.6223233938217163	32849311.08725238
1.6263102293014526	32008143.845134787
1.6302905082702637	31775535.143932
1.634264349937439	32636506.891856715
1.638231635093689	34593895.07391701
1.6421923637390137	35878326.60065568
1.646146535873413	35630043.60738527
1.6500942707061768	35654761.85679512
1.6540353298187256	35180666.86804318
1.6579699516296387	34453808.88087777
1.661897897720337	32437327.99969337
1.6658192873001099	22753664.4942115
1.6697341203689575	15683068.162226101
1.6736423969268799	21215428.396794207
1.677544116973877	27670164.87432384
1.6814392805099487	28354835.20037008
1.6853278875350952	26703726.15175289
1.6892099380493164	24739666.822958276
1.6930854320526123	22700064.646643534
1.696954369544983	20791102.894360896
1.7008168697357178	19510780.308165412
1.7046726942062378	19417998.324869137
1.708522081375122	20541741.757364884
1.712364912033081	21534458.662909586
1.7162011861801147	22136796.050685417
1.7200311422348022	22630428.34837568
1.723854422569275	22024748.50985582
1.7276713848114014	21017011.14282138
1.731481909751892	20257687.913641818
1.7352858781814575	19430160.847223353
1.7390835285186768	18784610.848654754
1.7428747415542603	18356402.214876503
1.7466596364974976	17768158.664539453
1.7504380941390991	16767488.259623261
1.7542102336883545	15112266.374470366
1.7579760551452637	13622249.878285812
1.7617355585098267	12898242.890068289
1.7654887437820435	11911071.082144918
1.7692357301712036	10604214.062491747
1.7729763984680176	9548546.39982708
1.776710867881775	8794455.55049835
1.7804391384124756	8291349.51580828
1.7841613292694092	7515956.884654933
1.7878772020339966	6891736.083995758
1.7915871143341064	6398734.279302284
1.7952908277511597	5955465.214264528
1.7989884614944458	5785804.046170034
1.8026801347732544	5081231.450128209
1.806365728378296	4662816.107482783
1.8100452423095703	4967826.414540379
1.8137187957763672	5264860.373478477
1.817386507987976	4969852.3797924165
1.8210482597351074	4966700.15978637
1.8247040510177612	5651882.977080055
1.828354001045227	5294148.140735381
1.8319982290267944	4497437.023948552
1.8356364965438843	4178382.460412477
1.8392690420150757	4147907.9377375813
1.8428958654403687	4583231.538706439
1.8465168476104736	4689127.958515724
1.8501322269439697	4513091.262559083
1.8537418842315674	4325591.123265297
1.8573459386825562	3735309.6867871415
1.860944390296936	3204531.227510083
1.864537239074707	2981596.6164953276
1.8681244850158691	2879934.6178852827
1.871706247329712	3173353.608596298
1.8752825260162354	4206764.657907878
1.8788533210754395	5739319.57491658
1.8824186325073242	6807579.743769902
1.8859784603118896	6938091.055372319
1.8895330429077148	6885145.346990197
1.8930821418762207	7634936.554150294
1.8966259956359863	8231956.800205437
1.9001644849777222	7426542.688649198
1.9036977291107178	6671114.506973016
1.9072256088256836	6974440.093232048
1.9107483625411987	6933427.353150514
1.9142658710479736	6464284.452556531
1.9177782535552979	6525959.842967651
1.9212853908538818	6227115.217908874
1.9247875213623047	5571515.813502694
1.9282845258712769	5099511.616868384
1.9317764043807983	4687408.312833012
1.9352631568908691	4357830.372883742
1.9387450218200684	3967545.3932364034
1.942221760749817	4145852.179882233
1.9456936120986938	4699150.715007112
1.9491604566574097	5015257.053896004
1.952622413635254	5052009.549456357
1.956079363822937	4855343.446641388
1.959531545639038	4999283.467071129
1.962978720664978	5429263.957725005
1.966421127319336	6048123.894241802
1.9698586463928223	6432353.343222701
1.9732913970947266	6309841.516902487
1.9767193794250488	6576109.594802069
1.9801424741744995	7065212.213363263
1.9835609197616577	7721135.888859009
1.9869745969772339	8270861.463503338
1.990383505821228	8127348.114475473
1.9937876462936401	8705713.297667105
1.9971871376037598	9603710.501452863
2.000581979751587	10085652.99400069
2.003972291946411	10727680.78159601
2.007357597351074	10806414.8804737
2.0107386112213135	11131412.02445602
2.0141148567199707	11942828.032165533
2.017486572265625	12072226.70553177
2.0208535194396973	12832470.442063123
2.0242159366607666	13979497.277774785
2.027573823928833	13957936.959746748
2.0309269428253174	14192460.620286547
2.034275770187378	15287903.023006652
2.0376198291778564	15892477.352167863
2.040959596633911	15947792.201509899
2.044294595718384	16544957.096711962
2.0476250648498535	17468878.778054222
2.0509510040283203	17645163.689900395
2.054272413253784	17788554.83464762
2.057589530944824	18709978.721919633
2.0609018802642822	19179083.72895089
2.0642096996307373	19141041.977518972
2.0675129890441895	19471014.13201084
2.0708119869232178	19721754.13486555
2.074106216430664	19724173.385554634
2.0773961544036865	19790874.421727177
2.080681324005127	19995521.905259892
2.0839622020721436	20154379.535820406
2.087238311767578	20236171.648599602
2.090510129928589	20339883.37433886
2.0937774181365967	20323187.1337006
2.0970399379730225	20204627.66488673
2.1002981662750244	20000072.147854105
2.1035518646240234	19742750.57971552
2.1068007946014404	19523623.704622805
2.1100454330444336	19365489.729812454
2.1132853031158447	19344673.83489875
2.116520881652832	19138896.208112195
2.1197516918182373	18841063.47726995
2.1229779720306396	18767750.512343396
2.12619948387146	18641314.062958963
2.1294167041778564	18367873.19096865
2.132629156112671	18175170.63248729
2.1358368396759033	17948500.785062652
2.139039993286133	17473979.21584065
2.1422386169433594	16756478.527389526
2.145432472229004	16068730.649715902
2.1486217975616455	15746129.326535463
2.151806354522705	15622578.195121177
2.1549863815307617	15485944.2021341
2.1581614017486572	15170982.22003363
2.16133189201355	14664898.1483384
2.1644976139068604	14258056.49123248
2.167658567428589	13878037.311801577
2.1708147525787354	13478236.441131487
2.173966407775879	13047959.271699
2.1771130561828613	12538377.737186447
2.1802549362182617	12086147.297501048
2.183391809463501	11535628.08734109
2.1865241527557373	10848716.704556307
2.1896514892578125	10016415.371716743
2.1927738189697266	8873168.274734618
2.1958916187286377	7289188.906083416
2.1990041732788086	5493057.869534852
2.2021119594573975	4265613.991028983
2.2052149772644043	4007895.2204550267
2.208312749862671	4478697.564882546
2.2114057540893555	5200382.726359263
2.214493751525879	5801955.1632059105
2.217576742172241	6134060.514021145
2.2206547260284424	6211348.385662963
2.2237277030944824	6071704.318191163
2.2267956733703613	5648169.173200166
2.2298583984375	5216161.275222068
2.2329163551330566	5006207.883876334
2.235969066619873	4866520.818138072
2.2390167713165283	4597685.905831455
2.2420592308044434	4232212.295983191
2.2450966835021973	3942339.018653793
2.248128890991211	3777631.823912972
2.2511560916900635	3697662.7146448945
2.254178285598755	3639933.431983553
2.257194995880127	3614886.4851229247
2.260206699371338	3596772.0130071575
2.2632133960723877	3606942.9950006134
2.266214609146118	3658944.1694655283
2.2692108154296875	3670032.363761723
2.2722020149230957	3654032.425764089
2.2751877307891846	3590221.7824340425
2.278168201446533	3518137.4108182043
2.2811436653137207	3375182.181622611
2.284113883972168	3109362.3686362733
2.287078857421875	2914832.2977258423
2.290038824081421	2724259.3378793653
2.2929933071136475	2573480.0860254746
2.295942783355713	2638269.6333531314
2.298887014389038	2925328.858305293
2.301826238632202	3296201.6091910857
2.304760217666626	3796936.047999225
2.3076889514923096	4704100.287631311
2.310612440109253	5698251.377205856
2.3135311603546143	5655395.917903412
2.3164443969726562	3954559.053922769
2.319352865219116	2333578.594361062
2.322256088256836	2058398.92334702
2.3251543045043945	2151994.9451695983
2.328047275543213	2168034.5051372238
2.330935478210449	2253856.979400252
2.3338186740875244	2348913.336967861
2.3366971015930176	2402904.8633720907
2.3395702838897705	2422071.2852165955
2.3424389362335205	2410290.960491107
2.3453025817871094	2359529.325663338
2.348161458969116	2382018.0392335127
2.351015567779541	2547747.8326170305
2.353865146636963	2768960.560882948
2.3567099571228027	3000610.4619387146
2.3595502376556396	3391035.9229796384
2.3623859882354736	3848760.9845815366
2.3652172088623047	4004021.5270533836
2.368043899536133	3480808.655255353
2.370866537094116	2416303.138199686
2.3736846446990967	1964486.3983741966
2.3764986991882324	2215325.403899976
2.3793084621429443	2332959.117892827
2.3821144104003906	2300806.4464337146
2.384916305541992	2534204.4533793987
2.387714147567749	3042838.1404012535
2.3905084133148193	3296658.738159681
2.393299102783203	3282644.469100913
2.3960859775543213	3409534.3466813355
2.398869514465332	3762926.877231112
2.4016497135162354	4076069.957647832
2.4044265747070312	4185592.0609413935
2.407200336456299	4150134.9638285586
2.409970998764038	4345123.139352848
2.4127390384674072	4733481.253221807
2.415503978729248	4587430.922807788
2.418266534805298	4294980.669498491
2.4210267066955566	4458997.699330486
2.4237842559814453	4435841.285409351
2.426539897918701	4229770.0529095465
2.429293394088745	4534012.709881916
2.4320452213287354	4929277.534660529
2.4347951412200928	4695640.696171021
2.4375438690185547	4722747.153090248
2.440291166305542	5217624.929965393
2.443037271499634	5130707.724136413
2.445782423019409	4782889.25723226
2.4485268592834473	4755665.9764277795
2.451270818710327	4671074.127741861
2.454014539718628	4650556.734431356
2.4567582607269287	5087078.56520375
2.4595019817352295	5184566.786903325
2.4622461795806885	5261495.208113603
2.4649908542633057	5572414.959006261
2.4677364826202393	5075340.005251617
2.4704833030700684	4430155.285570542
2.473231554031372	4194486.571932999
2.4759814739227295	4230994.950839256
2.4787333011627197	4413902.8832767205
2.481487512588501	4531426.054371063
2.4842441082000732	5004019.779981317
