#wavelength	surface flux
0.6000046	41.41854583435013
0.606004646	138.85550711758432
0.61206469246	275.9931564799915
0.6181853393846001	508.0311893398996
0.624367192778446	889.6227827204099
0.6306108647062305	1491.0156556769718
0.6369169733532929	2398.797421702545
0.6432861430868257	3727.743294311666
0.649719004517694	5578.890274583212
0.6562161945628708	8067.049806654479
0.6627783565084996	11286.573935558368
0.6694061400735846	13131.316150557204
0.6761002014743205	19039.16172398667
0.6828612034890637	22678.405737496272
0.6896898155239545	24880.34259405349
0.6965867136791939	25363.124752181626
0.7035525808159859	24024.22998932623
0.7105881066241457	21137.598799010193
0.7176939876903872	16566.913522728206
0.724870927567291	13610.201939180497
0.732119636842964	10765.663724435259
0.7394408332113936	8340.054700606785
0.7468352415435076	6190.850725951979
0.7543035939589426	4203.676801023864
0.7618466298985321	2163.2938106157258
0.7694650961975174	728.0312591891761
0.7771597471594927	4287.011184122229
0.7849313446310876	9038.103648863163
0.7927806580773984	13788.597408083911
0.8007084646581725	25873.748519399775
0.8087155493047542	40049.19979659387
0.8168027047978017	57067.228220286466
0.8249707318457796	87667.69162969127
0.8332204391642375	126786.73264768184
0.8415526435558799	176111.5997915327
0.8499681699914386	220830.4391679332
0.8584678516913531	339418.8339982948
0.8670525302082667	448824.71758917364
0.8757230555103492	584776.5968720969
0.8844802860654528	658852.0256060242
0.8933250889261073	582984.7037267837
0.9022583398153684	1096690.3533978108
0.9112809232135222	1365105.7981292238
0.9203937324456574	1679358.5469849047
0.9295976697701139	668369.6447904739
0.938893646467815	1274774.5674461196
0.9482825829324931	1239129.5651000391
0.9577654087618181	1556051.461006836
0.9673430628494364	2224920.1707114624
0.9770164934779306	2673931.6425104523
0.9867866584127101	3089008.2124243225
0.9966545249968373	4173642.497899802
1.0066210702468055	5236495.547620621
1.0166872809492735	5871604.926563855
1.0268541537587663	6546248.123322686
1.0371226952963541	7189700.696527943
1.0474939222493176	7905724.996518165
1.0579688614718108	8736740.82079871
1.0685485500865288	8811835.187451212
1.0792340355873942	8986160.007941227
1.0900263759432682	7605562.430909446
1.1009266397027009	3643932.2610948663
1.1119359060997278	1621734.2910082515
1.1230552651607253	1760509.290250184
1.1342858178123325	1277792.9573702975
1.1456286759904557	2395037.9789709435
1.1570849627503603	2060599.0468739844
1.1686558123778639	2179471.399222382
1.1803423705016425	4116510.511815112
1.192145794206659	6346507.791735613
1.2040672521487257	8406731.043339523
1.216107924670213	9613585.53214146
1.228269003916915	11256943.829931887
1.2405516939560841	12555072.796995081
1.252957210895645	12713806.648076063
1.2654867830046015	14969456.41316656
1.2781416508346477	14342303.637834528
1.2909230673429941	11804587.43743683
1.303832298016424	11705079.25988069
1.3168706209965881	9061954.480783416
1.330039327206554	4396892.007358674
1.3433397204786197	415853.47167048795
1.356773117683406	72293.93032445962
1.37034084886024	72663.06715875564
1.3840442573488425	256783.79682468978
1.3978846999223307	200104.55512096026
1.4118635469215541	219350.7298391359
1.4259821823907697	282353.8946935875
1.4402420042146773	571790.6091047078
1.4546444242568242	1143412.5292461123
1.4691908684993922	1131124.4207284034
1.4838827771843863	1068268.8958175832
1.4987216049562304	1414124.8603016564
1.5137088210057925	2201364.7412227653
1.5288459092158506	3099733.6424555266
1.544134368308009	4909794.258822567
1.559575711991089	6872264.89637515
1.575171469111	8376439.825652676
1.5909231838021098	9407579.677523807
1.6068324156401312	6613823.831021784
1.6229007397965325	4797288.097367678
1.6391297471944979	4631628.266523826
1.6555210446664428	4829157.599859621
1.6720762551131072	2535120.2505302248
1.6887970176642384	2241865.931759416
1.7056849878408806	1497133.2038252763
1.7227418377192896	3255610.2160025807
1.7399692560964823	3111771.8626760924
1.757368948657447	2340672.340686064
1.7749426381440219	1355374.9490981023
1.792692064525462	896479.3219993834
1.8106189851707164	707561.9300459775
1.8287251750224238	634645.2941683905
1.847012426772648	370907.1726998724
1.8654825510403745	121222.67712548166
1.8841373765507783	772395.7073720625
1.902978750316286	779004.0662979392
1.9220085378194491	337466.533507348
1.9412286231976434	204565.81702521534
1.96064090942962	421708.519052843
1.9802473185239162	615826.3006594381
2.0000497917091553	1386753.9170068882
2.020050289626247	1488052.7264076257
2.0402507925225093	2218254.409090829
2.0606533004477345	3037674.2320762444
2.081259833452212	3267252.2274446017
2.102072431786734	3328285.5039466824
2.1230931561046016	3115054.567977783
2.1443240876656473	2378217.199785302
2.165767328542304	1901087.281702175
2.187425001827727	1359769.6412891094
2.209299251846004	305988.8754011681
2.2313922443644643	350966.8490511626
2.253706166808109	230017.20436728882
2.27624322847619	229157.15079845363
2.299005660760952	192909.4634076406
2.3219957173685617	144302.58151326817
2.345215674542247	157293.91200012187
2.3686678312876697	203555.2183852874
2.3923545096005463	380989.5565425905
2.416278054696552	344843.52449910034
2.440440835243517	734968.5387489062
2.4648452435959527	1027561.370270757
2.489493696031912	864805.4834720661
2.5143886329922314	391091.46850263904
2.5395325193221536	247332.21999960096
2.5649278445153754	85000.78316656203
2.590577122960529	81836.58180036744
2.616482894190134	75858.52660324746
2.6426477231320353	488256.91730130697
2.669074200363356	53849.71474102999
2.6957649423669894	258869.61967043226
2.7227225917906597	204766.9727503831
2.749949817708566	328330.6493431827
2.7774493158856517	254827.16486124802
2.805223809044508	240158.91360228838
2.8332760471349534	329729.7763034227
2.861608807606303	224814.41778578848
2.890224895682366	529067.9340302602
2.9191271446391895	545796.9069379173
2.9483184160855815	1042182.990412286
2.977801600246438	932037.1818354672
3.007579616248902	562541.0076198902
3.0376554124113913	1188951.1448676013
3.068031966535505	1430237.1183833797
3.09871228620086	1013204.3766026209
3.1296994090628685	576839.5357875249
3.1609964031534976	342486.0028887585
3.192606367185032	232822.14387882728
3.2245324308568826	197158.50618464433
3.2567777551654515	302502.451753506
3.289345532717106	584801.6662462996
3.322238988044277	35632.67657442837
3.35546137792472	244572.32498775647
3.3890159917039675	200255.99933793227
3.4229061516210066	294461.7449717038
3.4571352131372173	396185.19293979293
3.4917065652685895	557430.9751805625
3.526623630921275	540482.846626794
3.5618898672304877	742407.8880633548
3.597508765902793	842649.1601692879
3.633483853561821	1581258.1783640068
3.669818692097439	1991787.7912342201
3.7065168790184138	2671066.5293304897
3.743582047808598	2912255.527748447
3.7810178682866837	2705389.1468338785
3.8188280469695504	3644198.551863179
3.8570163274392457	3901407.809881369
3.8955864907136384	4079147.973119046
3.934542355620775	4465683.629300825
3.973887779176983	4731280.606614119
4.013626656968753	5275587.667068263
4.05376292353844	5464393.915751592
4.0943005527738245	5716994.386595912
4.135243558301563	5536517.411706899
4.176595993884578	5540008.43596641
4.2183619538234245	4695976.686256677
4.260545573361659	4800846.562370456
4.303151029095275	3349115.416160863
4.346182539386228	4569227.611259504
4.38964436478009	4646788.028583888
4.4335408084278916	3753291.88567292
4.47787621651217	3839277.606291716
4.522654978677292	4144617.1778657343
4.567881528464065	4106987.357152199
4.613560343748706	4114556.4901848016
4.659695947186193	3524040.5699791955
4.706292906658055	3716488.1997513305
4.753355835724635	4315094.726815935
4.8008893940818815	3570456.0669294083
4.8488982880227	3329965.8261263496
4.897387270902928	2618932.708590367
4.9463611436119574	2204864.374751476
4.995824755048077	2722058.2096322747
5.045783002598558	2488150.5675101527
5.0962408326245425	1875509.5335139255
5.147203240950788	1250599.5946576898
5.198675273360296	1424118.5771452277
5.2506620260939	1559570.3258317572
5.303168646354838	1368316.777526327
5.356200332818387	945599.845084572
5.409762336146572	914005.3899135666
5.463859959508037	541413.1823570332
5.518498559103117	666053.3187721515
5.573683544694148	423338.7754542294
5.62942038014109	487898.3112308739
5.6857145839425005	381225.53845144133
5.742571729781926	389499.57105228363
5.799997447079745	512951.3961649252
5.857997421550542	432221.07275259536
5.916577395766049	329836.7886877448
5.9757431697237084	350056.99817289255
6.035500601420946	366906.2920099025
6.095855607435156	504050.19056953635
6.156814163509507	213553.24742682144
6.218382305144602	434172.0244500795
6.280566128196048	541944.6578444003
6.343371789478009	443080.98061171675
6.406805507372789	280742.2404941244
6.470873562446516	226045.78459727787
6.535582298070982	291707.15762923285
6.6009381210516915	199883.3321469147
6.666947502262209	313690.19388875563
6.733616977284831	331550.1291526988
6.80095314705768	251730.21451122483
6.868962678528256	249620.69738077643
6.937652305313538	479097.0605783683
7.007028828366674	348810.8732772648
7.077099116650341	355806.27744235547
7.1478701078168445	321230.7049269275
7.219348808895012	326504.91064997384
7.291542296983963	232614.2749895271
7.364457719953803	212466.53639485617
7.438102297153341	217318.57811995465
7.512483320124875	249665.6504097891
7.587608153326124	288687.81051695225
7.663484234859385	159155.00586353557
7.740119077207979	173000.9533858813
7.817520267980059	243822.84600367874
7.895695470659859	164244.6860128036
7.9746524253664575	315169.7304086917
8.054398949620122	300353.6954278113
8.134942939116323	324668.16149209347
8.216292368507487	368373.1450214574
8.29845529219256	400424.45181974093
8.381439845114487	286101.9688132119
8.465254243565633	408276.4345087464
8.549906786001289	447298.0073956994
8.635405853861302	314494.38398530293
8.721759912399914	444217.7124879465
8.808977511523914	346455.80525548465
8.897067286639153	444749.9676922461
8.986037959505545	415342.6827115833
9.0758983391006	371682.5661404317
9.166657322491607	378600.0027442081
9.258323895716522	470742.8648158098
9.350907134673689	374139.29375183047
9.444416206020424	437514.2173118052
9.538860368080629	349398.9024614683
9.634248971761435	421398.8264021264
9.730591461479051	397450.7525252902
9.82789737609384	496746.2760161665
9.926176349854778	405204.3650109139
10.025438113353328	510451.1810615235
10.125692494486861	470225.09049598745
10.22694941943173	508513.9203941985
10.329218913626045	179446.13128752
10.432511102762307	141705.65726907068
10.536836213789929	186760.3193098677
10.64220457592783	215291.49284339737
10.748626621687109	87585.7857577634
10.85611288790398	155406.30561921844
10.96467401678302	216635.46985766248
11.074320756950849	265472.5774370067
11.185063964520356	298140.78540069115
11.296914604165563	259114.63348237154
11.409883750207218	332854.4380350305
11.52398258770929	209485.55161644646
11.639222413586383	280351.4970755714
11.755614637722246	178768.31873223052
11.87317078409947	250841.07841092744
11.991902491940465	148781.13384494718
12.111821516859868	171206.47116493154
12.232939732028466	176008.8898513087
12.355269129348752	192466.0461999328
12.47882182064224	216433.13545915057
12.603610038848663	180408.46700153986
12.729646139237149	139723.36742265042
12.856942600629521	148008.25809703686
12.985512026635817	178590.94161263085
13.115367146902173	167639.9340499035
13.246520818371195	140382.2022551709
13.378986026554909	134805.00688539934
13.512775886820457	169561.73108892064
13.647903645688663	154208.73056030954
13.78438268214555	122906.7900121409
13.922226508967004	171555.36804032768
14.061448774056675	124121.66488373851
14.202063261797242	114879.54986049283
14.344083894415213	127915.60435345885
14.487524733359367	93122.97127793063
14.632399980692961	136477.1436398914
14.778723980499889	136073.71839220237
14.92651122030489	112457.0433684734
15.075776332507937	118118.6563427042
15.226534095833017	112611.14293686295
15.378799436791349	110512.05792756265
15.532587431159262	95267.52559039397
15.687913305470854	88105.03067479777
15.844792438525564	62813.00080874064
16.00324036291082	73315.78014747608
16.16327276653993	88382.25784011409
16.32490549420533	76382.27779961834
16.48815454914738	86106.84345661175
16.653036094638853	74090.4410933049
16.819566455585242	77811.87698226192
16.987762120141095	76177.31553724378
17.157639741342507	70649.38073280745
17.329216138755932	64143.51738858029
17.502508300143493	66548.02427851652
17.677533383144926	70726.70116043306
17.854308716976377	69932.22995174227
18.032851804146137	55545.256118132944
18.2131803221876	53654.37851665129
18.395312125409475	63762.103120963744
18.57926524666357	52752.219254599506
18.765057899130205	52587.48325365905
18.95270847812151	52071.99745838684
19.142235562902727	54054.696457840975
19.333657918531753	40052.49001995577
19.52699449771707	42273.62880506972
19.72226444269424	41774.23562151195
19.919487087121183	30329.32403327979
20.118681957992393	40154.37058928734
20.319868777572317	33075.47067378925
20.523067465348042	34964.28599019549
20.728298140001524	39660.579845066175
20.93558112140154	36029.594526648354
21.144936932615554	28115.975325180392
21.35638630194171	22943.437158891204
21.569950164961128	31183.98276291593
21.78564966661074	28120.064281510757
22.003506163276846	29353.94478866975
22.223541224909614	26316.380590318997
22.445776637158712	24195.334609629863
22.6702344035303	27189.41656939251
22.8969367475656	21677.333965148926
23.125906115041257	26272.317097495907
23.35716517619167	26702.856942222796
23.59073682795359	18320.496011468396
23.826644196233126	15130.682253981404
24.064910638195453	22169.61441309321
24.305559744577412	23798.04949879277
24.548615342023187	23099.697968861994
24.794101495443417	21116.3297982136
25.042042510397852	12852.269289635977
25.29246293550183	14804.795092633287
25.54538756485685	17260.757570328187
25.80084144050542	19661.9299237814
26.058849854910473	12677.730724934652
26.319438353459574	16470.805295622475
26.582632736994174	10260.89114575062
26.848459064364114	13586.67357837687
27.11694365500776	13130.216593211846
27.388113091557834	15801.95686110397
27.661994222473414	13300.29165718813
27.938614164698148	9237.33909870076
28.21800030634513	8238.134017957605
28.500180309408577	8182.32302548377
28.785182112502664	10573.037860653172
29.07303393362769	9474.469439136277
29.363764272963973	9005.219477696888
29.65740191569361	10242.705232861132
