#wavelength	surface flux
0.428837	18.775949065425255
0.43312537	37.317300647535745
0.43745662370000005	44.65933714014303
0.4418311899370001	53.191576620047684
0.44624950183637	63.08347949728726
0.4507119968547338	74.4652475517417
0.45521911682328114	85.79921538203837
0.4597713079915139	101.97580663156782
0.4643690210714291	119.05791612414897
0.4690127112821433	137.60986481433696
0.47370283839496474	158.16166324588488
0.47843986677891437	180.45823256196144
0.48322426544670355	204.1467567477919
0.48805650810117057	229.04120646015355
0.4929370731821824	254.30392664245946
0.49786644391400414	278.91411238232325
0.5028451083531442	301.4247564120191
0.5078735594366757	321.20487484507566
0.5129522950310424	335.6563413950345
0.5180818179813528	343.4911132028216
0.5232626361611664	342.5090590448539
0.5284952625227781	331.55709862757095
0.5337802151480058	310.0503652503533
0.5391180172994858	278.48978520819196
0.5445091974724807	239.34168318691232
0.5499542894472055	196.27313165712022
0.5554538323416777	152.55590463602408
0.5610083706650945	111.87772834544037
0.5666184543717453	76.87674707851295
0.5722846389154628	49.270470623299666
0.5780074853046174	28.335335920952804
0.5837875601576636	11.617138411502813
0.5896254357592402	1.4833025781335099
0.5955216901168326	20.85334626669247
0.6014769070180009	63.160949466167764
0.607491676088181	138.82998760820038
0.6135665928490629	267.20274926550803
0.6197022587775535	470.51061731064505
0.625899281365329	776.6509229605631
0.6321582741789823	1207.2673675460312
0.6384798569207721	1787.6117743867117
0.6448646554899798	2515.11339739206
0.6513133020448797	3457.6640737672496
0.6578264350653285	4542.862810146752
0.6644046994159818	5905.661714949179
0.6710487464101416	6364.962507725676
0.677759233874243	9161.310530486993
0.6845368262129854	11006.454868369188
0.6913821944751153	12393.220886477066
0.6982960164198664	14540.433003552935
0.7052789765840651	16215.59581448298
0.7123317663499058	17499.611459289372
0.7194550840134049	17001.68401504112
0.7266496348535388	15627.392457729422
0.7339161312020743	14585.732518358232
0.741255292514095	11921.061550955155
0.748667845439236	7969.920074498756
0.7561545238936284	3919.740405895396
0.7637160691325647	898.9699979705705
0.7713532298238903	780.6518005003829
0.7790667621221293	4956.803578218433
0.7868574297433505	14239.128102222372
0.7947260040407841	15547.167106275965
0.8026732640811919	43603.719780242056
0.8106999967220039	56942.17958661599
0.8188069966892239	80161.80607045222
0.8269950666561161	99896.25671944974
0.8352650173226772	116885.96959523209
0.8436176674959041	150340.65143479072
0.852053844170863	165378.58943663072
0.8605743826125718	210621.96574337513
0.8691801264386976	241344.27782088477
0.8778719277030844	269750.9420140497
0.8866506469801153	264207.3351052961
0.8955171534499164	232170.89366267863
0.9044723249844157	347186.27913129376
0.9135170482342599	373814.6914188556
0.9226522187166025	390604.288728288
0.9318787409037684	139052.54066642703
0.941197528312806	230582.17982378037
0.9506095035959342	184236.81444507194
0.9601155986318936	183325.85117653446
0.9697167546182125	255454.23013045025
0.9794139221643946	438396.5472401847
0.9892080613860387	596102.2890508744
0.9991001419998989	745772.182449273
1.0090911434198981	847334.7391305607
1.019182054854097	969231.894328966
1.0293738754026378	999858.349010899
1.0396676141566643	1128781.6398339793
1.050064290298231	1179239.121173899
1.0605649332012133	1263782.9931066132
1.0711705825332256	1294648.8324925862
1.0818822883585577	1375913.4130528031
1.0927011112421434	1245709.634808109
1.1036281223545648	377543.8226236786
1.1146644035781104	242024.02528832786
1.1258110476138916	175117.58959762906
1.1370691580900303	351042.52339511004
1.1484398496709307	424540.5643798022
1.1599242481676402	84242.87177800547
1.1715234906493166	387531.6015892927
1.1832387255558097	1256284.2538789941
1.1950711128113678	1844450.0985952464
1.2070218239394814	2156248.29224646
1.2190920421788762	2409399.749936717
1.2312829626006652	2676182.0459045214
1.2435957922266716	2894888.4672914157
1.2560317501489384	3068932.0334610958
1.2685920676504279	3106131.103146246
1.281277988326932	3066451.8490760354
1.2940907682102014	2699569.5635799877
1.3070316758923035	2345159.0199089022
1.3201019926512265	2595781.5751294764
1.3333030125777388	461959.9399999647
1.3466360427035162	30200.16411789992
1.3601024031305513	4328.939267629782
1.373703427161857	33229.79749466649
1.3874404614334754	2029.616067486476
1.4013148660478103	17653.936647792027
1.4153280147082883	11247.741105500358
1.4294812948553712	18083.636826462167
1.443776107803925	75849.21068829698
1.4582138688819641	380077.6289402942
1.4727960075707838	217399.21997204493
1.4875239676464918	468796.13959700393
1.5023992073229566	483949.18449177855
1.5174231993961862	918650.5736239271
1.532597431390148	1857942.728130977
1.5479234057040496	3003281.6668729875
1.5634026397610903	4343289.004060268
1.579036666158701	4297237.498134936
1.594827032820288	4618425.634924889
1.610775303148491	3740936.6290107463
1.6268830561799759	1584682.5069148855
1.6431518867417756	3143573.4753134935
1.6595834056091934	2433389.1065256945
1.6761792396652853	1556799.2810395819
1.6929410320619382	694546.3763883804
1.7098704423825577	803887.0216014386
1.7269691468063835	1302667.4406673878
1.744238838274447	1077150.9216589602
1.7616812266571917	1080108.6666695646
1.7792980389237634	138303.6000772116
1.7970910193130012	287640.803539782
1.815061929506131	37989.30395878254
1.8332125488011928	20904.395673674444
1.8515446742892046	95037.22039966067
1.8700601210320964	20347.01154827282
1.8887607222424174	282917.22791954083
1.9076483294648416	5538.7540997610595
1.92672481275949	8654.753959124775
1.9459920608870853	48619.95494699948
1.9654519814959561	105002.22957873064
1.9851065013109155	279742.6421089625
2.0049575663240247	662977.1829241863
2.025007141987265	505582.076303699
2.0452572134071376	2134629.078121201
2.065709785541209	2827015.5174506605
2.086366883396621	2904996.5036411444
2.107230552230587	2509791.138026461
2.1283028577528933	2107937.627614794
2.1495858863304225	1356625.2762679209
2.1710817451937263	1167973.8581115692
2.1927925626456637	466369.25284035434
2.2147204882721203	140592.12324471737
2.2368676931548412	51191.8958556204
2.25923637008639	39959.38452897617
2.281828733787254	34765.567861179275
2.3046470211251266	52814.020379963695
2.327693491336378	25882.031663598944
2.3509704262497415	19928.184914602945
2.374480130512239	16535.261105367263
2.3982249318173614	44438.473843360036
2.4222071811355352	147535.00561369976
2.4464292529468903	229062.9790986549
2.4708935454763594	191458.21572598154
2.4956024809311232	76525.25549142854
2.5205585057404343	15334.139593574651
2.5457640907978387	49668.3699834441
2.5712217317058172	9730.149918443793
2.5969339490228753	2452.1388492393994
2.622903288513104	32928.63398491685
2.6491323213982354	86512.78186981326
2.6756236446122177	844.6366314839403
2.7023798810583397	20617.857569030235
2.729403679868923	145927.90056057583
2.7566977166676123	12170.780554952804
2.7842646938342885	8139.775815316425
2.812107340772631	13618.19566695809
2.8402284141803578	80769.30272185283
2.8686306983221614	29230.65987916273
2.897317005305383	39996.23018332347
2.926290175358437	205020.98759918666
2.9555530771120213	284097.7487443456
2.9851086078831415	361916.24951490766
3.014959693961973	349397.99087664287
3.0451092909015927	137649.98614946794
3.0755603838106085	434252.39779559255
3.1063159876487147	221809.36407725123
3.137379147525202	155747.8878197326
3.168752939000454	94237.47686438053
3.200440468390459	53372.73506638254
3.232444873074363	27817.687126144858
3.264769321805107	119455.63604476748
3.297417015023158	113449.00678295405
3.330391185173389	11925.171613567638
3.3636950970251234	85841.85058108691
3.397332047995375	63591.51792154889
3.4313053684753285	34909.3580339876
3.465618422160081	57957.89309789586
3.5002746063816828	120500.1012279932
3.5352773524454997	129349.30111510275
3.570630125969955	237149.87937017324
3.606336427229654	331024.37948284164
3.6423997915019504	583143.7064853073
3.67882378941697	884525.5932885479
3.7156120273111397	877407.7846578319
3.7527681475842516	1318730.5622587607
3.7902958290600934	1174919.2426646862
3.8281987873506953	2094767.0352378103
3.8664807752242023	1795783.0670871092
3.905145582976444	1920006.3658053663
3.9441970388062084	2658678.8318618797
3.983639009194271	2709263.7058818685
4.023475399286213	3192225.779873315
4.063710153279075	3517778.697744071
4.1043472548118665	3538516.8273191517
4.145390727359985	3592198.5342829805
4.186844634633585	3504912.043262081
4.2287130809799205	3112769.04966158
4.27100021178972	3055920.617824667
4.313710213907617	3169869.6137401136
4.356847316046694	2698021.21246994
4.40041578920716	2751273.25907974
4.444419947099232	2506739.2511995654
4.488864146570225	2625760.9039604976
4.533752788035927	2498218.690588273
4.579090315916286	2589431.769420558
4.624881219075449	2177115.4488167167
4.671130031266204	1870033.1912093193
4.717841331578866	1847239.1730629657
4.765019744894654	2242132.798741823
4.812669942343601	1825002.9903521242
4.8607966417670365	1947862.455555488
4.9094046081847065	1707550.8397288509
4.958498654266554	735514.3215363065
5.008083640809219	987855.043678598
5.058164477217312	1560514.5337473198
5.108746121989485	1042346.1955365398
5.15983358320938	563292.7778651103
5.211431919041474	354993.38994206936
5.263546238231889	525895.920990695
5.316181700614208	678925.5809720936
5.36934351762035	257052.22478821452
5.423036952796553	138376.71645798057
5.4772673223245185	144059.37737431435
5.532039995547764	181698.57313554385
5.587360395503242	100687.48875878379
5.643233999458275	63126.40163687711
5.6996663394528575	59980.70456643578
5.756663002847385	47168.88129216198
5.814229632875859	93347.03028446692
5.872371929204618	32773.829539797385
5.931095648496664	54381.292684748674
5.990406604981631	62837.63143137865
6.050310671031448	87664.95009887166
6.110813777741763	44654.49661615391
6.17192191551918	59470.85496348067
6.233641134674372	401456.4397922307
6.295977546021115	509401.0680120944
6.358937321481327	229692.50304222497
6.42252669469614	32233.778243855253
6.486751961643101	23596.52850085908
6.551619481259532	37272.44876160114
6.617135676072128	37876.96388592766
6.683307032832849	100461.88417312484
6.750140103161177	152830.471740986
6.81764150419279	154954.99783054405
6.885817919234718	77866.82266883046
6.954676098427065	185142.91554805325
7.024222859411336	62644.32593981375
7.094465088005449	164287.25360608008
7.165409738885503	77800.37560465514
7.237063836274358	104096.74931682926
7.309434474637103	63950.614183142345
7.382528819383473	40590.12774744761
7.456354107577308	41083.07845599809
7.530917648653081	68782.32075221196
7.606226825139612	98662.74070260924
7.682289093391009	25282.143226099648
7.759111984324918	65784.18239696643
7.836703104168168	59054.62033668695
7.91507013520985	55269.87877546149
7.994220836561947	79254.15344179333
8.074163044927568	94828.46877024024
8.154904675376844	124534.52921785074
8.23645372213061	132741.37492389025
8.318818259351918	204687.97130857236
8.402006441945437	219691.40712758043
8.486026506364892	202927.15540083713
8.57088677142854	360059.6229329567
8.656595639142825	308302.16092334944
8.743161595534254	359157.069428107
8.830593211489598	306489.19604916323
8.918899143604493	302725.8900845223
9.00808813504054	375074.6947943479
9.098169016390944	370963.38228230324
9.189150706554853	385094.0374526575
9.281042213620402	306838.7096178463
9.373852635756606	157571.36929440036
9.467591162114172	318612.2832131523
9.562267073735315	349232.66323072213
9.657889744472667	300720.53497677087
9.754468641917395	323155.3869923768
9.852013328336568	376402.8537802365
9.950533461619933	475114.2083763196
10.050038796236134	431916.4748921235
10.150539184198495	582376.4022050077
10.252044576040479	445034.51538725995
10.354565021800884	76690.43796523956
10.458110672018893	162284.64420311723
10.562691778739081	232577.40193853434
10.668318696526473	144515.44794570684
10.775001883491738	97720.34742144021
10.882751902326655	262568.1164028733
10.991579421349924	206664.32045707927
11.101495215563421	261973.75126473754
11.212510167719055	143411.7940701432
11.324635269396246	246124.47998135036
11.43788162209021	358079.8444641498
11.552260438311112	192583.23671284557
11.667783042694223	259434.663134398
11.784460873121166	134577.89908554166
11.902305481852377	258668.2563687196
12.0213285366709	194840.30727266925
12.14154182203761	234812.7023289075
12.262957240257986	173629.66153690638
12.385586812660566	158937.1843844392
12.509442680787172	145271.81765070156
12.634537107595044	167752.42577063112
12.760882478670995	165667.1239405101
12.888491303457704	130386.8713226663
13.01737621649228	126972.13590315633
13.147549978657205	142435.3283586456
13.279025478443776	128666.0614985739
13.411815733228213	105143.61828984294
13.545933890560496	163077.35305058985
13.681393229466101	129916.6959438979
13.818207161760762	74665.70054700396
13.956389233378369	130771.21009093315
14.095953125712155	104632.38322156141
14.236912656969274	105241.04261111436
14.379281783538968	91524.93129246349
14.523074601374358	81306.26650285251
14.6683053473881	129862.21063797329
14.814988400861985	125269.3195545964
14.963138284870602	105115.7010726684
15.11276966771931	115134.43716804901
15.263897364396504	116539.74783386406
15.41653633804047	106988.85608701242
15.570701701420873	53692.4282926079
15.726408718435081	46030.3294806969
15.883672805619431	80124.48656862974
16.042509533675627	48891.22933082185
16.202934629012383	63238.49489121766
16.36496397530251	80231.57755458407
16.528613615055534	69778.75985872645
16.69389975120609	55553.81297539063
16.86083874871815	43824.929999591746
17.02944713620533	73406.12328314876
17.199741607567383	44670.440953753765
17.37173902364306	39776.64898052501
17.54545641387949	40053.263178741756
17.720910978018285	48532.09379785656
17.898120087798468	46424.81889514799
18.077101288676452	45490.46004315249
18.257872301563214	33963.532606892964
18.44045102457885	44147.93340541331
18.62485553482464	36313.67779042319
18.811104090172883	57482.61355114569
18.999215131074614	28160.735092912022
19.189207282385357	30813.034042512572
19.381099355209216	23861.696530839217
19.574910348761303	26760.872893708987
19.77065945224892	25949.951065218356
19.968366046771408	37772.65368383468
20.16804970723912	35032.821079791116
20.369730204311512	25133.913034023553
20.573427506354626	19646.547646960335
20.779161781418175	26761.874983152215
20.98695339923236	19500.18767418915
21.19682293322468	16204.859804552043
21.408791162556927	25678.537647313038
21.622879074182496	18295.61900220534
21.839107864924323	12734.864525375162
22.057498943573567	15428.15164086857
22.278073933009303	20140.513580849107
22.500854672339393	12624.129974354955
22.72586321906279	27997.233318076615
22.953121851253417	12579.586816574656
23.18265306976595	19998.5026773391
23.41447960046361	18500.42479729107
23.648624396468247	9775.690855965056
23.88511064043293	8183.90653204121
24.12396174683726	22849.299099426364
24.365201364305634	21537.725625204654
24.608853377948687	19765.70890344312
24.854941911728176	15520.816084526336
25.103491330845458	6715.668976121527
25.354526244153913	7365.44296795741
25.608071506595454	16233.17292074746
25.864152221661406	8847.326191653909
26.122793743878024	10902.032129781359
26.384021681316803	12165.50088337544
26.64786189812997	5242.785639892821
26.91434051711127	8468.428276588871
27.18348392228238	11768.326255889551
27.455318761505207	13214.041325015613
27.72987194912026	10744.362266149754
28.007170668611465	4869.520581400828
28.28724237529758	4206.778964974324
28.57011479905055	4287.73572713876
28.855815947041062	7739.256700722234
29.144374106511474	4887.761268713243
29.435817847576587	6916.642942038818
29.730176026052348	4526.927443262166
30.027477786312875	7612.476599623987
30.327752564176006	4045.0356873439196
30.631030089817763	4616.723373828255
30.93734039071594	4059.2247329505376
31.246713794623105	6189.037050447397
31.559180932569333	6627.120640902943
31.874772741895026	4700.338215936979
32.19352046931398	5745.884673839137
32.51545567400712	4578.388322635266
32.84061023074719	2317.042037722036
33.169016333054664	2811.124468636698
33.500706496385206	3437.078419208194
33.83571356134906	5440.189219785586
34.17407069696255	3473.0859664474388
34.51581140393218	2147.9493662382474
34.8609695179715	3448.7040991818135
35.209579213151216	2607.4819971197876
35.56167500528272	1718.2027635765248
35.917291755335555	1492.3700506413481
36.27646467288891	2487.0309862560994
36.639229319617804	2828.0883548906613
37.005621612813975	3531.7299032283145
37.37567782894212	2021.7300747418951
37.74943460723154	2563.9588174582645
38.12692895330385	4091.8274092023175
38.5081982428369	3544.0129720413665
38.893280225265265	2032.606676907833
39.28221302751791	997.6775320353704
39.6750351577931	2270.9388709669684
40.071785509371026	1201.392139480689
40.47250336446474	1138.876591665045
40.87722839810939	1307.8886550764794
41.28600068209048	2756.4072086326373
41.69886068891139	2463.4048736964264
42.1158492958005	1783.8312644394798
42.53700778875851	1831.7085818400433
42.962377866646094	1287.0733866430262
43.392001645312554	1189.6314402541116
43.825921661765676	733.0753799312056
44.264180878383335	853.0697675177814
44.70682268716717	886.503996682433
45.15389091403884	949.8676291616944
45.60542982317923	1722.0807832534524
46.06148412141103	1287.5095764882994
46.52209896262513	853.069232453693
46.98731995225138	880.7637095083888
47.4571931517739	1327.4996572383811
47.93176508329164	580.4339247582574
48.411082734124555	1265.8725706990817
48.8951935614658	597.5455135962889
49.38414549708046	459.0090512253388
49.877986952051266	570.1699283448964
50.37676682157178	551.56868166355
50.88053448978749	533.5367826839044
51.38933983468537	516.0539240702559
51.903233233032225	499.1095192031838
52.422265565362544	482.6855325450696
52.946488221016175	466.7677931844812
53.47595310322633	451.34589483328665
54.010712634258596	436.40165660620795
54.550819760601186	421.92366111680275
55.0963279582072	407.89863974813943
55.647291237789275	394.31221968255994
56.20376415016716	381.1547394711583
56.765801791668835	368.41071728290495
57.33345980958552	356.0708470394898
57.906794407681375	344.1225883216745
58.48586235175819	332.55303745685075
59.070720975275776	321.3539555607386
59.661428185028534	310.51129773786874
60.25804246687882	300.0176113611169
60.860622891547614	289.86012862029196
61.46922912046309	280.030379270866
62.083921411667724	270.51862732604263
62.7047606257844	261.3132104796493
63.331808232042235	252.40843797975432
63.965126314362664	243.79242576139396
64.60477757750628	235.45731003485696
65.25082535328136	227.39509411377497
65.90333360681416	219.59544269930254
66.56236694288232	212.05374163032357
67.22799061231113	204.7592472066153
67.90027051843424	197.70534823684122
68.57927322361859	190.88467918387292
69.26506595585477	184.28921469291151
69.95771661541333	177.91350863887376
70.65729378156746	171.7491743159295
71.36386671938313	165.79016659231976
72.07750538657696	160.0300806427232
72.79828044044274	154.46228841879716
73.52626324484716	149.0819196083244
74.26152587729563	143.88132680599136
75.00414113606858	138.85619804411462
75.75418254742928	134.0001401861428
76.51172437290357	129.307729981816
77.27684161663261	124.77450619798535
78.04961003279894	120.39421430507616
78.83010613312693	116.16323943034432
79.6184071944582	112.07569025220849
80.41459126640278	108.12710179953247
81.2187371790668	104.3135965157426
82.03092455085748	100.6299086055723
82.85123379636605	97.07279719952331
83.6797461343297	93.63708801129688
84.51654359567301	90.3193131858485
85.36170903162974	87.11586939020016
86.21532612194603	84.02243680819142
87.0774793831655	81.03580655760227
87.94825417699715	78.15208371220538
88.82773671876713	75.36836712592597
89.71601408595481	72.68093805600792
90.61317422681435	70.08656194018498
91.5193059690825	67.58257294990318
92.43449902877332	65.16534401263846
