#wavelength	surface flux
0.428837	1160.2275246154352
0.43312537	2248.871066739058
0.43745662370000005	2617.9004353054083
0.4418311899370001	3047.562149415125
0.44624950183637	3539.7510355446216
0.4507119968547338	4088.0191536585967
0.45521911682328114	4737.2182826073895
0.4597713079915139	5483.328756730521
0.4643690210714291	6322.625595188162
0.4690127112821433	7271.685107667346
0.47370283839496474	8352.895345473924
0.47843986677891437	9523.209638940885
0.48322426544670355	10910.8197482143
0.48805650810117057	12524.228218385982
0.4929370731821824	14273.250299969608
0.49786644391400414	16183.609494050806
0.5028451083531442	18311.573644380147
0.5078735594366757	20484.557869671196
0.5129522950310424	22185.506620648826
0.5180818179813528	23536.239084386558
0.5232626361611664	29150.39398893202
0.5284952625227781	32799.84175766149
0.5337802151480058	36163.95428972074
0.5391180172994858	39651.50230186605
0.5445091974724807	42807.66895686897
0.5499542894472055	45224.04834027825
0.5554538323416777	46217.4540636434
0.5610083706650945	44668.687255297256
0.5666184543717453	38561.79370425838
0.5722846389154628	26817.297228480806
0.5780074853046174	11347.358462083152
0.5837875601576636	1543.4899033355953
0.5896254357592402	28.54432295080645
0.5955216901168326	2991.625867307569
0.6014769070180009	20108.175246020957
0.607491676088181	51739.74783957405
0.6135665928490629	87984.84238145489
0.6197022587775535	123935.43826411231
0.625899281365329	158538.76331049376
0.6321582741789823	191832.7760654419
0.6384798569207721	226012.8325756425
0.6448646554899798	259871.92991212066
0.6513133020448797	295373.8159926824
0.6578264350653285	331217.0231855452
0.6644046994159818	368927.0643794402
0.6710487464101416	326926.22281749913
0.677759233874243	454105.0417203998
0.6845368262129854	501404.3372873419
0.6913821944751153	544063.7843415998
0.6982960164198664	600131.2256948176
0.7052789765840651	653258.1214548489
0.7123317663499058	707431.7099489955
0.7194550840134049	752846.2413970309
0.7266496348535388	798301.5992804543
0.7339161312020743	840615.0350500197
0.741255292514095	859187.9857479169
0.748667845439236	804330.1240571437
0.7561545238936284	553568.0364481761
0.7637160691325647	81836.34106326582
0.7713532298238903	61864.93133897882
0.7790667621221293	600313.7868879067
0.7868574297433505	1178162.2114817628
0.7947260040407841	949097.7317232129
0.8026732640811919	1705558.586781292
0.8106999967220039	1858433.2421168613
0.8188069966892239	2052261.5736359023
0.8269950666561161	2232837.678480803
0.8352650173226772	2394555.9006213355
0.8436176674959041	2602773.926523444
0.852053844170863	2773430.978828409
0.8605743826125718	2979165.126161703
0.8691801264386976	3173166.080354488
0.8778719277030844	3374560.97303516
0.8866506469801153	3574927.2520014863
0.8955171534499164	3662792.060781408
0.9044723249844157	4072834.3006968354
0.9135170482342599	4304155.663809465
0.9226522187166025	4494925.350138361
0.9318787409037684	3726215.211933329
0.941197528312806	4462317.830599692
0.9506095035959342	4441547.387391218
0.9601155986318936	4503768.390206787
0.9697167546182125	4899973.225757586
0.9794139221643946	5797410.779028815
0.9892080613860387	6344482.664718509
0.9991001419998989	6839745.678647494
1.0090911434198981	7288097.6141215125
1.019182054854097	7801880.00744135
1.0293738754026378	8006651.379696136
1.0396676141566643	8636431.556079395
1.050064290298231	8998393.955597948
1.0605649332012133	9473438.913455697
1.0711705825332256	9848786.977186684
1.0818822883585577	10303150.590010548
1.0927011112421434	10349861.888111442
1.1036281223545648	7819473.822905831
1.1146644035781104	7365904.136186452
1.1258110476138916	8056556.10051543
1.1370691580900303	8086094.665335053
1.1484398496709307	9517449.072952287
1.1599242481676402	7002069.52196549
1.1715234906493166	9610476.984897412
1.1832387255558097	12909658.955670856
1.1950711128113678	14334138.068394095
1.2070218239394814	15052470.28419516
1.2190920421788762	15944798.461396413
1.2312829626006652	16684859.405642467
1.2435957922266716	17343098.609870072
1.2560317501489384	17851971.317817565
1.2685920676504279	18298820.02067547
1.281277988326932	18678087.918819666
1.2940907682102014	18609724.045511015
1.3070316758923035	18565781.045503646
1.3201019926512265	19143741.059778675
1.3333030125777388	10302015.228299819
1.3466360427035162	3648242.8563968865
1.3601024031305513	1616775.2916273172
1.373703427161857	5199022.364906033
1.3874404614334754	1291460.7821111463
1.4013148660478103	2764385.8114153817
1.4153280147082883	2368743.570723712
1.4294812948553712	3387144.836629844
1.443776107803925	5225110.407844841
1.4582138688819641	10571591.789875481
1.4727960075707838	10513026.934794165
1.4875239676464918	14979114.934872018
1.5023992073229566	17233473.102394003
1.5174231993961862	20003790.603984296
1.532597431390148	23233960.895916156
1.5479234057040496	25305690.19216006
1.5634026397610903	26416076.594097026
1.579036666158701	26119753.285592638
1.594827032820288	28474353.777614277
1.610775303148491	28290369.94549292
1.6268830561799759	26707468.280669954
1.6431518867417756	29636209.67562507
1.6595834056091934	28816761.186123647
1.6761792396652853	28111427.8132548
1.6929410320619382	25064868.724686876
1.7098704423825577	25087630.391027708
1.7269691468063835	26518734.81498234
1.744238838274447	21232450.070100985
1.7616812266571917	21952944.254035283
1.7792980389237634	6598440.358602894
1.7970910193130012	8314898.650869227
1.815061929506131	3535071.689746067
1.8332125488011928	2904306.722047913
1.8515446742892046	4469320.21310843
1.8700601210320964	3181468.2033655355
1.8887607222424174	9008485.301834732
1.9076483294648416	2574804.960637631
1.92672481275949	2304607.0076656416
1.9459920608870853	4318142.744349572
1.9654519814959561	5108462.707604174
1.9851065013109155	11867407.743748007
2.0049575663240247	14935770.67990018
2.025007141987265	20946863.190916844
2.0452572134071376	28918030.055197336
2.065709785541209	32143666.112925638
2.086366883396621	33266321.541400503
2.107230552230587	32668978.8232507
2.1283028577528933	32939883.119512536
2.1495858863304225	30310525.35974081
2.1710817451937263	28913806.435051613
2.1927925626456637	21613980.418233983
2.2147204882721203	15306421.107218133
2.2368676931548412	9881085.5406315
2.25923637008639	9479171.821539054
2.281828733787254	7532432.308328595
2.3046470211251266	6612966.241155632
2.327693491336378	3569910.187533981
2.3509704262497415	4048405.1751356563
2.374480130512239	3139307.00596355
2.3982249318173614	4910615.114707277
2.4222071811355352	7379948.435944658
2.4464292529468903	6371577.241950422
2.4708935454763594	4258400.490192064
2.4956024809311232	2187534.267860803
2.5205585057404343	1063257.840949479
2.5457640907978387	1770689.2010017212
2.5712217317058172	697829.5561577
2.5969339490228753	613454.2625660151
2.622903288513104	1507329.2351488012
2.6491323213982354	2176957.4257044904
2.6756236446122177	309117.70791141863
2.7023798810583397	1103143.4786998353
2.729403679868923	2653548.1824177234
2.7566977166676123	1380646.5027719622
2.7842646938342885	1072387.3887290766
2.812107340772631	1212959.6567513468
2.8402284141803578	2335118.9238259774
2.8686306983221614	1492016.0858651374
2.897317005305383	1967615.5642877102
2.926290175358437	4291679.844586175
2.9555530771120213	4643087.937214374
2.9851086078831415	4685794.685890421
3.014959693961973	6001910.921437922
3.0451092909015927	5602326.868734172
3.0755603838106085	5215752.426222105
3.1063159876487147	3412994.137370819
3.137379147525202	2314072.072502086
3.168752939000454	1678402.3193950695
3.200440468390459	1388916.8908876756
3.232444873074363	993520.7458820845
3.264769321805107	2693181.343751925
3.297417015023158	2898397.741808346
3.330391185173389	554545.5262517168
3.3636950970251234	2029012.5603336026
3.397332047995375	1749338.5904027922
3.4313053684753285	1354456.351419544
3.465618422160081	1464623.318038721
3.5002746063816828	1989245.467124506
3.5352773524454997	2692071.600876571
3.570630125969955	3551940.192026888
3.606336427229654	5039449.914840942
3.6423997915019504	6984493.866912621
3.67882378941697	9491730.930239562
3.7156120273111397	10798383.497781025
3.7527681475842516	12248057.034716919
3.7902958290600934	12260379.958478967
3.8281987873506953	13693968.443223411
3.8664807752242023	13486517.546046143
3.905145582976444	13519952.782582674
3.9441970388062084	13826510.491360921
3.983639009194271	13828941.626000965
4.023475399286213	14106960.400720974
4.063710153279075	14037690.043145353
4.1043472548118665	14181680.226238009
4.145390727359985	13566326.23467032
4.186844634633585	12907709.906243658
4.2287130809799205	12175997.997881547
4.27100021178972	11271390.460595746
4.313710213907617	10858825.184762677
4.356847316046694	8706274.556248032
4.40041578920716	6368345.093020707
4.444419947099232	4974991.149441249
4.488864146570225	4154891.9151027873
4.533752788035927	3640345.5205686707
4.579090315916286	3837392.6314239115
4.624881219075449	3982066.9119139574
4.671130031266204	4524463.739769172
4.717841331578866	3905190.810853949
4.765019744894654	3589474.11125737
4.812669942343601	3796304.58657691
4.8607966417670365	4321663.982794418
4.9094046081847065	3879730.0566566796
4.958498654266554	2966957.304089903
5.008083640809219	3559258.67808448
5.058164477217312	4326950.775653864
5.108746121989485	3725266.08161405
5.15983358320938	2887598.3022091826
5.211431919041474	2133656.4766304926
5.263546238231889	2809765.957062899
5.316181700614208	3364222.322939235
5.36934351762035	1844179.864961455
5.423036952796553	1366843.1082868306
5.4772673223245185	1546901.532978213
5.532039995547764	1672243.342951049
5.587360395503242	1245941.7130505494
5.643233999458275	1054112.8854112201
5.6996663394528575	970069.4375857416
5.756663002847385	966222.2967769626
5.814229632875859	1063020.678970572
5.872371929204618	840308.9879365639
5.931095648496664	936225.9050844654
5.990406604981631	1242957.5863384346
6.050310671031448	977771.8171938728
6.110813777741763	1540953.1123081918
6.17192191551918	1078218.907602823
6.233641134674372	2362229.5591075905
6.295977546021115	2537931.7102132253
6.358937321481327	1689019.8252926501
6.42252669469614	649001.710814934
6.486751961643101	584816.6151184919
6.551619481259532	688150.6640949055
6.617135676072128	570681.4967142486
6.683307032832849	869920.5334353397
6.750140103161177	982851.1070330483
6.81764150419279	950690.5863416495
6.885817919234718	764490.015028128
6.954676098427065	956742.0608021193
7.024222859411336	659353.0731463819
7.094465088005449	891872.7673398958
7.165409738885503	668798.1472916403
7.237063836274358	691559.979675256
7.309434474637103	614508.1621657116
7.382528819383473	560556.8175864761
7.456354107577308	527004.2181884538
7.530917648653081	695651.952647695
7.606226825139612	684784.4390889313
7.682289093391009	431904.04251128103
7.759111984324918	566616.2138126566
7.836703104168168	638351.2855354868
7.91507013520985	607778.1739147299
7.994220836561947	693793.2757505057
8.074163044927568	664914.5274109074
8.154904675376844	684431.2006068068
8.23645372213061	754621.0251943393
8.318818259351918	815198.3216303092
8.402006441945437	837891.4823580175
8.486026506364892	974994.0526220134
8.57088677142854	1034680.5252024702
8.656595639142825	1130106.1641714217
8.743161595534254	1187767.0272355084
8.830593211489598	1297091.6277250173
8.918899143604493	1303900.9521238771
9.00808813504054	1307476.0093801594
9.098169016390944	1406467.272006546
9.189150706554853	1441318.9448638489
9.281042213620402	1433623.652722192
9.373852635756606	1326939.7380315668
9.467591162114172	1348380.2664162677
9.562267073735315	1477091.7005242668
9.657889744472667	1327482.6369678269
9.754468641917395	1437325.9730055868
9.852013328336568	1131125.012067064
9.950533461619933	1329970.16916778
10.050038796236134	1243964.1391587593
10.150539184198495	1266343.4907671455
10.252044576040479	1131323.4767434984
10.354565021800884	929759.0800990687
10.458110672018893	936419.0053617894
10.562691778739081	1020706.6885065053
10.668318696526473	1017683.3495222781
10.775001883491738	974012.0299682154
10.882751902326655	846364.912701629
10.991579421349924	642992.3142608311
11.101495215563421	882231.5233864922
11.212510167719055	799445.5175606402
11.324635269396246	761771.1530068368
11.43788162209021	797674.9431189911
11.552260438311112	584472.89518117
11.667783042694223	603134.6109633673
11.784460873121166	574497.1086052737
11.902305481852377	637568.6359276125
12.0213285366709	639892.8649025415
12.14154182203761	653983.2986367989
12.262957240257986	488187.98468463
12.385586812660566	401149.68107259425
12.509442680787172	414539.80516299926
12.634537107595044	476045.2218795815
12.760882478670995	443837.832462654
12.888491303457704	442226.5015983046
13.01737621649228	355637.37571965746
13.147549978657205	372907.4238250549
13.279025478443776	285902.1701710735
13.411815733228213	280047.5037329517
13.545933890560496	332855.1444631246
13.681393229466101	292908.75448936597
13.818207161760762	321527.937686815
13.956389233378369	285246.43127409345
14.095953125712155	301916.16847873107
14.236912656969274	259420.7940681031
14.379281783538968	203721.50187229487
14.523074601374358	193768.55369336935
14.6683053473881	239165.5233201558
14.814988400861985	214025.6717818133
14.963138284870602	192454.49148975124
15.11276966771931	215347.88235934635
15.263897364396504	234953.1633646579
15.41653633804047	178241.30993454737
15.570701701420873	143268.33552928697
15.726408718435081	129736.53506577725
15.883672805619431	212313.36163778845
16.042509533675627	152008.8677251296
16.202934629012383	141276.85805474053
16.36496397530251	131004.41818767913
16.528613615055534	127303.65780947161
16.69389975120609	109827.85132808558
16.86083874871815	109860.98037483089
17.02944713620533	124409.55711918836
17.199741607567383	93278.83205001477
17.37173902364306	85101.85695716765
17.54545641387949	95587.49410935308
17.720910978018285	86828.80423306447
17.898120087798468	81941.31076070352
18.077101288676452	86572.73236334379
18.257872301563214	81866.8350895767
18.44045102457885	78357.95594588552
18.62485553482464	68213.24724071237
18.811104090172883	103869.09033501426
18.999215131074614	61604.96553421388
19.189207282385357	63961.92060226712
19.381099355209216	51471.4685699056
19.574910348761303	53384.793067871375
19.77065945224892	57886.37878424693
19.968366046771408	70122.66724382673
20.16804970723912	58206.5308448471
20.369730204311512	48352.70732802533
20.573427506354626	43726.42757531199
20.779161781418175	50173.7115457229
20.98695339923236	39224.19646232845
21.19682293322468	39552.99980906392
21.408791162556927	51032.54668611955
21.622879074182496	35486.03687729259
21.839107864924323	33516.149431378224
22.057498943573567	33953.69192960787
22.278073933009303	36510.33280930512
22.500854672339393	28774.12525373216
22.72586321906279	48915.72314015574
22.953121851253417	26786.196003176297
23.18265306976595	44373.55096306038
23.41447960046361	34837.45700804405
23.648624396468247	23567.87380884987
23.88511064043293	21629.06785740398
24.12396174683726	37734.91444002024
24.365201364305634	34210.35089269469
24.608853377948687	31912.906022962645
24.854941911728176	26511.619007523
25.103491330845458	17452.008228295075
25.354526244153913	17413.561572672486
25.608071506595454	25793.38409682853
25.864152221661406	23607.014254949576
26.122793743878024	21263.401677378864
26.384021681316803	22839.277940744858
26.64786189812997	13751.085952481104
26.91434051711127	18931.42377383972
27.18348392228238	20788.319475834054
27.455318761505207	25921.020518925423
27.72987194912026	19756.47667136185
28.007170668611465	12768.943289784478
28.28724237529758	11339.675357093756
28.57011479905055	11228.927135847262
28.855815947041062	16104.01062361121
29.144374106511474	12016.286064997867
29.435817847576587	12873.654348886772
29.730176026052348	11869.397885769555
30.027477786312875	13332.488340364009
30.327752564176006	9667.591035302321
30.631030089817763	10269.205819149083
30.93734039071594	9273.14420520756
31.246713794623105	10581.95345854229
31.559180932569333	12279.977803979185
31.874772741895026	9380.330991038632
32.19352046931398	11635.25753460004
32.51545567400712	11535.800646876054
32.84061023074719	6655.878002955267
33.169016333054664	7143.944014065228
33.500706496385206	7321.615304248677
33.83571356134906	11050.206344265618
34.17407069696255	7432.10325170255
34.51581140393218	6038.0249708785705
34.8609695179715	6373.102611247361
35.209579213151216	5754.552829608509
35.56167500528272	5059.047014931756
35.917291755335555	4766.049772859596
36.27646467288891	6215.896884024946
36.639229319617804	5608.125143295192
37.005621612813975	7296.344836266026
37.37567782894212	4550.180661592223
37.74943460723154	5155.885263183019
38.12692895330385	6632.224585276802
38.5081982428369	6027.80015805963
38.893280225265265	4029.2939486188084
39.28221302751791	3398.2184987410133
39.6750351577931	4861.626237156728
40.071785509371026	3309.5027106576376
40.47250336446474	3318.335922244314
40.87722839810939	3283.179396397557
41.28600068209048	4566.45266720619
41.69886068891139	4631.028844709575
42.1158492958005	3975.920786795162
42.53700778875851	3598.720485581029
42.962377866646094	2717.438250558216
43.392001645312554	2576.327057563519
43.825921661765676	2365.84871152598
44.264180878383335	2408.049814176048
44.70682268716717	2351.225296248781
45.15389091403884	2463.5911322477796
45.60542982317923	2891.9466371658814
46.06148412141103	2424.525467562534
46.52209896262513	2002.5947496043832
46.98731995225138	1941.5039482003385
47.4571931517739	2615.1448514062195
47.93176508329164	1778.1250285061878
48.411082734124555	2275.945492698644
48.8951935614658	1662.0478240115142
49.38414549708046	1498.6962877139813
49.877986952051266	1555.419680198685
50.37676682157178	1499.3967277575582
50.88053448978749	1445.347571746579
51.38933983468537	1393.1968883492557
51.903233233032225	1342.8875294439283
52.422265565362544	1294.3490610145154
52.946488221016175	1247.5245996571925
53.47595310322633	1202.3654145438209
54.010712634258596	1158.795511672633
54.550819760601186	1116.7744311543004
55.0963279582072	1076.2427377471306
55.647291237789275	1037.1487424353247
56.20376415016716	999.4468753889078
56.765801791668835	963.0851793550155
57.33345980958552	928.0214953608553
57.906794407681375	894.2085789041977
58.48586235175819	861.6010472861033
59.070720975275776	830.1624989807539
59.661428185028534	799.8444993350475
60.25804246687882	770.6164905269396
60.860622891547614	742.4337061401976
61.46922912046309	715.262460078862
62.083921411667724	689.0690344300283
62.7047606257844	663.8134678067936
63.331808232042235	639.4720720955938
63.965126314362664	616.0046188915467
64.60477757750628	593.3831585670217
65.25082535328136	571.5792482105763
65.90333360681416	550.5593519909493
66.56236694288232	530.3036235861646
67.22799061231113	510.7787341201481
67.90027051843424	491.96061488015846
68.57927322361859	473.825622533607
69.26506595585477	456.3464182543559
69.95771661541333	439.5042472856413
70.65729378156746	423.27222185567473
71.36386671938313	407.6308902745446
72.07750538657696	392.55876951735354
72.79828044044274	378.0347421633452
73.52626324484716	364.0412117664279
74.26152587729563	350.557029612443
75.00414113606858	337.56600345423254
75.75418254742928	325.0488435904524
76.51172437290357	312.9887909346295
77.27684161663261	301.3711351198348
78.04961003279894	290.1768431436539
78.83010613312693	279.39470192243203
79.6184071944582	269.00669127169186
80.41459126640278	258.9994586395759
81.2187371790668	249.36058147181174
82.03092455085748	240.07455402804354
82.85123379636605	231.13115095803607
83.6797461343297	222.51575015978742
84.51654359567301	214.21736823121017
85.36170903162974	206.22522452733557
86.21532612194603	198.52669093778627
87.0774793831655	191.11309561891719
87.94825417699715	183.97223652183166
88.82773671876713	177.09537419750828
89.71601408595481	170.47264593354993
90.61317422681435	164.09399609109374
91.5193059690825	157.95241293244288
92.43449902877332	152.0369728358476
93.35884401906105	146.34143440109787
