#wavelength	surface flux
0.428837	2722.7403541314757
0.43312537	5114.182295681199
0.43745662370000005	5671.988175389745
0.4418311899370001	6187.662305030093
0.44624950183637	6662.792259572325
0.4507119968547338	6994.764408965503
0.45521911682328114	6545.216522991289
0.4597713079915139	7430.780207996794
0.4643690210714291	7723.767025758521
0.4690127112821433	7704.427721475349
0.47370283839496474	7597.4613373050415
0.47843986677891437	7352.706783411197
0.48322426544670355	7007.814050546224
0.48805650810117057	6583.183391713231
0.4929370731821824	6092.10898639897
0.49786644391400414	5531.319592812223
0.5028451083531442	4995.264965959972
0.5078735594366757	4461.082326772852
0.5129522950310424	3937.2150239455004
0.5180818179813528	3449.0044520336105
0.5232626361611664	2986.427127815637
0.5284952625227781	2552.246781451445
0.5337802151480058	2144.758678878668
0.5391180172994858	1766.271888518024
0.5445091974724807	1418.5847123128515
0.5499542894472055	1110.257592896125
0.5554538323416777	836.6082598235059
0.5610083706650945	600.3170308841281
0.5666184543717453	402.31619572605916
0.5722846389154628	244.00528433814677
0.5780074853046174	122.78196429854785
0.5837875601576636	40.124807635851
0.5896254357592402	4.346681917827907
0.5955216901168326	72.49036676630509
0.6014769070180009	262.44278858346064
0.607491676088181	637.9604291831914
0.6135665928490629	1284.7285858803039
0.6197022587775535	2306.2894789812985
0.625899281365329	3855.025959481196
0.6321582741789823	6067.251162938673
0.6384798569207721	9129.007434142834
0.6448646554899798	13021.74144113342
0.6513133020448797	18382.340123494814
0.6578264350653285	24616.300252535293
0.6644046994159818	33048.5821913825
0.6710487464101416	33947.187835185476
0.677759233874243	54167.951375723824
0.6845368262129854	66513.77918239258
0.6913821944751153	73233.16374191472
0.6982960164198664	88558.57077991095
0.7052789765840651	98324.97619858902
0.7123317663499058	104211.09288676431
0.7194550840134049	93613.20751680527
0.7266496348535388	80849.71450536835
0.7339161312020743	73912.33965290734
0.741255292514095	60191.150622257715
0.748667845439236	40067.79276609438
0.7561545238936284	18502.692038604026
0.7637160691325647	3097.794711165964
0.7713532298238903	2577.942552810148
0.7790667621221293	21700.28404219212
0.7868574297433505	68767.54674816529
0.7947260040407841	72668.91210275443
0.8026732640811919	220943.36925310388
0.8106999967220039	275807.50890308275
0.8188069966892239	432033.5472138576
0.8269950666561161	565473.8591208556
0.8352650173226772	673879.0486177928
0.8436176674959041	986833.5080526693
0.852053844170863	1068679.0590178384
0.8605743826125718	1689885.826591277
0.8691801264386976	2072019.2833425135
0.8778719277030844	2362685.415563661
0.8866506469801153	2271044.934346858
0.8955171534499164	1400058.9672525926
0.9044723249844157	3415471.6777592218
0.9135170482342599	3645958.235974322
0.9226522187166025	3495485.068463426
0.9318787409037684	521232.1329009758
0.941197528312806	786457.1583064779
0.9506095035959342	518772.1817427076
0.9601155986318936	485618.69446161354
0.9697167546182125	736646.574095942
0.9794139221643946	1874537.198712325
0.9892080613860387	3602801.8957709516
0.9991001419998989	5738985.980986289
1.0090911434198981	8047323.58954831
1.019182054854097	12446680.7569604
1.0293738754026378	11382611.730091909
1.0396676141566643	17415160.964328274
1.050064290298231	17408109.16635666
1.0605649332012133	20817545.066292692
1.0711705825332256	19412346.081312746
1.0818822883585577	21502016.901412856
1.0927011112421434	9505756.980015451
1.1036281223545648	780644.8672585302
1.1146644035781104	432063.3812460395
1.1258110476138916	208858.78978100573
1.1370691580900303	660015.336734429
1.1484398496709307	823978.1401711784
1.1599242481676402	75113.59039389587
1.1715234906493166	531494.9078932613
1.1832387255558097	3821719.4397467608
1.1950711128113678	9049584.337043623
1.2070218239394814	12420113.26459743
1.2190920421788762	18979201.557164285
1.2312829626006652	26457747.789318148
1.2435957922266716	30977040.309649553
1.2560317501489384	34257845.83738654
1.2685920676504279	28692497.197710477
1.281277988326932	23083482.942216977
1.2940907682102014	13124633.922237106
1.3070316758923035	8717548.64282427
1.3201019926512265	10946635.956416773
1.3333030125777388	626951.3479750042
1.3466360427035162	19927.33935231813
1.3601024031305513	2598.014629635549
1.373703427161857	21679.701483177378
1.3874404614334754	1123.05856921289
1.4013148660478103	10941.374156761443
1.4153280147082883	6761.3029119042685
1.4294812948553712	11456.992991286874
1.443776107803925	58234.55555797959
1.4582138688819641	360948.007561213
1.4727960075707838	230253.67937123036
1.4875239676464918	796934.0881576111
1.5023992073229566	1057932.97423987
1.5174231993961862	2515414.377904156
1.532597431390148	4822846.6654749485
1.5479234057040496	7713577.174848268
1.5634026397610903	9944298.728963478
1.579036666158701	8971654.201494629
1.594827032820288	12207384.11745949
1.610775303148491	8101083.9602498785
1.6268830561799759	2557044.458198294
1.6431518867417756	8164503.062980108
1.6595834056091934	4900189.214421692
1.6761792396652853	2665030.864756012
1.6929410320619382	758832.0686310151
1.7098704423825577	905695.1686575325
1.7269691468063835	1617827.9300847568
1.744238838274447	1101398.3570814682
1.7616812266571917	1261411.667934237
1.7792980389237634	99706.80992887271
1.7970910193130012	288268.6963234835
1.815061929506131	28165.027310376172
1.8332125488011928	14885.508974003835
1.8515446742892046	75317.55291215722
1.8700601210320964	15157.668612054273
1.8887607222424174	253664.48576487796
1.9076483294648416	4326.59517456817
1.92672481275949	8637.897434414477
1.9459920608870853	70978.90805140542
1.9654519814959561	152647.26059549424
1.9851065013109155	655615.2666224164
2.0049575663240247	1341981.6346354438
2.025007141987265	2049747.88348783
2.0452572134071376	7447173.032554363
2.065709785541209	10344680.82114804
2.086366883396621	10821330.295083039
2.107230552230587	8394815.089963624
2.1283028577528933	6049915.658400997
2.1495858863304225	2640608.152895461
2.1710817451937263	2003309.5757932714
2.1927925626456637	719784.7263651601
2.2147204882721203	187047.78768097638
2.2368676931548412	44147.858032848155
2.25923637008639	41713.87496362016
2.281828733787254	33944.61582420815
2.3046470211251266	69224.42023193736
2.327693491336378	24478.00146814447
2.3509704262497415	18340.424600976385
2.374480130512239	15758.722264038504
2.3982249318173614	38360.93070875268
2.4222071811355352	132007.48755380374
2.4464292529468903	190915.8458962667
2.4708935454763594	163325.69089372258
2.4956024809311232	64727.43092301807
2.5205585057404343	14827.406981463635
2.5457640907978387	42487.67103689225
2.5712217317058172	8756.864646344447
2.5969339490228753	2814.3120458471412
2.622903288513104	29918.21418658604
2.6491323213982354	71771.29949795504
2.6756236446122177	1182.3762120611311
2.7023798810583397	20505.496285397072
2.729403679868923	123295.31473494464
2.7566977166676123	12226.13245998389
2.7842646938342885	9297.528389420368
2.812107340772631	16281.013681328652
2.8402284141803578	79866.99213231272
2.8686306983221614	41584.60557926003
2.897317005305383	74903.54496735
2.926290175358437	225010.14680031608
2.9555530771120213	348232.30801092327
2.9851086078831415	403777.91446624714
3.014959693961973	417961.71619499207
3.0451092909015927	207921.97247705868
3.0755603838106085	484031.3021944252
3.1063159876487147	246764.9029761016
3.137379147525202	161354.44070686272
3.168752939000454	93156.23871876825
3.200440468390459	55177.78882889185
3.232444873074363	29428.341395545813
3.264769321805107	113588.84888306004
3.297417015023158	107174.76581992286
3.330391185173389	14216.983862932258
3.3636950970251234	84174.04562230066
3.397332047995375	63265.008959579754
3.4313053684753285	38630.5886611327
3.465618422160081	60126.62943306817
3.5002746063816828	117820.47343217609
3.5352773524454997	127485.31088715978
3.570630125969955	219786.4797679305
3.606336427229654	297241.32882254553
3.6423997915019504	501138.85108279
3.67882378941697	732453.8574380584
3.7156120273111397	737133.0335159202
3.7527681475842516	1119540.2918248568
3.7902958290600934	1018439.3845083822
3.8281987873506953	1865815.1566639617
3.8664807752242023	1709614.909928925
3.905145582976444	1773112.8413654473
3.9441970388062084	2477610.6458194433
3.983639009194271	2623197.060861022
4.023475399286213	3248782.0479142903
4.063710153279075	3572192.8281181436
4.1043472548118665	3678452.0029306174
4.145390727359985	3680382.030671044
4.186844634633585	3699836.9359642523
4.2287130809799205	2996912.9779690537
4.27100021178972	2889392.820578144
4.313710213907617	3039140.106282966
4.356847316046694	2487847.6944426177
4.40041578920716	2485214.6062143375
4.444419947099232	2185371.460490542
4.488864146570225	2236683.8878301135
4.533752788035927	2056372.0621049628
4.579090315916286	2147613.103219925
4.624881219075449	1860415.3834325343
4.671130031266204	1672284.2145359719
4.717841331578866	1608081.2148284693
4.765019744894654	1883150.1977656826
4.812669942343601	1604091.2572923847
4.8607966417670365	1763109.2099747534
4.9094046081847065	1551802.4508211364
4.958498654266554	683991.1133586058
5.008083640809219	898736.0961841794
5.058164477217312	1427620.8900042758
5.108746121989485	1000879.1967792958
5.15983358320938	538598.0572502315
5.211431919041474	367258.69709809904
5.263546238231889	518263.0287374491
5.316181700614208	746859.0057659803
5.36934351762035	265397.2107190331
5.423036952796553	150510.52697803342
5.4772673223245185	156922.84178391466
5.532039995547764	195591.59919894702
5.587360395503242	115326.4655714895
5.643233999458275	72857.5482667776
5.6996663394528575	72114.41531689343
5.756663002847385	58063.77054704165
5.814229632875859	101655.14432688612
5.872371929204618	40758.64418655666
5.931095648496664	80277.25236353607
5.990406604981631	100030.40006082856
6.050310671031448	103385.48601042142
6.110813777741763	71205.79748168838
6.17192191551918	83049.97976178591
6.233641134674372	460090.2289893832
6.295977546021115	543264.1010284179
6.358937321481327	239141.80393625307
6.42252669469614	42144.94610270712
6.486751961643101	29236.63154525382
6.551619481259532	45657.69234293513
6.617135676072128	46056.983928151094
6.683307032832849	112202.77395075595
6.750140103161177	173647.68201868117
6.81764150419279	172481.4573211971
6.885817919234718	88734.44012098666
6.954676098427065	198877.46011417685
7.024222859411336	72487.61590574606
7.094465088005449	175377.70936185867
7.165409738885503	88743.71720236227
7.237063836274358	115076.29601551112
7.309434474637103	73756.91688935932
7.382528819383473	48863.63399329194
7.456354107577308	48855.10841348506
7.530917648653081	79577.0142730249
7.606226825139612	110685.8471735962
7.682289093391009	31298.5961558405
7.759111984324918	76014.32536804026
7.836703104168168	69734.7595536984
7.91507013520985	65604.77061902218
7.994220836561947	90880.9258179087
8.074163044927568	106602.06930831457
8.154904675376844	135453.65347688142
8.23645372213061	177457.79855803025
8.318818259351918	212764.0461081103
8.402006441945437	232339.92581370275
8.486026506364892	277984.05665707577
8.57088677142854	362746.5660430505
8.656595639142825	401282.806914864
8.743161595534254	483951.8341610428
8.830593211489598	530792.7197225931
8.918899143604493	450016.550105504
9.00808813504054	523884.1173178626
9.098169016390944	588134.2059474555
9.189150706554853	638382.9247228393
9.281042213620402	513542.668882744
9.373852635756606	315338.3445565032
9.467591162114172	641392.8771262981
9.562267073735315	748985.8807065773
9.657889744472667	464197.8488879568
9.754468641917395	617449.0013198631
9.852013328336568	513714.18553078297
9.950533461619933	763011.895334975
10.050038796236134	656449.6791393603
10.150539184198495	770738.5802815201
10.252044576040479	577224.6455196239
10.354565021800884	225126.24634648478
10.458110672018893	364282.01636405085
10.562691778739081	475212.95527266595
10.668318696526473	352824.1141593208
10.775001883491738	276372.3630581008
10.882751902326655	429677.78696118435
10.991579421349924	304137.4692552476
11.101495215563421	467350.78947540687
11.212510167719055	352276.0730721262
11.324635269396246	346066.12631851627
11.43788162209021	469650.810296894
11.552260438311112	261671.04760456164
11.667783042694223	301301.0136546876
11.784460873121166	262853.0710271799
11.902305481852377	336150.6776024378
12.0213285366709	340204.9306381997
12.14154182203761	389159.13311968197
12.262957240257986	256510.48064821164
12.385586812660566	207810.13732761
12.509442680787172	189119.9795271018
12.634537107595044	262241.2016391984
12.760882478670995	244512.50994615967
12.888491303457704	196324.38467510397
13.01737621649228	184609.8026954091
13.147549978657205	212100.3798076091
13.279025478443776	138706.664028075
13.411815733228213	128491.33019296774
13.545933890560496	205085.54378921777
13.681393229466101	149693.0675100841
13.818207161760762	117142.5020062954
13.956389233378369	158554.08661382395
14.095953125712155	161281.79919699568
14.236912656969274	148538.5841311159
14.379281783538968	91951.7157430622
14.523074601374358	88344.29063339347
14.6683053473881	138797.89293542187
14.814988400861985	127332.21239058702
14.963138284870602	108124.3197197817
15.11276966771931	115821.23359603553
15.263897364396504	142090.940615734
15.41653633804047	110090.30483163078
15.570701701420873	57928.38301637698
15.726408718435081	50751.33014464117
15.883672805619431	130014.7529070086
16.042509533675627	73566.96748898685
16.202934629012383	69741.90993603229
16.36496397530251	79277.41967099968
16.528613615055534	69170.15493138504
16.69389975120609	56119.63807439798
16.86083874871815	45093.26564092801
17.02944713620533	73882.37262950366
17.199741607567383	45410.290941929445
17.37173902364306	40725.61135789577
17.54545641387949	41112.75005485295
17.720910978018285	48527.05503333767
17.898120087798468	46399.08099545446
18.077101288676452	48461.461086422125
18.257872301563214	35009.90843334726
18.44045102457885	44066.515277105296
18.62485553482464	36804.402802336575
18.811104090172883	62906.80614977774
18.999215131074614	28922.582770691388
19.189207282385357	31394.511177990084
19.381099355209216	24726.27093404505
19.574910348761303	27417.287857107825
19.77065945224892	26770.683117023294
19.968366046771408	37593.15859803881
20.16804970723912	34838.11817402659
20.369730204311512	25594.49200065842
20.573427506354626	20442.803790858834
20.779161781418175	27073.360888745658
20.98695339923236	20085.155035596435
21.19682293322468	17085.480357993147
21.408791162556927	25925.292908310854
21.622879074182496	18727.137236367504
21.839107864924323	13467.206637937845
22.057498943573567	16031.508468248887
22.278073933009303	20339.175504864594
22.500854672339393	13202.745046840306
22.72586321906279	27868.558516404326
22.953121851253417	13022.4390706948
23.18265306976595	20278.409424416637
23.41447960046361	18618.30744975534
23.648624396468247	10275.289197576885
23.88511064043293	8667.63623460615
24.12396174683726	22545.23132847176
24.365201364305634	21327.744351600915
24.608853377948687	19838.886039583525
24.854941911728176	15587.585024500258
25.103491330845458	7098.510311761869
25.354526244153913	7709.130330872313
25.608071506595454	16232.083186100492
25.864152221661406	9344.18428518373
26.122793743878024	11190.607022878881
26.384021681316803	12434.215258548553
26.64786189812997	5535.1785433035
26.91434051711127	8852.37919939329
27.18348392228238	11935.395889232235
27.455318761505207	14014.082576357763
27.72987194912026	11317.313159784218
28.007170668611465	5190.304923775119
28.28724237529758	4458.958733783789
28.57011479905055	4526.901276126271
28.855815947041062	7928.680742419833
29.144374106511474	5114.044034081848
29.435817847576587	7090.196586028755
29.730176026052348	4809.050965146447
30.027477786312875	7750.623616604047
30.327752564176006	4270.7329932801595
30.631030089817763	5013.164961038498
30.93734039071594	4258.822521324435
31.246713794623105	6369.200840066243
31.559180932569333	7209.234047699977
31.874772741895026	4867.199087333523
32.19352046931398	6161.703672393632
32.51545567400712	5642.0959855464325
32.84061023074719	2483.1004936639324
33.169016333054664	2954.5650042038
33.500706496385206	3583.7836299445744
33.83571356134906	6294.806482696397
34.17407069696255	3724.1196988899324
34.51581140393218	2306.1423239219293
34.8609695179715	3563.8271796748463
35.209579213151216	2731.2228060615503
35.56167500528272	1852.4481638249704
35.917291755335555	1625.3113088544292
36.27646467288891	2681.9909238138225
36.639229319617804	3020.155621869786
37.005621612813975	4525.193499780123
37.37567782894212	2124.527043548396
37.74943460723154	2658.9467440803696
38.12692895330385	4150.893260486823
38.5081982428369	3746.0408645434904
38.893280225265265	2012.815668810831
39.28221302751791	1100.4800619572923
39.6750351577931	2504.547555001943
40.071785509371026	1291.0794065040393
40.47250336446474	1236.6054888420053
40.87722839810939	1395.1338175572653
41.28600068209048	2868.937116099049
41.69886068891139	2791.799415289833
42.1158492958005	1786.4421894095087
42.53700778875851	1967.4688505820995
42.962377866646094	1342.3377054266107
43.392001645312554	1242.67179633854
43.825921661765676	806.5050028381798
44.264180878383335	921.8102057874999
44.70682268716717	952.2035189736845
45.15389091403884	1020.2028482845996
45.60542982317923	1781.027737536163
46.06148412141103	1344.5938287836836
46.52209896262513	901.0101031239848
46.98731995225138	922.504598440179
47.4571931517739	1379.8080168154672
47.93176508329164	636.043036243246
48.411082734124555	1298.8582474206464
48.8951935614658	645.1948007306729
49.38414549708046	507.4981925356616
49.877986952051266	614.1365781202891
50.37676682157178	593.9077253256551
50.88053448978749	574.3071801082024
51.38933983468537	555.3123815279475
51.903233233032225	536.9102741459528
52.422265565362544	519.0814951285978
52.946488221016175	501.8101121424816
53.47595310322633	485.08409751830703
54.010712634258596	468.8820529448057
54.550819760601186	453.1929013249924
55.0963279582072	438.0006391226544
55.647291237789275	423.2894933927244
56.20376415016716	409.04858376743226
56.765801791668835	395.2604758378186
57.33345980958552	381.9148221204195
57.906794407681375	368.9976536905352
58.48586235175819	356.49474225703176
59.070720975275776	344.39679547427437
59.661428185028534	332.68805125081894
60.25804246687882	321.3607149206025
60.860622891547614	310.40013289304875
61.46922912046309	299.7965246420349
62.083921411667724	289.54010146220094
62.7047606257844	279.6174423877505
63.331808232042235	270.02191249848806
63.965126314362664	260.74097148239827
64.60477757750628	251.76533490796797
65.25082535328136	243.08650498964616
65.90333360681416	234.69342218023706
66.56236694288232	226.58006314682618
67.22799061231113	218.7353221776917
67.90027051843424	211.1517158845072
68.57927322361859	203.8211192582413
69.26506595585477	196.734838462616
69.95771661541333	189.8867460898532
70.65729378156746	183.2674256317969
71.36386671938313	176.87079599779298
72.07750538657696	170.68956389512698
72.79828044044274	164.71616774770143
73.52626324484716	158.94543014214392
74.26152587729563	153.36922454475592
75.00414113606858	147.98265451061238
75.75418254742928	142.77873868120926
76.51172437290357	137.75165365508877
77.27684161663261	132.89628932618336
78.04961003279894	128.20584138219223
78.83010613312693	123.67651966634726
79.6184071944582	119.30197731393733
80.41459126640278	115.07735790380997
81.2187371790668	110.99796876737562
82.03092455085748	107.05878177590243
82.85123379636605	103.25547253463354
83.6797461343297	99.58308457630726
84.51654359567301	96.03769942832044
85.36170903162974	92.61523692412523
86.21532612194603	89.31083330174766
87.0774793831655	86.12173812896842
87.94825417699715	83.04295932721085
88.82773671876713	80.0716745705318
89.71601408595481	77.20380293763759
90.61317422681435	74.43562102672244
91.5193059690825	71.76470758313758
92.43449902877332	69.18688045261942
93.35884401906105	66.69953121706386
