#wavelength	surface flux
0.428837	0.8071620215102389
0.43312537	1.6343060019406055
0.43745662370000005	2.003696873321273
0.4418311899370001	2.451899208509007
0.44624950183637	2.994786695703848
0.4507119968547338	3.650003145877541
0.45521911682328114	4.440617311680935
0.4597713079915139	5.39355117072637
0.4643690210714291	6.537458377545239
0.4690127112821433	7.908305502139023
0.47370283839496474	9.549693759816801
0.47843986677891437	11.509936786865401
0.48322426544670355	13.844595615223621
0.48805650810117057	16.623651093096598
0.4929370731821824	19.921418412264334
0.49786644391400414	23.827707847249307
0.5028451083531442	28.44050401605597
0.5078735594366757	33.884009943807634
0.5129522950310424	40.286919902732656
0.5180818179813528	47.79561147990672
0.5232626361611664	56.58426444309183
0.5284952625227781	66.82123878825212
0.5337802151480058	78.68243201232247
0.5391180172994858	92.35162121380917
0.5445091974724807	107.93963010277557
0.5499542894472055	125.51990482259127
0.5554538323416777	144.7703447936657
0.5610083706650945	164.72480922736725
0.5666184543717453	182.5747398370665
0.5722846389154628	191.16504560508616
0.5780074853046174	170.89356950941263
0.5837875601576636	86.9815973745246
0.5896254357592402	9.143870809588979
0.5955216901168326	145.78875520634867
0.6014769070180009	328.72812635115673
0.607491676088181	476.7413624547435
0.6135665928490629	607.743826676545
0.6197022587775535	737.3052394840624
0.625899281365329	874.3110584568312
0.6321582741789823	1023.7176339746077
0.6384798569207721	1189.8834424525933
0.6448646554899798	1374.179059202155
0.6513133020448797	1583.611437197891
0.6578264350653285	1816.3314312738012
0.6644046994159818	2082.68045481859
0.6710487464101416	2355.680639531787
0.677759233874243	2715.6526117309486
0.6845368262129854	3090.7594430290837
0.6913821944751153	3493.1038752152103
0.6982960164198664	3973.47373311484
0.7052789765840651	4497.801878019938
0.7123317663499058	5081.447801185534
0.7194550840134049	5681.9999720632795
0.7266496348535388	6345.531459362857
0.7339161312020743	7144.83440103985
0.741255292514095	8003.126948909354
0.748667845439236	8834.538300130933
0.7561545238936284	9186.554287683739
0.7637160691325647	4920.036396177651
0.7713532298238903	4223.93571531019
0.7790667621221293	12560.68107599246
0.7868574297433505	15476.748988894944
0.7947260040407841	14906.800323713127
0.8026732640811919	19736.665848950215
0.8106999967220039	21736.55761743729
0.8188069966892239	24352.97119424398
0.8269950666561161	26979.784585702197
0.8352650173226772	29736.497149442373
0.8436176674959041	33138.53727609355
0.852053844170863	36707.974244161545
0.8605743826125718	40523.20418890052
0.8691801264386976	44598.097837465255
0.8778719277030844	48800.66853588435
0.8866506469801153	53031.913379865626
0.8955171534499164	56837.90356068364
0.9044723249844157	64106.43135484053
0.9135170482342599	70014.19512130554
0.9226522187166025	76053.10341624328
0.9318787409037684	69788.61718251674
0.941197528312806	83245.65165913357
0.9506095035959342	86609.35178563427
0.9601155986318936	92919.81717738195
0.9697167546182125	104921.08378881328
0.9794139221643946	121595.41036377275
0.9892080613860387	135501.8920419172
0.9991001419998989	149469.2264375029
1.0090911434198981	162601.8639316876
1.019182054854097	176824.70801711106
1.0293738754026378	188048.6749429632
1.0396676141566643	206213.46898871282
1.050064290298231	221536.64824870173
1.0605649332012133	239066.80660811468
1.0711705825332256	256276.0923400506
1.0818822883585577	275299.5820089032
1.0927011112421434	291410.97018847265
1.1036281223545648	263216.31168631336
1.1146644035781104	251792.20239778917
1.1258110476138916	270108.3100342465
1.1370691580900303	288180.37494368956
1.1484398496709307	331343.00055045815
1.1599242481676402	278452.57517989114
1.1715234906493166	382467.3828636702
1.1832387255558097	472815.96334248775
1.1950711128113678	520455.29051566107
1.2070218239394814	557475.8892967133
1.2190920421788762	595693.5424641933
1.2312829626006652	634356.3426809253
1.2435957922266716	673729.3352137224
1.2560317501489384	713288.0326684878
1.2685920676504279	750640.430562504
1.281277988326932	789706.2819182877
1.2940907682102014	818248.1534618353
1.3070316758923035	846239.7490088465
1.3201019926512265	893351.1278620575
1.3333030125777388	675386.237860071
1.3466360427035162	347494.33965815697
1.3601024031305513	140788.6430599488
1.373703427161857	409291.5930735523
1.3874404614334754	123046.57268289528
1.4013148660478103	274918.5343084526
1.4153280147082883	247347.4756607761
1.4294812948553712	342933.0908285037
1.443776107803925	555316.9645029197
1.4582138688819641	989856.6764322316
1.4727960075707838	960772.0371317243
1.4875239676464918	1278695.8322462596
1.5023992073229566	1383084.4076942126
1.5174231993961862	1563253.8061650505
1.532597431390148	1727189.68399171
1.5479234057040496	1831934.3465294375
1.5634026397610903	1903517.22997195
1.579036666158701	1871642.10103317
1.594827032820288	2067284.4699211225
1.610775303148491	2084389.0286858173
1.6268830561799759	1948281.3088527909
1.6431518867417756	2196944.005682493
1.6595834056091934	2197163.6523483293
1.6761792396652853	2159232.27314506
1.6929410320619382	1981503.694974796
1.7098704423825577	2065035.943113529
1.7269691468063835	2337113.956072833
1.744238838274447	2263891.7898410903
1.7616812266571917	2313134.7252120483
1.7792980389237634	1129432.8044957407
1.7970910193130012	1190697.7142093177
1.815061929506131	508184.81715899275
1.8332125488011928	441333.74589012575
1.8515446742892046	745167.8666522655
1.8700601210320964	526287.1345565647
1.8887607222424174	1513057.9341368752
1.9076483294648416	352395.6340338643
1.92672481275949	420293.5295524716
1.9459920608870853	942147.078234051
1.9654519814959561	1212683.0765902752
1.9851065013109155	2431016.1319105164
2.0049575663240247	2868088.301518578
2.025007141987265	3486838.385662453
2.0452572134071376	4002868.380963887
2.065709785541209	4193331.235179423
2.086366883396621	4296112.364131548
2.107230552230587	4308784.357465281
2.1283028577528933	4274213.486664097
2.1495858863304225	4014851.402993095
2.1710817451937263	3987403.362222707
2.1927925626456637	3166738.592831705
2.2147204882721203	2419749.77427253
2.2368676931548412	1455002.4679245055
2.25923637008639	1411037.9018229616
2.281828733787254	1233962.1589021364
2.3046470211251266	1465574.438605738
2.327693491336378	784773.8035053122
2.3509704262497415	779223.9363054865
2.374480130512239	617775.9574473612
2.3982249318173614	1073479.3113140392
2.4222071811355352	1812476.430666366
2.4464292529468903	1858121.6587008045
2.4708935454763594	1363161.0449083683
2.4956024809311232	715563.4191049718
2.5205585057404343	286786.33742318215
2.5457640907978387	541187.2214334831
2.5712217317058172	174673.1309974159
2.5969339490228753	126696.60189108408
2.622903288513104	432566.3206556316
2.6491323213982354	633758.1520734471
2.6756236446122177	57370.33711439038
2.7023798810583397	329355.9821095847
2.729403679868923	937664.4429594572
2.7566977166676123	345480.40793048555
2.7842646938342885	271536.3301540002
2.812107340772631	345076.78878240404
2.8402284141803578	777813.7031678063
2.8686306983221614	511370.11032286077
2.897317005305383	709393.77672742
2.926290175358437	1605933.607474507
2.9555530771120213	1887320.8298943485
2.9851086078831415	1938720.0153143643
3.014959693961973	2349483.2908307323
3.0451092909015927	2118779.8943506326
3.0755603838106085	2228109.89646307
3.1063159876487147	1469943.1079857475
3.137379147525202	1002604.1023542964
3.168752939000454	667724.2638789918
3.200440468390459	515341.78986931645
3.232444873074363	336656.6767391606
3.264769321805107	1009740.2339832577
3.297417015023158	1034839.9993681972
3.330391185173389	180710.42241017843
3.3636950970251234	769075.3272982574
3.397332047995375	621693.5280099608
3.4313053684753285	462227.5156556554
3.465618422160081	542456.4774349139
3.5002746063816828	823528.1284460686
3.5352773524454997	1091900.8858254906
3.570630125969955	1526678.6239065803
3.606336427229654	2072052.5144302265
3.6423997915019504	2790591.3838198236
3.67882378941697	3463641.644008231
3.7156120273111397	3568774.4819434145
3.7527681475842516	3974766.220980236
3.7902958290600934	3944234.4790009097
3.8281987873506953	4364373.307476503
3.8664807752242023	4292302.499725411
3.905145582976444	4280228.25117975
3.9441970388062084	4371784.516451972
3.983639009194271	4317454.198315669
4.023475399286213	4414419.592371656
4.063710153279075	4363518.952480796
4.1043472548118665	4416156.559567379
4.145390727359985	4435022.591820512
4.186844634633585	4371640.459894583
4.2287130809799205	4303488.589532504
4.27100021178972	4183342.9052446135
4.313710213907617	4154123.032918598
4.356847316046694	3875032.7125178888
4.40041578920716	3305243.826249402
4.444419947099232	2801951.9579397114
4.488864146570225	2469902.252186906
4.533752788035927	2223249.955575389
4.579090315916286	2301523.320472649
4.624881219075449	2320316.945151135
4.671130031266204	2504331.3262203797
4.717841331578866	2233471.609263303
4.765019744894654	2168720.5291601
4.812669942343601	2248119.072138297
4.8607966417670365	2410162.760127324
4.9094046081847065	2239592.145781843
4.958498654266554	1619791.6617280368
5.008083640809219	1939466.7854442843
5.058164477217312	2445607.030102251
5.108746121989485	1977633.2730584873
5.15983358320938	1577321.907808962
5.211431919041474	1076193.692651005
5.263546238231889	1525503.589502446
5.316181700614208	1846980.3102524073
5.36934351762035	950444.0643873694
5.423036952796553	682084.9636591828
5.4772673223245185	745137.9682020867
5.532039995547764	846830.9259108859
5.587360395503242	593988.8980736899
5.643233999458275	463762.2723237382
5.6996663394528575	441492.42440614215
5.756663002847385	419747.46840572765
5.814229632875859	503283.12296353886
5.872371929204618	353125.7520953056
5.931095648496664	436261.8790488248
5.990406604981631	590962.6929398358
6.050310671031448	478922.4651687137
6.110813777741763	699856.4931704758
6.17192191551918	517695.44912485866
6.233641134674372	1284018.1405491969
6.295977546021115	1407921.7073704426
6.358937321481327	873766.6581030521
6.42252669469614	282462.48725645826
6.486751961643101	253973.0460466328
6.551619481259532	313365.78472876205
6.617135676072128	268789.9735485032
6.683307032832849	459963.1603974625
6.750140103161177	561365.9484587472
6.81764150419279	556196.0021826277
6.885817919234718	393413.03945259977
6.954676098427065	555716.7202834421
7.024222859411336	337420.4186548597
7.094465088005449	527258.9356111693
7.165409738885503	356189.37244909897
7.237063836274358	389962.9065029389
7.309434474637103	320628.50286702794
7.382528819383473	275514.1852387454
7.456354107577308	264997.93949556886
7.530917648653081	365466.6695744279
7.606226825139612	393804.1088629763
7.682289093391009	206868.39512526162
7.759111984324918	314749.40351699496
7.836703104168168	340870.9214322929
7.91507013520985	321390.2921656132
7.994220836561947	378154.30344223476
8.074163044927568	379731.0948832749
8.154904675376844	411509.54313363566
8.23645372213061	472135.2119006912
8.318818259351918	520900.6825264341
8.402006441945437	541434.0178974386
8.486026506364892	653487.9841306088
8.57088677142854	689987.7907180471
8.656595639142825	747103.8590980102
8.743161595534254	787119.5367026366
8.830593211489598	828164.7231716657
8.918899143604493	809149.1061652044
9.00808813504054	809303.5179443263
9.098169016390944	834176.1863262401
9.189150706554853	826263.5137507813
9.281042213620402	819850.011250719
9.373852635756606	760465.8858685289
9.467591162114172	781070.737994991
9.562267073735315	780351.352129516
9.657889744472667	741925.7042783779
9.754468641917395	742048.2127527142
9.852013328336568	665383.4135116882
9.950533461619933	697512.3806771558
10.050038796236134	670679.4255279711
10.150539184198495	658322.9691442718
10.252044576040479	620557.6472007106
10.354565021800884	566268.207582232
10.458110672018893	567656.2645753504
10.562691778739081	569546.279767241
10.668318696526473	557491.5710485742
10.775001883491738	539052.9727669369
10.882751902326655	507538.17081123247
10.991579421349924	436889.7378273682
11.101495215563421	495875.5180468563
11.212510167719055	427521.4977094165
11.324635269396246	448838.5747612152
11.43788162209021	450565.8533693819
11.552260438311112	368495.12240020686
11.667783042694223	377925.19601983106
11.784460873121166	379509.6229408237
11.902305481852377	384470.23652755073
12.0213285366709	381584.97138506436
12.14154182203761	377849.8012854627
12.262957240257986	323722.4676638746
12.385586812660566	278840.72455796844
12.509442680787172	282196.02088835626
12.634537107595044	314258.9538120203
12.760882478670995	297186.8524013452
12.888491303457704	286357.17657642305
13.01737621649228	249791.30645211166
13.147549978657205	261889.73853667296
13.279025478443776	209832.88402285476
13.411815733228213	195733.39489563645
13.545933890560496	240129.82056991517
13.681393229466101	213151.08954938143
13.818207161760762	228423.67692692144
13.956389233378369	208058.23009172463
14.095953125712155	212030.380839717
14.236912656969274	188312.07380043427
14.379281783538968	151762.89206211886
14.523074601374358	142600.09067606798
14.6683053473881	178677.79200101134
14.814988400861985	164516.0491840423
14.963138284870602	148479.24685752782
15.11276966771931	158616.1972690786
15.263897364396504	162662.169574287
15.41653633804047	140209.30430992853
15.570701701420873	110511.47833528218
15.726408718435081	97354.33402130351
15.883672805619431	148591.48444536206
16.042509533675627	116068.45270110364
16.202934629012383	107835.1146468995
16.36496397530251	105257.32762990938
16.528613615055534	99730.19775231619
16.69389975120609	84957.89570173823
16.86083874871815	80377.66910679366
17.02944713620533	95553.72954389585
17.199741607567383	72086.99837213634
17.37173902364306	65821.36109401978
17.54545641387949	71644.94826267293
17.720910978018285	69805.68523434986
17.898120087798468	65887.51356999441
18.077101288676452	68838.58474840879
18.257872301563214	61098.56182449441
18.44045102457885	62941.56764523392
18.62485553482464	54613.7823599431
18.811104090172883	76947.01550177173
18.999215131074614	47276.733509529804
19.189207282385357	49094.36722294596
19.381099355209216	39800.24447174613
19.574910348761303	42033.20336777444
19.77065945224892	44334.14609508938
19.968366046771408	52874.499040530274
20.16804970723912	46950.00152523402
20.369730204311512	38387.278864699256
20.573427506354626	33635.2506630259
20.779161781418175	39478.779119141545
20.98695339923236	30722.12407508737
21.19682293322468	30031.95183011526
21.408791162556927	38070.64165464014
21.622879074182496	28057.24670892539
21.839107864924323	24911.77052509705
22.057498943573567	26111.811167428725
22.278073933009303	29275.38863685683
22.500854672339393	21989.588739284736
22.72586321906279	37771.80228863208
22.953121851253417	20630.66259510822
23.18265306976595	33590.95883657187
23.41447960046361	27301.175498070515
23.648624396468247	17776.686478584117
23.88511064043293	16096.279569066366
24.12396174683726	30046.323993062644
24.365201364305634	27782.580070256732
24.608853377948687	26197.580328152526
24.854941911728176	21432.978801863515
25.103491330845458	12964.277702811678
25.354526244153913	13164.555248078366
25.608071506595454	21420.753407579465
25.864152221661406	17512.66932345838
26.122793743878024	16856.025541334475
26.384021681316803	18306.18153970734
26.64786189812997	10186.026629262968
26.91434051711127	14709.540086485136
27.18348392228238	16553.197693862523
27.455318761505207	19914.403525483427
27.72987194912026	15673.61335479291
28.007170668611465	9626.014367256827
28.28724237529758	8401.98829868424
28.57011479905055	8370.866339543589
28.855815947041062	12929.778067042373
29.144374106511474	9135.114783793277
29.435817847576587	10411.838680628774
29.730176026052348	8916.135662698389
30.027477786312875	10872.278638388096
30.327752564176006	7385.773787181607
30.631030089817763	8069.145726818733
30.93734039071594	7192.904977585455
31.246713794623105	8737.633080257592
31.559180932569333	9777.51825761756
31.874772741895026	7446.978961093633
32.19352046931398	9391.422544345645
32.51545567400712	9228.786019932466
32.84061023074719	4958.9332288718115
33.169016333054664	5461.929915169002
33.500706496385206	5719.80064907352
33.83571356134906	8823.84454263225
34.17407069696255	5905.433424442189
34.51581140393218	4518.627796104941
34.8609695179715	5168.369180283027
35.209579213151216	4498.13848743483
35.56167500528272	3765.590632480961
35.917291755335555	3519.2589943761723
36.27646467288891	4776.718150507232
36.639229319617804	4521.450740249818
37.005621612813975	5891.019290112738
37.37567782894212	3554.1497281051215
37.74943460723154	4109.927637566165
38.12692895330385	5404.550463148398
38.5081982428369	4973.677833242578
38.893280225265265	3165.9884685744587
39.28221302751791	2511.5102574171156
39.6750351577931	3897.7359408868233
40.071785509371026	2512.0328808526524
40.47250336446474	2504.5768285449676
40.87722839810939	2530.3213583919655
41.28600068209048	3811.4242298119716
41.69886068891139	3856.8457751688834
42.1158492958005	3252.056992493016
42.53700778875851	2906.1400314656266
42.962377866646094	2136.437067676883
43.392001645312554	2017.1900888149835
43.825921661765676	1767.2745708043926
44.264180878383335	1822.060920719426
44.70682268716717	1799.1073726985417
45.15389091403884	1898.8239224200865
45.60542982317923	2409.8729191383054
46.06148412141103	1969.4126980608683
46.52209896262513	1554.9199628685433
46.98731995225138	1519.9828011397005
47.4571931517739	2130.158459898058
47.93176508329164	1338.476962880388
48.411082734124555	1866.9674510896516
48.8951935614658	1272.4744918624829
49.38414549708046	1125.9308057216074
49.877986952051266	1186.9833710507637
50.37676682157178	1145.0997277978906
50.88053448978749	1104.653038035845
51.38933983468537	1065.5856744545765
51.903233233032225	1027.8613686758204
52.422265565362544	991.429392332124
52.946488221016175	956.2481304307258
53.47595310322633	922.2853169974233
54.010712634258596	889.4889922226947
54.550819760601186	857.8268617692642
55.0963279582072	827.2601196140184
55.647291237789275	797.7501014337705
56.20376415016716	769.2669893755254
56.765801791668835	741.7703201175711
57.33345980958552	715.231895656739
57.906794407681375	689.6186778085608
58.48586235175819	664.8965972451563
59.070720975275776	641.0407410280527
59.661428185028534	618.0158094376375
60.25804246687882	595.8002460217537
60.860622891547614	574.3618145247411
61.46922912046309	553.6759106381165
62.083921411667724	533.7188887299184
62.7047606257844	514.4609798591794
63.331808232042235	495.8856029325502
63.965126314362664	477.96343333018
64.60477757750628	460.67417613183954
65.25082535328136	443.9972711970251
65.90333360681416	427.90814771816326
66.56236694288232	412.3924527719301
67.22799061231113	397.42568692729236
67.90027051843424	382.9903348501533
68.57927322361859	369.069076807323
69.26506595585477	355.6420257599942
69.95771661541333	342.69525066735474
70.65729378156746	330.20902388120595
71.36386671938313	318.1690230311821
72.07750538657696	306.55922127390915
72.79828044044274	295.3641658793611
73.52626324484716	284.5712323653848
74.26152587729563	274.1642200941458
75.00414113606858	264.1316952473166
75.75418254742928	254.45898064708345
76.51172437290357	245.13345525753087
77.27684161663261	236.14469964777052
78.04961003279894	227.47822896269628
78.83010613312693	219.1257689656082
79.6184071944582	211.07363781225368
80.41459126640278	203.31231987513218
81.2187371790668	195.83222625105685
82.03092455085748	188.62193655297264
82.85123379636605	181.6734785950245
83.6797461343297	174.9763828881389
84.51654359567301	168.52208358693974
85.36170903162974	162.30248197816925
86.21532612194603	156.30812342165603
87.0774793831655	150.53257492978503
87.94825417699715	144.96659914112715
88.82773671876713	139.60351528863941
89.71601408595481	134.43588903069062
90.61317422681435	129.45614995276864
91.5193059690825	124.65918875514267
92.43449902877332	120.03647317311216
93.35884401906105	115.58336963874036
