#wavelength	surface flux
0.428837	135.39729872847568
0.43312537	264.4966065136419
0.43745662370000005	310.9319259228321
0.4418311899370001	365.31160439679974
0.44624950183637	428.324766086107
0.4507119968547338	499.9104232959218
0.45521911682328114	585.0981392123136
0.4597713079915139	683.3869212078729
0.4643690210714291	795.9966044802383
0.4690127112821433	924.9413703366562
0.47370283839496474	1073.5565011694712
0.47843986677891437	1239.4542284187926
0.48322426544670355	1435.075161163857
0.48805650810117057	1662.5095008288783
0.4929370731821824	1916.22661131998
0.49786644391400414	2200.24597529339
0.5028451083531442	2523.380334584147
0.5078735594366757	2874.3442904410276
0.5129522950310424	3222.5949003640026
0.5180818179813528	3585.0027916859585
0.5232626361611664	4277.079452980291
0.5284952625227781	4878.489781829734
0.5337802151480058	5506.03262821883
0.5391180172994858	6198.182703981198
0.5445091974724807	6925.35849898187
0.5499542894472055	7662.49599346515
0.5554538323416777	8358.043364968109
0.5610083706650945	8905.011303767164
0.5666184543717453	9044.303998764428
0.5722846389154628	8371.023605140243
0.5780074853046174	6091.6803683489625
0.5837875601576636	2061.0974518785256
0.5896254357592402	75.12906180821837
0.5955216901168326	3512.1254243449516
0.6014769070180009	10584.287712014007
0.607491676088181	17282.097313551105
0.6135665928490629	23112.699532970833
0.6197022587775535	28481.980587850638
0.625899281365329	33687.418989964484
0.6321582741789823	38931.85645200976
0.6384798569207721	44475.52959518056
0.6448646554899798	50277.92639106244
0.6513133020448797	56539.90412257406
0.6578264350653285	63188.06265155843
0.6644046994159818	70381.96236117405
0.6710487464101416	70466.17808254938
0.677759233874243	86882.6595667842
0.6845368262129854	96251.1640899986
0.6913821944751153	105790.34784917076
0.6982960164198664	117008.73968801224
0.7052789765840651	128630.41355689157
0.7123317663499058	141031.96574874924
0.7194550840134049	153442.0047883065
0.7266496348535388	166697.87723779428
0.7339161312020743	180627.01112164604
0.741255292514095	193609.84118697816
0.748667845439236	201039.9890277812
0.7561545238936284	185350.2460079114
0.7637160691325647	67456.53014130017
0.7713532298238903	54413.1483798348
0.7790667621221293	226892.18280077472
0.7868574297433505	308462.47827279347
0.7947260040407841	269951.790589626
0.8026732640811919	391802.572385096
0.8106999967220039	425577.22338666825
0.8188069966892239	465177.7392317793
0.8269950666561161	505040.12056542566
0.8352650173226772	545163.5921279996
0.8436176674959041	591317.9091088278
0.852053844170863	636636.7666024612
0.8605743826125718	685759.7370846424
0.8691801264386976	736651.0932362933
0.8778719277030844	790536.557063005
0.8866506469801153	846828.6073106225
0.8955171534499164	894663.6788743552
0.9044723249844157	974534.2863541746
0.9135170482342599	1040602.6328178362
0.9226522187166025	1105274.137366479
0.9318787409037684	1066546.3835839464
0.941197528312806	1199466.3550198828
0.9506095035959342	1247298.7376093818
0.9601155986318936	1306267.0168016732
0.9697167546182125	1407433.5320176773
0.9794139221643946	1566385.0614066904
0.9892080613860387	1688139.6648473123
0.9991001419998989	1807113.1589212075
1.0090911434198981	1924412.7743193381
1.019182054854097	2051675.6957068734
1.0293738754026378	2151805.769684385
1.0396676141566643	2297948.713618022
1.050064290298231	2421102.8958266797
1.0605649332012133	2559190.0305055673
1.0711705825332256	2691030.788334805
1.0818822883585577	2834937.2753902236
1.0927011112421434	2941297.459999219
1.1036281223545648	2728463.424488574
1.1146644035781104	2736490.0858805296
1.1258110476138916	2949179.3278267384
1.1370691580900303	3011205.5194849363
1.1484398496709307	3340314.0216392805
1.1599242481676402	3067109.6244894606
1.1715234906493166	3596124.76011764
1.1832387255558097	4143892.837578462
1.1950711128113678	4435926.246209786
1.2070218239394814	4651822.346348128
1.2190920421788762	4888949.542754098
1.2312829626006652	5114229.960626183
1.2435957922266716	5334944.037583266
1.2560317501489384	5544680.132520029
1.2685920676504279	5747500.687040784
1.281277988326932	5948658.807244253
1.2940907682102014	6100737.354061236
1.3070316758923035	6255924.247954724
1.3201019926512265	6489223.525997066
1.3333030125777388	5140674.076465702
1.3466360427035162	3366557.871963846
1.3601024031305513	2099185.202203148
1.373703427161857	4118262.982242372
1.3874404614334754	2032789.6436423953
1.4013148660478103	2896985.087410303
1.4153280147082883	2820154.370276639
1.4294812948553712	3518252.675631148
1.443776107803925	4545451.395911985
1.4582138688819641	6494552.054234571
1.4727960075707838	6617627.274128308
1.4875239676464918	7811208.357844864
1.5023992073229566	8372880.140938508
1.5174231993961862	9025644.89139676
1.532597431390148	9702481.485385781
1.5479234057040496	10168423.885191163
1.5634026397610903	10485525.214883614
1.579036666158701	10611050.525646437
1.594827032820288	11148998.894862372
1.610775303148491	11325339.085423598
1.6268830561799759	11309620.342796832
1.6431518867417756	11896530.192822728
1.6595834056091934	11966013.77286176
1.6761792396652853	12066346.899821559
1.6929410320619382	11783651.227871303
1.7098704423825577	11963947.155872855
1.7269691468063835	12387875.8303277
1.744238838274447	11615804.290109333
1.7616812266571917	11849877.216294482
1.7792980389237634	7075814.252768804
1.7970910193130012	7033258.560385349
1.815061929506131	4215368.953549393
1.8332125488011928	4263662.082893292
1.8515446742892046	5263105.743138344
1.8700601210320964	4952758.510207758
1.8887607222424174	8403233.183060614
1.9076483294648416	4227991.107044416
1.92672481275949	4285342.724439857
1.9459920608870853	5813834.992826518
1.9654519814959561	6664095.305171649
1.9851065013109155	10429487.588529564
2.0049575663240247	11592721.613506975
2.025007141987265	13557371.856039334
2.0452572134071376	15339061.097644296
2.065709785541209	16012861.353429962
2.086366883396621	16307812.11764351
2.107230552230587	16318714.788950026
2.1283028577528933	16495261.063933553
2.1495858863304225	16175093.987958232
2.1710817451937263	16058858.57969623
2.1927925626456637	14635455.810308866
2.2147204882721203	13198015.721970474
2.2368676931548412	11242828.26139739
2.25923637008639	11077615.418238137
2.281828733787254	10192079.51645507
2.3046470211251266	8660089.566662952
2.327693491336378	6427267.076503854
2.3509704262497415	7296999.4565216275
2.374480130512239	6145548.417035142
2.3982249318173614	7943552.566966079
2.4222071811355352	9579573.753033897
2.4464292529468903	8603750.955414258
2.4708935454763594	6230537.076946398
2.4956024809311232	3848256.224154523
2.5205585057404343	2107188.5565239843
2.5457640907978387	3020860.885038171
2.5712217317058172	1411186.2511178555
2.5969339490228753	1434160.581541096
2.622903288513104	2853437.083683912
2.6491323213982354	3492487.493376934
2.6756236446122177	771781.7045835084
2.7023798810583397	2150437.1960592745
2.729403679868923	4200229.379292246
2.7566977166676123	2675470.1264028614
2.7842646938342885	2210813.519325222
2.812107340772631	2376948.466756861
2.8402284141803578	3787250.9227996278
2.8686306983221614	2687711.5806537345
2.897317005305383	3405596.593207927
2.926290175358437	5983114.772387091
2.9555530771120213	6483717.081595947
2.9851086078831415	6406980.296055533
3.014959693961973	7949408.574056565
3.0451092909015927	7622473.200829774
3.0755603838106085	7438593.3253146475
3.1063159876487147	5470632.0230439985
3.137379147525202	3874315.3012570436
3.168752939000454	2965868.327329156
3.200440468390459	2504336.948722447
3.232444873074363	1926045.0834736107
3.264769321805107	4961096.147955657
3.297417015023158	5287976.379506357
3.330391185173389	1040941.7073012848
3.3636950970251234	3649710.591190546
3.397332047995375	3322382.3700832175
3.4313053684753285	2568688.808300619
3.465618422160081	2679242.390731557
3.5002746063816828	3463907.362979298
3.5352773524454997	4702018.372032557
3.570630125969955	5845722.0371993985
3.606336427229654	7637482.107908682
3.6423997915019504	8933874.970592892
3.67882378941697	9893022.598374723
3.7156120273111397	9930882.889411151
3.7527681475842516	10018707.96119858
3.7902958290600934	9790285.617045604
3.8281987873506953	9808168.030118838
3.8664807752242023	9470693.48354628
3.905145582976444	9282484.403272504
3.9441970388062084	9160875.126161534
3.983639009194271	9059207.822540237
4.023475399286213	9089316.008365639
4.063710153279075	8966760.272070102
4.1043472548118665	9202516.232158745
4.145390727359985	9188068.373317454
4.186844634633585	9010555.812977469
4.2287130809799205	8853181.463607986
4.27100021178972	8599212.64251114
4.313710213907617	8429632.955119636
4.356847316046694	7712422.184193233
4.40041578920716	6092507.302370185
4.444419947099232	4769087.324594694
4.488864146570225	3923858.5931148455
4.533752788035927	3432081.167691882
4.579090315916286	3607534.6792143374
4.624881219075449	3845538.195226337
4.671130031266204	4474026.3772345185
4.717841331578866	3861774.457851627
4.765019744894654	3448797.24226809
4.812669942343601	3717382.0068877186
4.8607966417670365	4202373.457125648
4.9094046081847065	3911513.8213023907
4.958498654266554	3433990.790108061
5.008083640809219	3915343.370448677
5.058164477217312	4431563.905013186
5.108746121989485	4140001.8223393587
5.15983358320938	3624765.9556208765
5.211431919041474	2757012.377193911
5.263546238231889	3502629.7411891837
5.316181700614208	3968934.704555119
5.36934351762035	2508596.8112869402
5.423036952796553	1953048.7460018648
5.4772673223245185	2211560.790754044
5.532039995547764	2327164.8065999406
5.587360395503242	1846731.8835950315
5.643233999458275	1626521.5922215956
5.6996663394528575	1473890.2674729165
5.756663002847385	1492825.9426950281
5.814229632875859	1565281.5962337106
5.872371929204618	1319508.0114480134
5.931095648496664	1397862.5245789737
5.990406604981631	1826854.5131392207
6.050310671031448	1433845.7119866882
6.110813777741763	2074269.48666346
6.17192191551918	1572232.8428111384
6.233641134674372	2850882.444979469
6.295977546021115	3002249.574055372
6.358937321481327	2226665.315720384
6.42252669469614	1001761.6052100392
6.486751961643101	911128.6295610648
6.551619481259532	1040678.2999550184
6.617135676072128	858454.7760172766
6.683307032832849	1217171.4272652098
6.750140103161177	1321273.7922037388
6.81764150419279	1264351.543068608
6.885817919234718	1090557.836356066
6.954676098427065	1259608.199203252
7.024222859411336	944819.4602326344
7.094465088005449	1182402.2500539361
7.165409738885503	942084.3711716288
7.237063836274358	948158.0547636301
7.309434474637103	874970.4595873835
7.382528819383473	817725.9503637843
7.456354107577308	761917.4970790902
7.530917648653081	976886.5379256565
7.606226825139612	920344.6507309247
7.682289093391009	642246.1392445784
7.759111984324918	776179.5301847188
7.836703104168168	880654.899882522
7.91507013520985	845793.9169162723
7.994220836561947	959434.0963208757
8.074163044927568	896807.885843402
8.154904675376844	899111.2582813044
8.23645372213061	974520.088152629
8.318818259351918	1037271.6621333363
8.402006441945437	1061645.9500328556
8.486026506364892	1174969.0955141508
8.57088677142854	1239463.5388190658
8.656595639142825	1306004.5247863305
8.743161595534254	1321379.230571179
8.830593211489598	1375984.0175283705
8.918899143604493	1365622.0008249283
9.00808813504054	1334476.175403869
9.098169016390944	1350623.051031223
9.189150706554853	1331058.5459402828
9.281042213620402	1306352.0617377856
9.373852635756606	1239155.415454208
9.467591162114172	1219824.5546376582
9.562267073735315	1221651.6894006743
9.657889744472667	1164401.2076640204
9.754468641917395	1154535.7278185152
9.852013328336568	1049045.0351488986
9.950533461619933	1076390.682858502
10.050038796236134	1036953.944637625
10.150539184198495	1011089.8388654732
10.252044576040479	960152.6970476917
10.354565021800884	889120.8220620529
10.458110672018893	870506.4011146672
10.562691778739081	873478.381942029
10.668318696526473	853071.8692620128
10.775001883491738	822109.3853918056
10.882751902326655	773139.1816756334
10.991579421349924	673707.9566695901
11.101495215563421	747682.6804872833
11.212510167719055	709835.3291123499
11.324635269396246	681486.386071799
11.43788162209021	675728.9982469787
11.552260438311112	598704.7094185749
11.667783042694223	578528.399369976
11.784460873121166	567055.6031039522
11.902305481852377	579009.4664834625
12.0213285366709	564486.070637146
12.14154182203761	555347.1508754155
12.262957240257986	483200.5925970145
12.385586812660566	422563.4624011858
12.509442680787172	435004.75146978704
12.634537107595044	458624.71285651805
12.760882478670995	436313.67873455514
12.888491303457704	432971.5195502543
13.01737621649228	369733.6486322372
13.147549978657205	379005.4780965618
13.279025478443776	317275.0627077871
13.411815733228213	303040.0616144109
13.545933890560496	340803.0939903475
13.681393229466101	313694.3165099893
13.818207161760762	325561.2706788007
13.956389233378369	299542.972181633
14.095953125712155	304928.56759357755
14.236912656969274	269664.54395879956
14.379281783538968	230810.8749944896
14.523074601374358	219529.2261962055
14.6683053473881	250722.28580445965
14.814988400861985	229081.69574511805
14.963138284870602	209477.7315632741
15.11276966771931	225288.89582671074
15.263897364396504	231423.0495433309
15.41653633804047	191956.45388438326
15.570701701420873	161557.4814911139
15.726408718435081	148982.9012517355
15.883672805619431	207064.99758213083
16.042509533675627	164470.83700750917
16.202934629012383	154566.3404402429
16.36496397530251	143295.62160327795
16.528613615055534	141219.33928145948
16.69389975120609	123036.30976456922
16.86083874871815	126611.58496182322
17.02944713620533	133635.327038588
17.199741607567383	106521.42376079012
17.37173902364306	97171.13750657374
17.54545641387949	109577.40395648203
17.720910978018285	96895.18921241797
17.898120087798468	91883.41305908562
18.077101288676452	95874.96395843604
18.257872301563214	94858.53497301879
18.44045102457885	86985.63701683267
18.62485553482464	76996.07253396863
18.811104090172883	105838.04274777189
18.999215131074614	70580.30817039945
19.189207282385357	73219.70305757104
19.381099355209216	59845.60010938268
19.574910348761303	61179.98918336038
19.77065945224892	66666.18247352958
19.968366046771408	75419.71902156374
20.16804970723912	64238.4256088355
20.369730204311512	54968.04683183476
20.573427506354626	50598.74583660046
20.779161781418175	56340.88780444798
20.98695339923236	45201.66736081115
21.19682293322468	46113.380202212815
21.408791162556927	54981.815288559555
21.622879074182496	40734.617263513705
21.839107864924323	39660.01834273511
22.057498943573567	39554.69859410583
22.278073933009303	41117.97349387926
22.500854672339393	33732.97419144875
22.72586321906279	52003.94360146823
22.953121851253417	31197.483041214608
23.18265306976595	48395.066403274664
23.41447960046361	38508.64996541675
23.648624396468247	27870.64640723763
23.88511064043293	25718.760127504458
24.12396174683726	40561.878369542
24.365201364305634	37050.97199063362
24.608853377948687	34539.61298175226
24.854941911728176	29465.795375690042
25.103491330845458	20871.9287458979
25.354526244153913	20624.2158851295
25.608071506595454	28089.386232159937
25.864152221661406	27170.484600165022
26.122793743878024	24120.822324226454
26.384021681316803	25306.695294277666
26.64786189812997	16477.577370604704
26.91434051711127	21638.680337297916
27.18348392228238	22946.066518661486
27.455318761505207	27396.839752331667
27.72987194912026	21555.696158577724
28.007170668611465	15072.217982405738
28.28724237529758	13561.340170846752
28.57011479905055	13357.769693685836
28.855815947041062	18148.938778409
29.144374106511474	14123.102101227572
29.435817847576587	14539.649561541328
29.730176026052348	13950.34587905927
30.027477786312875	14890.798616186616
30.327752564176006	11328.981888244043
30.631030089817763	11821.28662583977
30.93734039071594	10786.704683355907
31.246713794623105	11806.18039038024
31.559180932569333	13439.668776833705
31.874772741895026	10748.786739246822
32.19352046931398	12773.132054027908
32.51545567400712	12774.6636330507
32.84061023074719	7916.052147811882
33.169016333054664	8361.08568682519
33.500706496385206	8488.428086695692
33.83571356134906	11870.154100764605
34.17407069696255	8501.55985119677
34.51581140393218	7148.2301753159645
34.8609695179715	7254.5227764778165
35.209579213151216	6678.706901279401
35.56167500528272	6019.344723838595
35.917291755335555	5690.888932632919
36.27646467288891	7181.897626830741
36.639229319617804	6383.266575689902
37.005621612813975	7803.920487156301
37.37567782894212	5279.97192094319
37.74943460723154	5875.066121304992
38.12692895330385	7148.361824107611
38.5081982428369	6588.810940075374
38.893280225265265	4714.495449496082
39.28221302751791	4055.012554098364
39.6750351577931	5419.302180932578
40.071785509371026	3895.6147690187227
40.47250336446474	3908.3454764381013
40.87722839810939	3830.4398228070645
41.28600068209048	4972.810434166721
41.69886068891139	4990.403180756921
42.1158492958005	4436.333533313306
42.53700778875851	4057.386919490006
42.962377866646094	3148.4952909959093
43.392001645312554	2992.689892592251
43.825921661765676	2805.5347388071086
44.264180878383335	2837.0434198716325
44.70682268716717	2752.044736754625
45.15389091403884	2853.913593952822
45.60542982317923	3193.177965270372
46.06148412141103	2743.0978293354465
46.52209896262513	2331.5591566920616
46.98731995225138	2251.9208865927967
47.4571931517739	2889.9205504250576
47.93176508329164	2099.972356041482
48.411082734124555	2532.2758242630675
48.8951935614658	1941.6578754414234
49.38414549708046	1771.917981903128
49.877986952051266	1822.9337868184198
50.37676682157178	1756.5955819086932
50.88053448978749	1692.6272487952601
51.38933983468537	1630.9353246611445
51.903233233032225	1571.4521470230004
52.422265565362544	1514.0950280274158
52.946488221016175	1458.785248572264
53.47595310322633	1405.467629837456
54.010712634258596	1354.057135303508
54.550819760601186	1304.4909259759322
55.0963279582072	1256.7043664776393
55.647291237789275	1210.636548753828
56.20376415016716	1166.234277385297
56.765801791668835	1123.4243739048177
57.33345980958552	1082.1608096753457
57.906794407681375	1042.3854394681136
58.48586235175819	1004.0455306737952
59.070720975275776	967.098313731335
59.661428185028534	931.4793994914422
60.25804246687882	897.1596894939948
60.860622891547614	864.0776323455416
61.46922912046309	832.1980955486715
62.083921411667724	801.4779587664462
62.7047606257844	771.8673438713529
63.331808232042235	743.341595380696
63.965126314362664	715.8505200878343
64.60477757750628	689.3606012522941
65.25082535328136	663.8379052696949
65.90333360681416	639.2424821935292
66.56236694288232	615.5499060248499
67.22799061231113	592.7203768571007
67.90027051843424	570.7254611342622
68.57927322361859	549.5367006297425
69.26506595585477	529.1212505019763
69.95771661541333	509.4567533115649
70.65729378156746	490.5115817915943
71.36386671938313	472.2617528871171
72.07750538657696	454.68205326564845
72.79828044044274	437.74720832331326
73.52626324484716	421.43665202930276
74.26152587729563	405.7245681761179
75.00414113606858	390.59218738414046
75.75418254742928	376.01692506523517
76.51172437290357	361.9777833979055
77.27684161663261	348.45821172023517
78.04961003279894	335.43527655350783
78.83010613312693	322.8957041529291
79.6184071944582	310.8181854375829
80.41459126640278	299.18663125930453
81.2187371790668	287.9867122047389
82.03092455085748	277.1999055832209
82.85123379636605	266.8139891394105
83.6797461343297	256.8120926244924
84.51654359567301	247.18091877164227
85.36170903162974	237.90771033963682
86.21532612194603	228.97763019021176
87.0774793831655	220.38042789503982
87.94825417699715	212.1018751280917
88.82773671876713	204.13139003049918
89.71601408595481	196.4574829733295
90.61317422681435	189.06837994081062
91.5193059690825	181.9556229819827
92.43449902877332	175.10664059314578
93.35884401906105	168.5139458724755
