#wavelength	surface flux
0.428837	632.8851560592357
0.43312537	1221.0900139801508
0.43745662370000005	1415.2946295870015
0.4418311899370001	1639.7312254574654
0.44624950183637	1894.3860656809322
0.4507119968547338	2172.986145899838
0.45521911682328114	2519.1601300806774
0.4597713079915139	2904.832006072116
0.4643690210714291	3343.6145376330064
0.4690127112821433	3831.981852587896
0.47370283839496474	4390.474101393556
0.47843986677891437	4983.741536771419
0.48322426544670355	5713.341979684249
0.48805650810117057	6569.0206576928795
0.4929370731821824	7478.264241967686
0.49786644391400414	8448.649714984116
0.5028451083531442	9577.937955438967
0.5078735594366757	10687.156081977006
0.5129522950310424	11518.591613617518
0.5180818179813528	12353.84951645211
0.5232626361611664	15425.216641222187
0.5284952625227781	17562.9338575596
0.5337802151480058	19573.73862970027
0.5391180172994858	21874.6588940878
0.5445091974724807	24228.97164039722
0.5499542894472055	26557.488244758097
0.5554538323416777	28772.257821721578
0.5610083706650945	30569.473781423174
0.5666184543717453	31038.010579013633
0.5722846389154628	29055.212185351375
0.5780074853046174	21725.100123463224
0.5837875601576636	7809.3184522986385
0.5896254357592402	296.0617945476946
0.5955216901168326	12854.018485894849
0.6014769070180009	36043.48838739965
0.607491676088181	56364.39193994785
0.6135665928490629	73110.71867192395
0.6197022587775535	88173.20375104147
0.625899281365329	102670.48236957163
0.6321582741789823	116688.75593454066
0.6384798569207721	132233.58063313842
0.6448646554899798	147843.68642979948
0.6513133020448797	164427.82340974783
0.6578264350653285	181505.5443272426
0.6644046994159818	199779.8481051908
0.6710487464101416	192016.6815609481
0.677759233874243	242183.71290044227
0.6845368262129854	265950.23066701496
0.6913821944751153	288920.67819646146
0.6982960164198664	317944.4125129169
0.7052789765840651	346417.32262573333
0.7123317663499058	376498.8132851745
0.7194550840134049	406923.383561135
0.7266496348535388	439025.105433304
0.7339161312020743	471751.3870020421
0.741255292514095	501709.92806747666
0.748667845439236	518195.87535851926
0.7561545238936284	479032.3349962787
0.7637160691325647	180454.2596785081
0.7713532298238903	144254.29966941598
0.7790667621221293	572163.8480060154
0.7868574297433505	762047.8725693446
0.7947260040407841	663636.8234431691
0.8026732640811919	947035.3827504625
0.8106999967220039	1022550.7594221297
0.8188069966892239	1104400.1373479003
0.8269950666561161	1191938.2132884134
0.8352650173226772	1277902.0865397577
0.8436176674959041	1372917.2286442241
0.852053844170863	1465329.6113239625
0.8605743826125718	1560698.6657942967
0.8691801264386976	1663054.3853010423
0.8778719277030844	1775005.4114444929
0.8866506469801153	1892659.8057301838
0.8955171534499164	1997999.3708270197
0.9044723249844157	2148307.920578642
0.9135170482342599	2279557.9702136735
0.9226522187166025	2408641.7018648474
0.9318787409037684	2398931.179534863
0.941197528312806	2625994.949137603
0.9506095035959342	2740249.1792477826
0.9601155986318936	2863267.458709087
0.9697167546182125	3040907.896137432
0.9794139221643946	3308405.926830612
0.9892080613860387	3517210.8225584812
0.9991001419998989	3720855.1181055736
1.0090911434198981	3930803.2931590336
1.019182054854097	4161954.712027219
1.0293738754026378	4351770.36248582
1.0396676141566643	4603008.982018607
1.050064290298231	4824059.920182589
1.0605649332012133	5064011.957749092
1.0711705825332256	5297221.482334759
1.0818822883585577	5545677.113233203
1.0927011112421434	5738404.374025805
1.1036281223545648	5518530.309064737
1.1146644035781104	5626158.29649794
1.1258110476138916	5997002.080908696
1.1370691580900303	6101620.393725937
1.1484398496709307	6616321.638166473
1.1599242481676402	6368800.845950812
1.1715234906493166	7041485.0946450485
1.1832387255558097	7791819.675388422
1.1950711128113678	8227967.581272318
1.2070218239394814	8564542.823495623
1.2190920421788762	8937460.36052139
1.2312829626006652	9289645.884251187
1.2435957922266716	9632513.538126756
1.2560317501489384	9950980.508062957
1.2685920676504279	10282639.464034947
1.281277988326932	10599011.492223637
1.2940907682102014	10862904.612671176
1.3070316758923035	11129453.37732945
1.3201019926512265	11471816.673018934
1.3333030125777388	9721343.186676182
1.3466360427035162	7403984.07235476
1.3601024031305513	5529046.502150924
1.373703427161857	8799011.220922124
1.3874404614334754	5604086.901827923
1.4013148660478103	6807608.1972259525
1.4153280147082883	6730322.511902492
1.4294812948553712	7881714.527990097
1.443776107803925	9348360.05897485
1.4582138688819641	11922967.070628516
1.4727960075707838	12232162.853444308
1.4875239676464918	13654366.84018744
1.5023992073229566	14466478.420796974
1.5174231993961862	15238497.223245202
1.532597431390148	16076855.688042667
1.5479234057040496	16703692.167893905
1.5634026397610903	17145491.43529622
1.579036666158701	17444129.26222576
1.594827032820288	18045200.44665383
1.610775303148491	18360880.78281091
1.6268830561799759	18603621.53634672
1.6431518867417756	19149320.992952812
1.6595834056091934	19328831.98271543
1.6761792396652853	19593399.680339232
1.6929410320619382	19512994.657027885
1.7098704423825577	19693648.50216244
1.7269691468063835	19944267.855390284
1.744238838274447	18966634.149100382
1.7616812266571917	19270065.4774511
1.7792980389237634	13512110.732625594
1.7970910193130012	13095849.496058108
1.815061929506131	9412014.456954513
1.8332125488011928	9922007.70222843
1.8515446742892046	10900481.992872322
1.8700601210320964	11049644.421921933
1.8887607222424174	15231226.628874533
1.9076483294648416	10182123.605389835
1.92672481275949	10115794.502982443
1.9459920608870853	11661457.66767127
1.9654519814959561	12747655.709453288
1.9851065013109155	17224657.573397487
2.0049575663240247	18441800.78099643
2.025007141987265	20689505.820207644
2.0452572134071376	22716285.31410461
2.065709785541209	23495541.755404633
2.086366883396621	23839342.12513895
2.107230552230587	23899586.47734171
2.1283028577528933	24184110.39806119
2.1495858863304225	24033822.58088132
2.1710817451937263	23960542.023246877
2.1927925626456637	23138460.46966255
2.2147204882721203	22227797.773327593
2.2368676931548412	20990949.659108736
2.25923637008639	20797151.468317855
2.281828733787254	19903492.846034523
2.3046470211251266	15670262.856344467
2.327693491336378	13659318.205498843
2.3509704262497415	15787849.938685842
2.374480130512239	14204277.691477738
2.3982249318173614	15796788.760930935
2.4222071811355352	16904893.569696054
2.4464292529468903	15005163.228226805
2.4708935454763594	11435717.886099597
2.4956024809311232	7948603.710039353
2.5205585057404343	5056583.0648071645
2.5457640907978387	6352744.309273867
2.5712217317058172	3609336.2380180466
2.5969339490228753	4058603.507209286
2.622903288513104	6518449.852242264
2.6491323213982354	7454008.899761836
2.6756236446122177	2418651.1302235625
2.7023798810583397	4983110.6039797375
2.729403679868923	8041542.745047926
2.7566977166676123	6064194.610221341
2.7842646938342885	5329094.497328966
2.812107340772631	5455301.465903917
2.8402284141803578	7298894.6756329425
2.8686306983221614	5701613.610151089
2.897317005305383	6893903.39662652
2.926290175358437	10138460.622730555
2.9555530771120213	10759654.922438392
2.9851086078831415	10553616.192544488
3.014959693961973	12723229.181949172
3.0451092909015927	12423872.481211418
3.0755603838106085	12642607.622690532
3.1063159876487147	10744593.189183014
3.137379147525202	8369324.892972096
3.168752939000454	7127870.85917227
3.200440468390459	6314321.706777291
3.232444873074363	5229017.593279422
3.264769321805107	10996569.596657943
3.297417015023158	11240082.21218699
3.330391185173389	2536931.4546722816
3.3636950970251234	8504898.755155053
3.397332047995375	7939927.247278226
3.4313053684753285	6728959.119525672
3.465618422160081	6741515.609835231
3.5002746063816828	7984893.530805595
3.5352773524454997	9998495.691385409
3.570630125969955	11113170.389150972
3.606336427229654	12647999.766607095
3.6423997915019504	13206475.191203557
3.67882378941697	13370954.322062014
3.7156120273111397	12892219.681548495
3.7527681475842516	12567163.168628784
3.7902958290600934	12122628.993449798
3.8281987873506953	11860375.630450774
3.8664807752242023	11320434.546543736
3.905145582976444	11042520.928387426
3.9441970388062084	10846285.258493487
3.983639009194271	10811090.092100628
4.023475399286213	10806831.732859388
4.063710153279075	10728470.447650978
4.1043472548118665	11083448.50231776
4.145390727359985	11157686.135113848
4.186844634633585	11035010.95556013
4.2287130809799205	10854781.164249143
4.27100021178972	10587519.769906176
4.313710213907617	10329932.157303121
4.356847316046694	9457680.158084502
4.40041578920716	7354343.961946247
4.444419947099232	5477161.974206342
4.488864146570225	4224197.49656315
4.533752788035927	3525979.6151158554
4.579090315916286	3779148.2514971984
4.624881219075449	4215885.235308576
4.671130031266204	5240386.214955287
4.717841331578866	4348529.822208814
4.765019744894654	3671184.3264750014
4.812669942343601	4144099.112046595
4.8607966417670365	4889120.821266517
4.9094046081847065	4550879.672108209
4.958498654266554	4439268.111321502
5.008083640809219	5022949.514137962
5.058164477217312	5394262.202922477
5.108746121989485	5453453.548751044
5.15983358320938	5067079.158621156
5.211431919041474	4170505.8628941956
5.263546238231889	4940336.467412625
5.316181700614208	5371856.014317253
5.36934351762035	3824522.437090771
5.423036952796553	3141188.5801849
5.4772673223245185	3527699.7145330757
5.532039995547764	3601880.9466554653
5.587360395503242	3064061.38289443
5.643233999458275	2807912.0434381696
5.6996663394528575	2507889.403106587
5.756663002847385	2579465.454431176
5.814229632875859	2591345.0774459764
5.872371929204618	2307483.1345832758
5.931095648496664	2341318.643452297
5.990406604981631	2969872.932958189
6.050310671031448	2358807.3888733373
6.110813777741763	3147322.7343835738
6.17192191551918	2555758.492798923
6.233641134674372	3872449.855893184
6.295977546021115	3992600.343321722
6.358937321481327	3268747.912343313
6.42252669469614	1736655.6127005985
6.486751961643101	1578329.4052290854
6.551619481259532	1739258.060486608
6.617135676072128	1439654.4314773534
6.683307032832849	1883310.2593260598
6.750140103161177	1964718.970739565
6.81764150419279	1856182.9442011644
6.885817919234718	1720837.9509450523
6.954676098427065	1842938.7777257906
7.024222859411336	1496072.3020623461
7.094465088005449	1738513.4231806824
7.165409738885503	1478668.4511680824
7.237063836274358	1458871.0397971114
7.309434474637103	1414151.222329806
7.382528819383473	1340295.6088727172
7.456354107577308	1231858.9053249164
7.530917648653081	1543210.060717681
7.606226825139612	1362529.7146971035
7.682289093391009	1081542.7595145484
7.759111984324918	1186521.3481730472
7.836703104168168	1358623.9733746767
7.91507013520985	1314057.5070747053
7.994220836561947	1506404.2351844592
8.074163044927568	1366564.981296967
8.154904675376844	1326686.643487879
8.23645372213061	1426766.922510274
8.318818259351918	1481617.3510348077
8.402006441945437	1520879.5133415041
8.486026506364892	1561549.93633635
8.57088677142854	1635106.9297639977
8.656595639142825	1664800.6961486752
8.743161595534254	1635313.862645528
8.830593211489598	1668581.2742224974
8.918899143604493	1649667.1018338476
9.00808813504054	1594477.3415887007
9.098169016390944	1584933.0511381777
9.189150706554853	1553456.446376482
9.281042213620402	1513400.0560606273
9.373852635756606	1447002.4142578566
9.467591162114172	1404668.329507013
9.562267073735315	1394727.1722016728
9.657889744472667	1336957.684225561
9.754468641917395	1311860.3567192554
9.852013328336568	1216563.3207043626
9.950533461619933	1220589.6196641452
10.050038796236134	1178636.967467139
10.150539184198495	1144016.347524847
10.252044576040479	1094405.8281633747
10.354565021800884	1024764.4343880027
10.458110672018893	999447.0700484213
10.562691778739081	992041.8708641778
10.668318696526473	966049.3589431866
10.775001883491738	931222.3097651595
10.882751902326655	883367.9177193058
10.991579421349924	794750.4520870462
11.101495215563421	843634.7674043872
11.212510167719055	811860.6517912076
11.324635269396246	775483.6716944792
11.43788162209021	761537.6486127919
11.552260438311112	699663.2576618331
11.667783042694223	672450.9009251412
11.784460873121166	652620.1375472829
11.902305481852377	658499.7083046393
12.0213285366709	636606.4259453043
12.14154182203761	621778.3483714317
12.262957240257986	558905.2364695405
12.385586812660566	503155.93538032647
12.509442680787172	512989.53451273026
12.634537107595044	521204.7412057207
12.760882478670995	498151.763754979
12.888491303457704	495358.2970501182
13.01737621649228	432153.65904086124
13.147549978657205	435448.6190187772
13.279025478443776	381166.85416220955
13.411815733228213	366749.8351276062
13.545933890560496	389302.9199299543
13.681393229466101	366628.57278976677
13.818207161760762	369531.5273941161
13.956389233378369	345801.78625204874
14.095953125712155	348207.89913518535
14.236912656969274	311740.6552062572
14.379281783538968	278523.55783431977
14.523074601374358	266835.11040074105
14.6683053473881	286891.2531138958
14.814988400861985	264138.8318794698
14.963138284870602	244730.76806215986
15.11276966771931	258038.32705348128
15.263897364396504	263152.1412376615
15.41653633804047	221523.43795269312
15.570701701420873	193542.11438930212
15.726408718435081	181176.72306509715
15.883672805619431	232572.54977779373
16.042509533675627	191713.80742654623
16.202934629012383	181016.349803301
16.36496397530251	166986.17948401446
16.528613615055534	166696.88290772124
16.69389975120609	146990.5015041363
16.86083874871815	155560.98513121027
17.02944713620533	155366.52215591847
17.199741607567383	129114.73720146375
17.37173902364306	117544.45774675858
17.54545641387949	132999.68014118777
17.720910978018285	114743.71012527726
17.898120087798468	109510.90415118945
18.077101288676452	113035.3913668909
18.257872301563214	116650.26743665506
18.44045102457885	102525.22610386944
18.62485553482464	92255.354269457
18.811104090172883	119857.044985581
18.999215131074614	85885.0723729563
19.189207282385357	89172.46457242682
19.381099355209216	74113.50913134956
19.574910348761303	74567.072512223
19.77065945224892	81364.97821709562
19.968366046771408	87729.76921556791
20.16804970723912	75411.63971263521
20.369730204311512	66378.20626068414
20.573427506354626	62187.714039462684
20.779161781418175	67314.02129031831
20.98695339923236	55581.96725028263
21.19682293322468	56870.58241520407
21.408791162556927	64694.397681822054
21.622879074182496	49872.507222647684
21.839107864924323	49807.78968189612
22.057498943573567	48989.366573792446
22.278073933009303	49203.939572766445
22.500854672339393	42144.49575196457
22.72586321906279	59117.24585596108
22.953121851253417	38914.19049941417
23.18265306976595	55846.266919720256
23.41447960046361	45356.28809515229
23.648624396468247	35096.36745905826
23.88511064043293	32690.377931660292
24.12396174683726	46359.44425966251
24.365201364305634	42542.30815172343
24.608853377948687	39537.26962184987
24.854941911728176	34759.164008227584
25.103491330845458	26709.019483617787
25.354526244153913	26125.878381951214
25.608071506595454	32263.464937242912
25.864152221661406	32846.33574024535
26.122793743878024	28974.387405908758
26.384021681316803	29668.5832683553
26.64786189812997	21139.024708817422
26.91434051711127	26015.465345112032
27.18348392228238	26903.904531789456
27.455318761505207	30966.503708969965
27.72987194912026	25105.4473664899
28.007170668611465	18884.06701747017
28.28724237529758	17318.65713709873
28.57011479905055	16975.258011231985
28.855815947041062	21416.188233582146
29.144374106511474	17579.787403538925
29.435817847576587	17309.905681737902
29.730176026052348	17310.03988258297
30.027477786312875	17559.529132852454
30.327752564176006	14141.256143992698
30.631030089817763	14435.124533358081
30.93734039071594	13329.193657219052
31.246713794623105	13930.665831799422
31.559180932569333	15658.92541577048
31.874772741895026	13026.559941372709
32.19352046931398	14691.135145486316
32.51545567400712	14868.68475813528
32.84061023074719	10039.589477165993
33.169016333054664	10371.146126531296
33.500706496385206	10426.094104181262
33.83571356134906	13485.554150416787
34.17407069696255	10140.890507543436
34.51581140393218	8965.432328878655
34.8609695179715	8750.80375372752
35.209579213151216	8225.952160079682
35.56167500528272	7619.385222443702
35.917291755335555	7233.515566125133
36.27646467288891	8713.87009950263
36.639229319617804	7674.645506891108
37.005621612813975	8894.75404700941
37.37567782894212	6496.6742819391875
37.74943460723154	7055.8198244501955
38.12692895330385	8152.722850312318
38.5081982428369	7599.529382525094
38.893280225265265	5880.431036175242
39.28221302751791	5151.225763315559
39.6750351577931	6354.717708341507
40.071785509371026	4868.8999358762
40.47250336446474	4871.62696974808
40.87722839810939	4730.6848575439535
41.28600068209048	5695.921986668959
41.69886068891139	5628.473230892425
42.1158492958005	5176.221489953016
42.53700778875851	4819.349061883266
42.962377866646094	3869.3939616890716
43.392001645312554	3689.5815527160644
43.825921661765676	3531.1084317534837
44.264180878383335	3541.1256463144723
44.70682268716717	3406.841209220867
45.15389091403884	3478.3197282665274
45.60542982317923	3706.2415117453743
46.06148412141103	3271.1497098966306
46.52209896262513	2875.9847776367897
46.98731995225138	2767.424276973534
47.4571931517739	3343.769792939094
47.93176508329164	2627.5689206938464
48.411082734124555	2964.0131581880123
48.8951935614658	2404.533307463227
49.38414549708046	2223.3288327240384
49.877986952051266	2257.2919242530897
50.37676682157178	2174.1512124580686
50.88053448978749	2094.0305335564067
51.38933983468537	2016.8086154071866
51.903233233032225	1942.3956027214924
52.422265565362544	1870.6773037549674
52.946488221016175	1801.562560658749
53.47595310322633	1734.9781396944109
54.010712634258596	1670.8026180536262
54.550819760601186	1608.9717074920936
55.0963279582072	1549.393544925384
55.647291237789275	1491.9866690732877
56.20376415016716	1436.6782446086834
56.765801791668835	1383.3893026564276
57.33345980958552	1332.0509072403374
57.906794407681375	1282.5923165606043
58.48586235175819	1234.9390660164804
59.070720975275776	1189.0394233962265
59.661428185028534	1144.8147556222625
60.25804246687882	1102.2217813529091
60.860622891547614	1061.1847211933537
61.46922912046309	1021.6567465472082
62.083921411667724	983.5874162651403
62.7047606257844	946.9102626075673
63.331808232042235	911.5927711561475
63.965126314362664	877.5730884219817
64.60477757750628	844.806315147384
65.25082535328136	813.249003643398
65.90333360681416	782.8526976595037
66.56236694288232	753.583597020738
67.22799061231113	725.3937488174763
67.90027051843424	698.2478718793157
68.57927322361859	672.1052406022566
69.26506595585477	646.9289134073807
69.95771661541333	622.686256634333
70.65729378156746	599.3432305723541
71.36386671938313	576.8641939996069
72.07750538657696	555.2201492900529
72.79828044044274	534.3784982951765
73.52626324484716	514.313069443319
74.26152587729563	494.9913117290582
75.00414113606858	476.38969997681943
75.75418254742928	458.47884716922096
76.51172437290357	441.2331968153994
77.27684161663261	424.631851475651
78.04961003279894	408.6463239339688
78.83010613312693	393.2592810251815
79.6184071944582	378.44489948899326
80.41459126640278	364.1830016089546
81.2187371790668	350.4551781292686
82.03092455085748	337.2383786353749
82.85123379636605	324.5173065782716
83.6797461343297	312.2706815604444
84.51654359567301	300.4818813751315
85.36170903162974	289.1348423792778
86.21532612194603	278.2110817434769
87.0774793831655	267.69779225776847
87.94825417699715	257.5772264871591
88.82773671876713	247.83650070806237
89.71601408595481	238.4613527617122
90.61317422681435	229.436999873296
91.5193059690825	220.75295946226936
92.43449902877332	212.39363879378192
